-8.556000000000047123e+00,-1.244662500000004890e+01,-1.629037500000005068e+01,-1.952475000000005423e+01,-2.218100000000005423e+01,-2.155600000000005423e+01,-1.564975000000005068e+01,-7.696625000000045347e+00,-1.509125000000041350e+00,9.596249999999606484e-01,5.377499999999600933e-01,-6.966250000000407949e-01,-2.165375000000041794e+00,-5.602875000000043570e+00,-1.169662500000004712e+01,-1.757162500000005068e+01,-2.118100000000005423e+01,-2.004037500000005423e+01,-1.672787500000005068e+01,-1.530600000000005068e+01,-1.674350000000005068e+01,-1.819662500000005423e+01,-1.933725000000005423e+01,-2.077475000000005423e+01,-2.210287500000005423e+01,-2.608725000000005778e+01,-2.921225000000006133e+01,-2.894662500000006133e+01,-2.469662500000005423e+01,-2.196225000000005423e+01,-1.900912500000005068e+01,-1.597787500000005068e+01,-1.372787500000004712e+01,-1.161850000000004712e+01,-1.049350000000004712e+01,-1.027475000000004712e+01,-1.213412500000004890e+01,-1.110287500000004712e+01,-1.113412500000004712e+01,-1.300912500000005068e+01,-1.511850000000005068e+01,-1.611850000000005068e+01,-1.744662500000005068e+01,-1.964975000000005423e+01,-2.043100000000005423e+01,-2.186850000000005423e+01,-2.188412500000005423e+01,-1.893100000000005423e+01,-1.666537500000005068e+01,-1.646225000000005068e+01,-1.635287500000005068e+01,-1.522787500000005068e+01,-1.480600000000005068e+01,-1.510287500000005068e+01,-1.586850000000005068e+01,-1.816537500000005068e+01,-1.871225000000005068e+01,-1.754037500000005068e+01,-1.672787500000005068e+01,-1.829037500000005423e+01,-2.091537500000005423e+01,-2.266537500000005423e+01,-2.349350000000005423e+01,-2.591537500000005778e+01,-3.047787500000006133e+01,-3.500912500000006133e+01,-3.941537500000006844e+01,-4.061850000000006844e+01,-3.900912500000006844e+01,-3.824350000000006844e+01,-3.911850000000006844e+01,-3.710287500000006844e+01,-3.247787500000006133e+01,-2.785287500000006133e+01,-2.163412500000005423e+01,-1.877475000000005068e+01,-2.177475000000005423e+01,-2.444662500000005423e+01,-2.546225000000005423e+01,-2.668100000000006133e+01,-2.868100000000006133e+01,-3.018100000000006133e+01,-3.194662500000006133e+01,-3.050912500000006133e+01,-2.389975000000005423e+01,-2.002475000000005423e+01,-1.838412500000005068e+01,-1.896225000000005068e+01,-1.888412500000005068e+01,-1.855600000000005068e+01,-1.847787500000005068e+01,-2.014975000000005423e+01,-2.255600000000005423e+01,-2.060287500000005423e+01,-1.669662500000005068e+01,-1.054037500000004712e+01,-6.399750000000043570e+00,-4.196625000000042682e+00,-3.102875000000041794e+00,-8.685000000000406839e-01
1.756250000000001066e+01,-5.468750000000008882e-01,-1.776562500000001066e+01,-3.246875000000001421e+01,-3.793750000000002132e+01,-3.081250000000002132e+01,-1.390625000000001066e+01,7.890625000000003553e+00,2.401562500000001421e+01,3.054687500000002132e+01,3.003125000000002132e+01,2.151562500000001421e+01,1.123437500000000711e+01,-1.203125000000001776e+00,-1.773437500000001066e+01,-2.704687500000001776e+01,-2.812500000000002132e+01,-2.026562500000001421e+01,-1.765625000000001776e+00,1.343750000000000711e+01,2.156250000000001421e+01,2.545312500000002132e+01,1.884375000000001421e+01,7.906250000000005329e+00,-5.203125000000005329e+00,-2.090625000000001421e+01,-2.865625000000002132e+01,-2.654687500000001421e+01,-1.392187500000000711e+01,4.343750000000001776e+00,1.839062500000001066e+01,2.404687500000001421e+01,1.948437500000001421e+01,6.000000000000005329e+00,-6.437500000000002665e+00,-1.428125000000000711e+01,-1.567187500000000888e+01,-6.515625000000003553e+00,3.640625000000002220e+00,1.295312500000000711e+01,1.643750000000001066e+01,1.256250000000000711e+01,4.828125000000003553e+00,-7.718750000000005329e+00,-1.487500000000001066e+01,-1.787500000000001066e+01,-1.517187500000001066e+01,-4.875000000000002665e+00,4.234375000000002665e+00,1.203125000000000711e+01,1.554687500000001066e+01,1.448437500000001066e+01,8.312500000000005329e+00,-2.140625000000001776e+00,-1.087500000000000711e+01,-1.745312500000001066e+01,-1.509375000000000888e+01,-3.953125000000002665e+00,7.546875000000006217e+00,1.760937500000001421e+01,2.017187500000001421e+01,1.273437500000001066e+01,1.687500000000002220e+00,-1.026562500000000533e+01,-1.789062500000001066e+01,-1.429687500000000888e+01,-1.765625000000002220e+00,1.000000000000000533e+01,1.457812500000001066e+01,6.750000000000003553e+00,-1.437500000000001243e+01,-2.795312500000002132e+01,-2.632812500000002132e+01,-1.282812500000000888e+01,1.332812500000001066e+01,3.109375000000002132e+01,3.390625000000002132e+01,2.589062500000001421e+01,9.031250000000005329e+00,-8.000000000000005329e+00,-2.387500000000001421e+01,-2.981250000000002132e+01,-2.873437500000002132e+01,-1.917187500000001421e+01,2.156250000000000000e+00,1.784375000000000711e+01,2.839062500000001421e+01,3.096875000000002132e+01,1.932812500000001421e+01,2.812500000000001332e+00,-1.439062500000000711e+01,-3.003125000000001421e+01,-3.212500000000002132e+01,-1.995312500000001421e+01,-1.484375000000002665e+00,1.829687500000001066e+01,2.509375000000001421e+01,1.864062500000001066e+01,5.546875000000001776e+00,-6.625000000000005329e+00
-8.312500000000005329e+00,-8.062500000000003553e+00,8.250000000000003553e+00,6.687500000000002665e+00,-2.518750000000001066e+01,-4.393750000000001421e+01,-1.450000000000000355e+01,2.825000000000001066e+01,3.268750000000001421e+01,8.687500000000003553e+00,-6.875000000000002665e+00,-3.625000000000001776e+00,1.062500000000000355e+01,1.550000000000000711e+01,2.625000000000001776e+00,-1.718750000000000711e+01,-3.450000000000001421e+01,-2.325000000000000711e+01,1.568750000000000533e+01,2.956250000000001421e+01,1.062500000000000533e+01,-6.562500000000003553e+00,-8.312500000000003553e+00,1.281250000000000711e+01,2.750000000000001421e+01,-5.062500000000000000e+00,-4.293750000000002132e+01,-2.831250000000001421e+01,8.562500000000003553e+00,1.531250000000000711e+01,7.062500000000004441e+00,9.875000000000005329e+00,8.937500000000003553e+00,4.312500000000001776e+00,4.125000000000001776e+00,-1.325000000000000711e+01,-2.900000000000001421e+01,-3.687500000000003553e+00,2.268750000000001066e+01,1.000000000000000711e+01,-4.875000000000001776e+00,4.750000000000001776e+00,9.812500000000003553e+00,8.125000000000008882e-01,-6.000000000000001776e+00,-1.781250000000000711e+01,-1.875000000000000711e+01,6.500000000000001776e+00,1.712500000000000711e+01,1.375000000000000000e+00,-2.500000000000000888e+00,6.437500000000002665e+00,5.187500000000001776e+00,5.937500000000002665e+00,6.687500000000003553e+00,-1.643750000000000711e+01,-3.175000000000001421e+01,-5.562500000000003553e+00,2.512500000000001066e+01,2.087500000000000711e+01,-2.312500000000000888e+00,-6.125000000000002665e+00,9.000000000000003553e+00,8.375000000000003553e+00,-1.018750000000000355e+01,-2.375000000000001066e+01,-2.237500000000001066e+01,7.312500000000003553e+00,4.537500000000002132e+01,2.868750000000001421e+01,-2.256250000000000711e+01,-3.200000000000001421e+01,-2.400000000000001066e+01,-2.262500000000001421e+01,1.475000000000000533e+01,4.862500000000002842e+01,2.456250000000001421e+01,-1.075000000000000533e+01,-1.487500000000000533e+01,-1.875000000000000444e+00,1.275000000000000533e+01,3.687500000000000000e+00,-3.862500000000001421e+01,-4.112500000000001421e+01,1.743750000000000711e+01,4.137500000000001421e+01,1.093750000000000533e+01,-8.312500000000003553e+00,2.000000000000001776e+00,1.718750000000000711e+01,8.812500000000001776e+00,-1.937500000000000711e+01,-3.112500000000001421e+01,-2.250000000000001421e+01,-4.875000000000004441e+00,2.568750000000001066e+01,4.050000000000001421e+01,1.275000000000000355e+01,-2.300000000000001066e+01,-2.256250000000000711e+01
-1.100000000000000355e+01,-3.250000000000000888e+00,5.000000000000002220e-01,1.700000000000000355e+01,-1.400000000000000355e+01,-1.800000000000000355e+01,-1.325000000000000355e+01,2.425000000000000711e+01,1.050000000000000355e+01,-3.500000000000000888e+00,-2.000000000000000444e+00,-2.500000000000000888e+00,-2.000000000000000000e+00,2.000000000000000355e+01,-1.350000000000000355e+01,6.500000000000000888e+00,-1.250000000000000178e+01,-2.375000000000000711e+01,1.950000000000000711e+01,1.500000000000000355e+01,-6.750000000000001776e+00,1.000000000000000000e+00,-5.000000000000000000e-01,-1.825000000000000355e+01,4.550000000000001421e+01,-2.025000000000000711e+01,-8.500000000000001776e+00,-2.850000000000000711e+01,2.875000000000000711e+01,-3.000000000000000888e+00,-3.750000000000000444e+00,7.750000000000001776e+00,3.000000000000000444e+00,-1.000000000000000000e+00,-5.500000000000001776e+00,2.550000000000000711e+01,-5.150000000000001421e+01,2.300000000000000711e+01,4.500000000000000888e+00,9.750000000000001776e+00,-1.575000000000000355e+01,3.500000000000001332e+00,1.750000000000000355e+01,-1.875000000000000355e+01,1.100000000000000355e+01,-1.750000000000000888e+00,-2.550000000000000355e+01,1.600000000000000355e+01,1.000000000000000355e+01,-6.250000000000001776e+00,-5.000000000000000888e+00,7.000000000000001776e+00,7.000000000000001776e+00,-1.800000000000000355e+01,2.775000000000000711e+01,-1.425000000000000355e+01,-1.775000000000000355e+01,-2.250000000000000000e+00,1.775000000000000355e+01,5.500000000000001776e+00,-1.250000000000000000e+00,-1.325000000000000355e+01,1.150000000000000355e+01,8.500000000000003553e+00,-1.275000000000000355e+01,7.500000000000002220e-01,-1.275000000000000178e+01,-6.000000000000001776e+00,2.075000000000000355e+01,3.250000000000000711e+01,-3.625000000000000711e+01,-1.225000000000000355e+01,2.550000000000000711e+01,-4.400000000000001421e+01,1.225000000000000355e+01,3.475000000000000711e+01,-3.000000000000000000e+00,-7.000000000000002665e+00,-7.000000000000001776e+00,4.250000000000000888e+00,-3.500000000000000888e+00,1.600000000000000355e+01,-2.000000000000000000e+00,-6.350000000000001421e+01,5.100000000000001421e+01,4.500000000000000888e+00,1.750000000000000888e+00,-9.000000000000001776e+00,2.500000000000000000e-01,8.250000000000001776e+00,7.750000000000001776e+00,-3.750000000000001776e+00,-2.950000000000000711e+01,2.375000000000000355e+01,-3.525000000000000711e+01,3.025000000000000711e+01,5.500000000000000888e+00,1.650000000000000355e+01,-2.275000000000000355e+01,-9.250000000000001776e+00
