-1.446849999999995973e+01,-1.537474999999995973e+01,-1.656224999999995973e+01,-1.762474999999995973e+01,-1.735912499999995973e+01,-1.520287499999995973e+01,-1.281224999999995617e+01,-1.089037499999995617e+01,-9.843499999999954397e+00,-9.515374999999954397e+00,-9.265374999999954397e+00,-9.421624999999954397e+00,-1.031224999999995617e+01,-1.132787499999995617e+01,-1.253099999999995973e+01,-1.323412499999995973e+01,-1.314037499999995973e+01,-1.329662499999995973e+01,-1.303099999999995973e+01,-1.265599999999995973e+01,-1.271849999999995973e+01,-1.410912499999995973e+01,-1.526537499999995973e+01,-1.676537499999995973e+01,-1.876537499999995973e+01,-2.014037499999995973e+01,-2.151537499999995973e+01,-2.257787499999995973e+01,-2.334349999999996328e+01,-2.321849999999996328e+01,-2.329662499999996328e+01,-2.345287499999996328e+01,-2.365599999999996328e+01,-2.399974999999996683e+01,-2.524974999999997038e+01,-2.673412499999997038e+01,-2.776537499999997038e+01,-2.876537499999997038e+01,-2.957787499999997038e+01,-2.965599999999997038e+01,-2.887474999999997038e+01,-2.793724999999997038e+01,-2.592162499999997038e+01,-2.293724999999996683e+01,-2.009349999999996328e+01,-1.718724999999995973e+01,-1.403099999999995973e+01,-1.095287499999995617e+01,-8.140374999999954397e+00,-5.155999999999952621e+00,-1.452874999999949956e+00,1.172125000000051598e+00,4.250250000000054484e+00,7.859625000000056261e+00,1.225025000000005804e+01,1.631275000000006159e+01,2.017212500000006514e+01,2.396900000000006870e+01,2.667212500000007225e+01,3.003150000000007225e+01,3.292212500000007225e+01,3.543775000000007225e+01,3.650025000000007225e+01,3.782837500000007225e+01,3.985962500000007225e+01,4.260962500000007935e+01,4.492212500000007935e+01,4.667212500000008646e+01,4.937525000000009356e+01,5.143775000000009356e+01,5.432837500000009356e+01,5.748462500000009356e+01,5.993775000000009356e+01,6.132837500000009356e+01,6.384400000000009356e+01,6.710962500000009356e+01,6.900025000000009356e+01,7.201587500000009356e+01,7.426587500000009356e+01,7.632837500000009356e+01,7.859400000000009356e+01,8.115650000000009356e+01,8.329712500000009356e+01,8.550025000000009356e+01,8.798462500000009356e+01,8.975025000000010778e+01,9.228150000000010778e+01,9.421900000000010778e+01,9.606275000000013620e+01,9.787525000000013620e+01,9.981275000000013620e+01,1.005158750000001362e+02,1.013283750000001362e+02,1.002190000000001362e+02,9.662525000000013620e+01,9.107837500000010778e+01,8.306275000000010778e+01,7.257837500000009356e+01,5.904712500000009356e+01,4.417212500000007935e+01
-2.625000000000001776e+00,-4.281250000000002665e+00,-5.781250000000003553e+00,-8.218750000000005329e+00,-7.859375000000005329e+00,-4.265625000000003553e+00,-4.062500000000003331e-01,4.671875000000003553e+00,7.937500000000005329e+00,7.296875000000005329e+00,6.796875000000004441e+00,4.140625000000002665e+00,-3.125000000000000000e-02,-2.828125000000001776e+00,-6.375000000000003553e+00,-7.671875000000005329e+00,-5.515625000000003553e+00,-1.484375000000001332e+00,3.187500000000001332e+00,6.812500000000003553e+00,7.812500000000005329e+00,4.640625000000002665e+00,1.734375000000000888e+00,-1.265625000000001110e+00,-3.640625000000002665e+00,-2.578125000000001776e+00,-2.640625000000001776e+00,-2.578125000000001776e+00,-2.000000000000001332e+00,-2.437500000000001776e+00,-9.218750000000006661e-01,1.484375000000001110e+00,3.375000000000002220e+00,5.156250000000003553e+00,4.656250000000002665e+00,2.015625000000001332e+00,-9.531250000000011102e-01,-3.890625000000002665e+00,-6.015625000000004441e+00,-5.875000000000004441e+00,-4.468750000000003553e+00,-2.968750000000001776e+00,-6.093750000000003331e-01,9.375000000000016653e-02,-5.551115123125782702e-17,-9.375000000000022204e-02,-1.000000000000000888e+00,4.218749999999998890e-01,1.296875000000000666e+00,1.875000000000001332e+00,1.921875000000001332e+00,-1.078125000000000444e+00,-3.031250000000001776e+00,-4.640625000000003553e+00,-3.968750000000003553e+00,-1.281250000000001110e+00,1.234375000000000888e+00,4.312500000000002665e+00,5.296875000000003553e+00,5.062500000000003553e+00,3.734375000000002665e+00,6.562500000000006661e-01,-2.031250000000000888e+00,-2.921875000000001776e+00,-2.890625000000001776e+00,-1.328125000000000888e+00,1.718750000000001110e-01,-2.656250000000002220e-01,-5.312500000000004441e-01,3.437500000000000000e-01,7.031250000000004441e-01,1.484375000000000888e+00,2.906250000000001776e+00,-4.218750000000000000e-01,-1.687500000000001332e+00,-1.515625000000001110e+00,-3.781250000000002665e+00,-2.968750000000000000e-01,1.765625000000001332e+00,1.953125000000001332e+00,4.125000000000002665e+00,2.562500000000001332e+00,-4.531250000000004996e-01,-2.343750000000001776e+00,-4.265625000000002665e+00,-4.281250000000002665e+00,-8.125000000000002220e-01,3.187500000000001776e+00,5.718750000000003553e+00,6.468750000000004441e+00,3.531250000000002220e+00,-1.609375000000000888e+00,-4.359375000000002665e+00,-2.875000000000001332e+00,4.468750000000002665e+00,1.576562500000000711e+01,2.653125000000001421e+01,2.926562500000002132e+01,2.192187500000001421e+01,7.546875000000005329e+00
-2.062500000000000888e+00,6.500000000000002665e+00,6.687500000000002665e+00,-7.562500000000003553e+00,-1.368750000000000533e+01,-3.937500000000000888e+00,5.812500000000002665e+00,8.562500000000003553e+00,2.750000000000000888e+00,-3.937500000000001776e+00,5.625000000000004441e-01,6.375000000000003553e+00,3.437500000000001776e+00,-3.000000000000001332e+00,-6.750000000000003553e+00,-2.500000000000001332e+00,1.250000000000000666e+00,-4.875000000000001776e+00,-4.312500000000001776e+00,9.437500000000003553e+00,1.125000000000000355e+01,-1.437500000000000888e+00,-4.625000000000001776e+00,-1.625000000000000888e+00,-1.750000000000000888e+00,8.125000000000004441e-01,1.000000000000000666e+00,-2.250000000000000888e+00,-8.125000000000004441e-01,1.750000000000000888e+00,-1.687500000000000444e+00,-5.437500000000001776e+00,1.375000000000000888e+00,9.687500000000003553e+00,3.187500000000001776e+00,-4.937500000000001776e+00,6.249999999999955591e-02,2.250000000000000888e+00,-4.562500000000001776e+00,-4.625000000000001776e+00,-6.249999999999988898e-02,-5.000000000000000000e-01,1.250000000000001110e-01,2.187500000000000888e+00,1.875000000000000000e-01,-1.375000000000000666e+00,8.750000000000002220e-01,-6.250000000000002220e-01,-5.062500000000001776e+00,2.125000000000000444e+00,1.012500000000000355e+01,2.500000000000000000e-01,-8.625000000000003553e+00,-2.375000000000000888e+00,8.125000000000006661e-01,-4.187500000000001776e+00,9.375000000000000000e-01,9.312500000000003553e+00,-1.250000000000000000e-01,-8.000000000000003553e+00,5.187500000000001776e+00,1.250000000000000533e+01,-3.375000000000001776e+00,-1.481250000000000711e+01,-3.125000000000001776e+00,9.562500000000003553e+00,4.000000000000000888e+00,-3.062500000000001332e+00,-5.000000000000001110e-01,-3.687500000000001332e+00,-5.437500000000001776e+00,8.625000000000003553e+00,9.750000000000003553e+00,-8.312500000000003553e+00,-5.562500000000001776e+00,5.250000000000003553e+00,-2.375000000000000444e+00,-3.625000000000001332e+00,2.562500000000000888e+00,1.562500000000000666e+00,1.375000000000000444e+00,1.625000000000000444e+00,1.250000000000000444e+00,1.187500000000000444e+00,-4.625000000000001776e+00,-6.875000000000002665e+00,1.125000000000000888e+00,2.937500000000001776e+00,-1.875000000000000555e-01,6.000000000000002665e+00,8.000000000000003553e+00,-2.562500000000000888e+00,-7.875000000000003553e+00,-4.750000000000002665e+00,-2.750000000000000888e+00,1.000000000000000444e+00,9.000000000000003553e+00,1.725000000000000711e+01,2.187500000000000711e+01,9.625000000000005329e+00
-5.000000000000001776e+00,2.000000000000000888e+00,9.500000000000001776e+00,-5.750000000000001776e+00,-1.025000000000000178e+01,5.250000000000001776e+00,-7.500000000000004441e-01,2.500000000000000888e+00,7.000000000000001776e+00,-1.100000000000000355e+01,3.750000000000000888e+00,4.750000000000000888e+00,-2.250000000000000444e+00,2.000000000000000444e+00,-3.500000000000000888e+00,-5.750000000000000888e+00,1.125000000000000178e+01,-8.500000000000001776e+00,-2.000000000000000000e+00,2.500000000000000000e-01,1.650000000000000355e+01,-1.325000000000000178e+01,0.000000000000000000e+00,7.500000000000001776e+00,-1.200000000000000355e+01,9.750000000000003553e+00,-4.000000000000000888e+00,1.250000000000000222e+00,-4.000000000000000888e+00,5.750000000000001776e+00,-3.250000000000000444e+00,2.500000000000000555e-01,-7.250000000000001776e+00,1.300000000000000355e+01,-7.500000000000000000e-01,-7.500000000000001776e+00,2.500000000000000444e+00,5.250000000000000888e+00,-5.000000000000000888e+00,-5.000000000000000888e+00,8.250000000000001776e+00,-6.750000000000001776e+00,2.250000000000000888e+00,1.500000000000000222e+00,-2.500000000000000555e-01,-1.500000000000000444e+00,0.000000000000000000e+00,3.000000000000000888e+00,-2.250000000000000888e+00,-1.000000000000000178e+01,2.125000000000000355e+01,-1.050000000000000178e+01,-2.750000000000000444e+00,0.000000000000000000e+00,2.750000000000000444e+00,1.000000000000000222e+00,-1.450000000000000355e+01,2.425000000000000711e+01,-1.300000000000000178e+01,7.500000000000000000e-01,-8.000000000000001776e+00,2.325000000000000711e+01,-1.425000000000000355e+01,-1.250000000000000444e+00,-8.000000000000001776e+00,1.400000000000000355e+01,-1.250000000000000000e+00,-7.500000000000001776e+00,5.500000000000000888e+00,1.750000000000000222e+00,-1.075000000000000178e+01,3.250000000000000888e+00,1.725000000000000355e+01,-1.275000000000000355e+01,-1.575000000000000355e+01,3.400000000000000711e+01,-3.000000000000000711e+01,1.275000000000000355e+01,-7.500000000000002220e-01,-2.000000000000000444e+00,1.750000000000000444e+00,1.500000000000000222e+00,-2.250000000000000444e+00,1.500000000000000444e+00,4.750000000000000888e+00,-1.575000000000000355e+01,1.225000000000000178e+01,-2.500000000000000888e+00,-7.500000000000002220e-01,-3.500000000000000444e+00,1.550000000000000355e+01,-1.150000000000000178e+01,-2.500000000000000000e-01,1.250000000000000222e+00,-4.500000000000000888e+00,4.000000000000000888e+00,-4.750000000000000888e+00,1.575000000000000355e+01,-1.000000000000000178e+01,2.950000000000000711e+01
