1.312396250000000748e+02,1.341146250000000748e+02,1.346302500000000748e+02,1.358802500000000748e+02,1.368646250000000748e+02,1.356146250000000748e+02,1.356927500000000748e+02,1.351302500000000748e+02,1.353958750000000748e+02,1.351771250000000748e+02,1.369583750000000748e+02,1.368958750000000748e+02,1.360365000000000748e+02,1.363802500000000748e+02,1.367552500000000748e+02,1.378802500000000748e+02,1.395052500000000748e+02,1.415208750000000748e+02,1.423490000000000748e+02,1.435365000000000748e+02,1.443333750000000748e+02,1.450365000000000748e+02,1.437083750000000748e+02,1.416458750000000748e+02,1.392865000000000748e+02,1.371771250000000748e+02,1.338177500000000748e+02,1.306927500000000748e+02,1.283021250000000748e+02,1.265365000000000748e+02,1.270833750000000748e+02,1.273177500000000748e+02,1.276146250000000748e+02,1.271615000000000748e+02,1.283177500000000748e+02,1.291146250000000748e+02,1.282396250000000748e+02,1.269896250000000748e+02,1.229740000000000748e+02,1.192708750000000748e+02,1.144271250000000748e+02,1.094740000000000748e+02,1.043333750000000748e+02,9.986462500000007481e+01,9.577087500000006060e+01,9.031775000000004638e+01,8.781775000000004638e+01,8.627087500000003217e+01,8.545837500000003217e+01,8.484900000000003217e+01,8.342712500000003217e+01,8.091150000000003217e+01,7.944275000000003217e+01,7.916150000000003217e+01,7.641150000000003217e+01,7.163025000000003217e+01,6.675525000000003217e+01,6.183337500000003217e+01,5.688025000000003217e+01,5.352087500000003217e+01,4.892712500000002507e+01,4.459900000000001796e+01,4.102087500000001086e+01,3.814587500000001086e+01,3.567712500000001086e+01,3.344275000000001086e+01,3.120837500000001086e+01,2.702087500000001086e+01,2.502087500000001086e+01,2.203650000000000375e+01,2.009900000000000020e+01,1.953650000000000020e+01,1.852087500000000020e+01,1.833337500000000020e+01,2.000525000000000375e+01,2.245837500000000375e+01,2.358337500000001086e+01,2.547400000000001086e+01,2.563025000000001086e+01,2.488025000000001086e+01,2.511462500000001086e+01,2.475525000000001086e+01,2.248962500000000730e+01,2.128650000000000375e+01,2.030212500000000375e+01,1.909900000000000020e+01,1.917712500000000020e+01,1.839587500000000020e+01,1.722400000000000020e+01,1.555212500000000020e+01,1.525525000000000020e+01,1.403649999999999842e+01,1.458337499999999842e+01,1.625525000000000020e+01,1.692712500000000020e+01,1.884900000000000020e+01,1.975525000000000375e+01,2.089587500000000375e+01,2.105212500000000375e+01,2.205212500000000375e+01,1.934900000000000375e+01,1.450525000000000020e+01,1.255212499999999665e+01,1.172399999999999665e+01,1.141149999999999665e+01,1.100524999999999487e+01,1.252087499999999665e+01,1.105212499999999665e+01,1.100524999999999665e+01,1.273962499999999842e+01,1.161462499999999665e+01,9.067749999999996646e+00,7.067749999999994870e+00,5.723999999999993094e+00,1.473999999999990429e+00,8.802499999999900959e-01,2.364624999999991317e+00,3.661499999999991317e+00,6.005249999999993094e+00,8.552124999999994870e+00,1.105212499999999487e+01,1.338024999999999665e+01,1.680212500000000020e+01,1.994275000000000020e+01,2.228650000000000375e+01,2.495837500000000730e+01,2.905212500000001086e+01,3.256775000000001086e+01,3.594275000000001086e+01,3.983337500000001086e+01,4.363025000000001796e+01,4.550525000000001796e+01,4.573962500000001796e+01,4.394275000000001796e+01,3.778650000000001086e+01,3.114587500000001086e+01,2.295837500000000375e+01,1.173962499999999665e+01,-4.947500000000100151e-01,-1.349475000000001756e+01,-2.677600000000002467e+01,-3.936975000000003888e+01,-4.674475000000003888e+01,-5.136975000000005309e+01,-5.172912500000005309e+01,-4.629162500000003888e+01,-3.565100000000003178e+01,-1.918225000000002112e+01,1.473999999999990429e+00,2.648962500000000375e+01,5.042712500000001796e+01,7.414587500000003217e+01,9.748962500000004638e+01,1.205208750000000748e+02,1.432396250000000748e+02,1.660052500000001032e+02,1.896927500000001316e+02,2.129271250000001601e+02,2.382552500000001601e+02,2.652083750000001601e+02,2.914427500000001601e+02,3.165990000000001601e+02,3.387240000000001601e+02,3.568802500000001601e+02,3.725677500000001601e+02,3.862865000000002738e+02,3.976458750000002738e+02,4.080365000000002738e+02,4.179583750000003306e+02,4.260677500000003306e+02,4.350208750000003306e+02,4.459740000000002738e+02,4.564740000000002738e+02,4.660365000000002738e+02,4.753177500000002738e+02,4.820677500000002738e+02,4.888333750000002738e+02,4.953802500000002738e+02,4.994740000000002738e+02,4.991615000000002738e+02,4.961146250000002738e+02,4.923490000000002738e+02,4.858490000000002738e+02,4.785990000000002738e+02,4.680521250000002738e+02,4.565052500000002738e+02,4.465365000000002738e+02,4.406302500000002738e+02,4.377865000000002738e+02,4.363333750000002738e+02,4.387083750000002738e+02,4.437240000000002738e+02,4.502708750000002738e+02,4.564115000000002738e+02,4.602083750000002738e+02,4.583802500000002738e+02,4.519740000000002738e+02,4.393021250000002738e+02,4.204271250000002738e+02,3.947083750000002738e+02,3.660521250000002169e+02,3.364115000000001601e+02,3.060521250000001601e+02,2.769896250000001601e+02,2.479583750000001601e+02,2.217865000000001601e+02,1.977083750000001601e+02,1.770208750000001032e+02,1.583490000000000748e+02,1.415521250000000748e+02,1.255833750000000748e+02,1.129427500000000748e+02,1.038021250000000748e+02,9.872400000000007481e+01,9.638025000000006060e+01,9.859900000000006060e+01,1.052552500000000748e+02,1.137396250000000748e+02,1.267865000000000748e+02,1.402240000000000748e+02,1.550833750000000748e+02,1.701771250000001032e+02,1.854427500000001601e+02,1.991615000000001601e+02,2.109583750000001601e+02,2.220521250000001601e+02,2.316146250000001601e+02,2.406146250000001601e+02,2.503490000000001601e+02,2.590208750000001601e+02,2.699896250000001601e+02,2.822396250000001601e+02,2.956615000000001601e+02,3.120365000000001601e+02,3.299427500000001601e+02,3.512552500000001601e+02,3.732396250000002738e+02,3.979740000000002738e+02,4.221458750000002738e+02,4.455365000000002738e+02,4.685365000000002738e+02,4.889896250000002738e+02,5.073802500000002738e+02,5.217708750000002738e+02,5.332083750000002738e+02,5.411302500000002738e+02,5.466458750000002738e+02,5.505677500000002738e+02,5.526615000000002738e+02,5.537552500000002738e+02,5.541146250000002738e+02,5.544427500000002738e+02,5.546458750000002738e+02,5.548021250000002738e+02,5.548802500000002738e+02,5.549427500000002738e+02,5.550208750000002738e+02,5.550365000000002738e+02,5.550365000000002738e+02,5.549896250000002738e+02,5.549583750000002738e+02,5.548958750000002738e+02,5.548490000000002738e+02,5.547865000000002738e+02,5.547083750000002738e+02,5.546615000000002738e+02,5.546615000000002738e+02,5.546771250000002738e+02,5.546927500000002738e+02,5.547240000000002738e+02,5.547552500000002738e+02,5.547240000000002738e+02,5.546927500000002738e+02,5.546615000000002738e+02,5.545677500000002738e+02,5.544583750000002738e+02,5.543490000000002738e+02,5.542396250000002738e+02,5.541146250000002738e+02,5.540833750000002738e+02,5.540208750000002738e+02,5.539271250000002738e+02,5.538490000000002738e+02,5.537240000000002738e+02,5.534740000000002738e+02,5.525677500000002738e+02,5.509271250000002738e+02,5.481146250000002738e+02,5.438958750000002738e+02,5.373021250000002738e+02,5.269583750000002738e+02,5.134896250000002738e+02,4.974740000000002738e+02,4.792083750000002738e+02,4.579115000000002738e+02,4.353177500000002738e+02,4.111146250000002738e+02,3.865365000000002738e+02,3.652865000000001601e+02,3.455833750000001601e+02,3.253802500000001601e+02,3.065052500000001601e+02,2.892865000000001601e+02,2.721458750000001601e+02,2.557240000000001601e+02,2.400677500000001601e+02,2.225052500000001601e+02,2.038958750000001601e+02,1.856771250000001601e+02,1.660365000000001032e+02,1.474583750000000748e+02,1.287396250000000748e+02,1.099740000000000748e+02,9.195837500000004638e+01,7.361462500000004638e+01,5.675525000000003217e+01,4.105212500000001796e+01,2.586462500000000375e+01,9.458374999999996646e+00,-6.932250000000014900e+00,-2.283850000000002467e+01,-4.058850000000003888e+01,-5.751037500000005309e+01,-7.521350000000006730e+01,-9.190100000000006730e+01,-1.073853750000000957e+02,-1.218697500000000957e+02,-1.354010000000000957e+02,-1.476978750000000957e+02,-1.573697500000000957e+02,-1.669322500000000957e+02,-1.759322500000001241e+02,-1.865103750000001526e+02,-1.968853750000001810e+02,-2.087760000000001810e+02,-2.201510000000001810e+02,-2.322291250000001810e+02,-2.459010000000001810e+02,-2.584791250000001810e+02,-2.721041250000001810e+02,-2.851197500000001810e+02,-2.979322500000001810e+02,-3.090885000000001810e+02,-3.201197500000001810e+02,-3.319478750000001810e+02,-3.428697500000001810e+02,-3.553228750000001810e+02,-3.663072500000001810e+02,-3.757916250000001810e+02,-3.862291250000002947e+02,-3.958228750000002947e+02,-4.058385000000002947e+02,-4.141197500000002947e+02,-4.214322500000003515e+02,-4.266197500000003515e+02,-4.308228750000003515e+02,-4.358072500000003515e+02,-4.389635000000003515e+02,-4.419947500000003515e+02,-4.437135000000003515e+02,-4.449947500000003515e+02,-4.462135000000003515e+02,-4.473853750000003515e+02,-4.485416250000003515e+02,-4.488385000000003515e+02,-4.491197500000003515e+02,-4.492135000000003515e+02,-4.493072500000003515e+02,-4.494322500000003515e+02,-4.494010000000003515e+02,-4.493697500000003515e+02,-4.493385000000003515e+02,-4.493228750000003515e+02,-4.493385000000003515e+02,-4.493697500000003515e+02,-4.494010000000003515e+02,-4.493853750000003515e+02,-4.494010000000003515e+02,-4.494322500000003515e+02,-4.494635000000003515e+02,-4.494635000000003515e+02,-4.494478750000003515e+02,-4.494322500000003515e+02,-4.494166250000003515e+02,-4.494478750000003515e+02,-4.494635000000003515e+02,-4.494322500000003515e+02,-4.494010000000003515e+02,-4.493853750000003515e+02,-4.493697500000003515e+02,-4.493697500000003515e+02,-4.493697500000003515e+02,-4.493541250000003515e+02,-4.493385000000003515e+02,-4.493697500000003515e+02,-4.493853750000003515e+02,-4.494010000000003515e+02,-4.494166250000003515e+02,-4.494010000000003515e+02,-4.493853750000003515e+02,-4.493697500000003515e+02,-4.493541250000003515e+02,-4.493228750000003515e+02,-4.492447500000003515e+02,-4.483072500000003515e+02,-4.465416250000003515e+02,-4.439947500000003515e+02,-4.408853750000003515e+02,-4.373853750000003515e+02,-4.326510000000003515e+02,-4.273072500000003515e+02,-4.211822500000003515e+02,-4.151666250000003515e+02,-4.094791250000003515e+02,-4.026041250000002947e+02,-3.945728750000002947e+02,-3.856978750000002947e+02,-3.764322500000001810e+02,-3.650416250000001810e+02,-3.523072500000001810e+02,-3.397291250000001810e+02,-3.252916250000001810e+02,-3.123072500000001810e+02,-3.007291250000001810e+02,-2.886041250000001810e+02,-2.769166250000001810e+02,-2.679947500000001810e+02,-2.600103750000001810e+02,-2.510728750000001810e+02,-2.449791250000001810e+02,-2.380572500000001810e+02,-2.293072500000001810e+02,-2.210885000000001810e+02,-2.137760000000001810e+02,-2.043697500000001810e+02,-1.960885000000001810e+02,-1.881666250000001241e+02,-1.775103750000000957e+02,-1.682916250000000957e+02,-1.600885000000000957e+02,-1.518541250000000957e+02,-1.431041250000000957e+02,-1.364791250000000957e+02,-1.283697500000000957e+02,-1.212760000000000957e+02,-1.161666250000000957e+02,-1.089635000000000957e+02,-1.026666250000000957e+02,-9.768225000000009572e+01,-9.304162500000006730e+01,-8.679162500000006730e+01,-8.135412500000005309e+01,-7.533850000000005309e+01,-6.927600000000005309e+01,-6.574475000000005309e+01,-6.116662500000005309e+01,-5.632287500000005309e+01,-4.990100000000005309e+01,-4.482287500000004599e+01,-4.107287500000003888e+01,-3.641662500000003178e+01,-3.057287500000003178e+01,-2.357287500000002467e+01,-1.832287500000002467e+01,-1.218225000000001756e+01,-7.510375000000015788e+00,-2.026000000000012236e+00,5.692749999999993094e+00,1.255212499999999665e+01,1.883337500000000020e+01,2.541150000000000375e+01,3.439587500000001086e+01,4.320837500000001796e+01,5.081775000000002507e+01,5.770837500000003217e+01,6.347400000000003217e+01,6.783337500000003217e+01,7.139587500000003217e+01,7.525525000000003217e+01,7.628650000000003217e+01,7.681775000000003217e+01,7.830212500000003217e+01,8.019275000000003217e+01,8.111462500000003217e+01,8.330212500000003217e+01,8.588025000000003217e+01,8.653650000000003217e+01,8.834900000000003217e+01,9.008337500000003217e+01,9.186462500000004638e+01,9.242712500000004638e+01,9.331775000000004638e+01,9.456775000000004638e+01,9.553650000000004638e+01,9.850525000000007481e+01,1.019271250000000748e+02,1.055208750000000748e+02,1.089740000000000748e+02,1.130208750000000748e+02,1.186458750000000748e+02,1.225833750000000748e+02,1.254271250000000748e+02,1.267396250000000748e+02,1.276146250000000748e+02,1.268177500000000748e+02,1.268802500000000748e+02,1.280521250000000748e+02,1.266771250000000748e+02,1.269427500000000748e+02,1.294896250000000748e+02,1.316771250000000748e+02,1.344896250000000748e+02,1.393802500000000748e+02,1.429583750000000748e+02,1.441771250000000748e+02,1.477396250000000748e+02,1.497865000000000748e+02,1.492552500000000748e+02,1.500052500000000748e+02,1.486458750000000748e+02,1.459115000000000748e+02,1.432865000000000748e+02,1.431927500000000748e+02,1.415990000000000748e+02,1.407865000000000748e+02,1.424427500000000748e+02,1.431927500000000748e+02,1.463333750000000748e+02,1.508802500000000748e+02,1.552083750000000748e+02,1.572708750000000748e+02,1.597083750000000748e+02,1.623646250000000748e+02,1.633177500000000748e+02,1.639896250000000748e+02,1.634896250000000748e+02,1.610521250000000748e+02,1.591146250000000748e+02,1.576458750000000748e+02,1.546927500000000748e+02,1.501615000000000748e+02,1.460052500000000748e+02,1.432865000000000748e+02,1.402552500000000748e+02,1.375677500000000748e+02,1.351458750000000748e+02,1.334115000000000748e+02,1.326458750000000748e+02,1.329896250000000748e+02,1.320833750000000748e+02,1.287865000000000748e+02,1.249583750000000748e+02,1.229427500000000748e+02,1.206146250000000748e+02,1.186458750000000748e+02,1.172552500000000748e+02,1.158021250000000748e+02,1.168177500000000748e+02,1.192396250000000748e+02,1.224427500000000748e+02,1.229271250000000748e+02,1.225521250000000748e+02,1.201927500000000748e+02,1.184271250000000748e+02,1.169583750000000748e+02,1.137240000000000748e+02,1.108333750000000748e+02,1.072240000000000748e+02,1.060052500000000748e+02,1.048646250000000748e+02,1.051146250000000748e+02,1.031927500000000748e+02,1.004427500000000748e+02,9.827087500000007481e+01,9.567712500000006060e+01,9.416150000000004638e+01,9.055212500000003217e+01,8.788025000000003217e+01,8.595837500000003217e+01,8.522400000000003217e+01,8.591150000000003217e+01,8.609900000000003217e+01,8.684900000000003217e+01,8.788025000000003217e+01,9.095837500000004638e+01,9.314587500000004638e+01,9.372400000000004638e+01,9.531775000000004638e+01,9.495837500000004638e+01,9.530212500000006060e+01,9.464587500000006060e+01,9.344275000000004638e+01,9.147400000000004638e+01,8.998962500000003217e+01,8.941150000000003217e+01,8.794275000000003217e+01,8.730212500000003217e+01,8.645837500000003217e+01,8.542712500000003217e+01,8.347400000000003217e+01,8.166150000000003217e+01,8.048962500000003217e+01,7.992712500000003217e+01,7.855212500000003217e+01,7.739587500000003217e+01,7.598962500000003217e+01,7.644275000000003217e+01,7.770837500000003217e+01,7.858337500000003217e+01,7.913025000000003217e+01,7.895837500000003217e+01,7.973962500000003217e+01,8.064587500000003217e+01,8.161462500000003217e+01,8.145837500000003217e+01,8.155212500000003217e+01,8.053650000000003217e+01,7.925525000000003217e+01,7.781775000000003217e+01,7.552087500000003217e+01,7.394275000000003217e+01,7.261462500000003217e+01,7.038025000000003217e+01,6.733337500000003217e+01,6.636462500000003217e+01,6.463025000000003217e+01,6.256775000000003217e+01,6.175525000000003217e+01,6.016150000000003217e+01,5.830212500000003217e+01,5.688025000000003217e+01,5.650525000000003217e+01,5.570837500000003217e+01,5.656775000000003217e+01,5.738025000000003217e+01,5.813025000000003217e+01,5.908337500000003217e+01,5.947400000000003217e+01,6.139587500000003217e+01,6.341150000000003217e+01,6.395837500000003217e+01,6.325525000000003217e+01,6.411462500000003217e+01,6.386462500000003217e+01,6.283337500000003217e+01,6.311462500000003217e+01,6.114587500000003217e+01,5.889587500000003217e+01,5.788025000000003217e+01,5.730212500000003217e+01,5.513025000000003217e+01,5.313025000000003217e+01,5.217712500000003217e+01,5.017712500000003217e+01,5.047400000000003217e+01,4.947400000000002507e+01,4.823962500000002507e+01,4.670837500000001796e+01,4.506775000000001796e+01,4.500525000000001796e+01,4.438025000000001086e+01,4.463025000000001086e+01,4.266150000000001086e+01,4.241150000000001086e+01,4.261462500000001086e+01,4.313025000000001086e+01,4.489587500000001086e+01,4.417712500000001086e+01,4.333337500000001086e+01,4.234900000000001086e+01,4.270837500000001086e+01,4.253650000000001086e+01,4.111462500000001086e+01,3.994275000000001086e+01,3.866150000000001086e+01,3.906775000000001086e+01,3.991150000000001086e+01,4.030212500000001086e+01,4.011462500000001086e+01,3.981775000000001086e+01,4.147400000000001086e+01,4.344275000000001086e+01,4.383337500000001086e+01,4.470837500000001796e+01,4.500525000000001796e+01,4.431775000000001796e+01,4.456775000000001796e+01,4.481775000000001796e+01,4.292712500000001796e+01,3.986462500000001086e+01,3.911462500000001086e+01,3.725525000000001086e+01,3.634900000000001086e+01,3.734900000000001086e+01,3.692712500000001086e+01,3.603650000000001086e+01,3.678650000000001086e+01,3.778650000000001086e+01,3.633337500000001086e+01,3.539587500000001086e+01,3.266150000000001086e+01,2.878650000000001086e+01,2.666150000000001086e+01,2.427087500000001086e+01,2.186462500000000375e+01,2.027087500000000020e+01,2.028650000000000020e+01,2.020837500000000020e+01,2.231775000000000375e+01,2.470837500000001086e+01,2.553650000000001086e+01,2.811462500000001086e+01,2.919275000000001086e+01,3.027087500000001086e+01,3.159900000000001086e+01,3.150525000000001086e+01,2.923962500000001086e+01,2.708337500000001086e+01,2.642712500000001086e+01,2.467712500000000730e+01,2.427087500000000730e+01,2.334900000000000730e+01,2.139587500000000375e+01,2.116150000000000020e+01,2.203650000000000020e+01,2.328650000000000375e+01,2.245837500000000375e+01,2.123962500000000375e+01,2.023962500000000375e+01,1.788025000000000020e+01,1.592712500000000020e+01,1.434900000000000020e+01,1.325525000000000020e+01,1.102087499999999665e+01,1.086462499999999665e+01,1.027087499999999665e+01,8.380249999999994870e+00,8.036499999999994870e+00,8.177124999999994870e+00,7.552124999999993982e+00,6.161499999999993982e+00,5.536499999999993094e+00,4.036499999999992205e+00,4.161499999999992205e+00,5.161499999999992205e+00,7.177124999999993094e+00,8.333374999999994870e+00,9.520874999999994870e+00,1.155212499999999665e+01,1.372399999999999842e+01,1.602087500000000020e+01,1.816150000000000020e+01,2.033337500000000020e+01,2.161462500000000375e+01,2.317712500000000730e+01,2.369275000000000730e+01,2.483337500000001086e+01,2.698962500000001086e+01,2.928650000000001086e+01,3.119275000000001086e+01,3.248962500000001086e+01,3.352087500000001086e+01,3.517712500000001086e+01,3.916150000000001086e+01,4.177087500000001086e+01,4.238025000000001086e+01,4.269275000000001086e+01,4.213025000000001086e+01,4.295837500000001086e+01,4.302087500000001086e+01,4.258337500000001086e+01,4.097400000000001086e+01,3.903650000000001086e+01,3.919275000000001086e+01,3.950525000000001086e+01,4.041150000000001086e+01,3.994275000000001086e+01,4.144275000000001086e+01,4.273962500000001086e+01,4.303650000000001086e+01,4.458337500000001086e+01,4.519275000000001796e+01,4.517712500000001796e+01,4.503650000000001796e+01,4.569275000000001796e+01,4.377087500000001086e+01,4.245837500000001086e+01,4.181775000000001086e+01,4.120837500000001086e+01,3.939587500000001086e+01,3.900525000000001086e+01,3.930212500000001086e+01,3.945837500000001086e+01,4.172400000000001086e+01,4.436462500000001796e+01,4.698962500000001796e+01,4.702087500000001796e+01,4.773962500000002507e+01,4.605212500000001796e+01,4.478650000000001796e+01,4.336462500000001796e+01,4.098962500000001086e+01,3.808337500000001086e+01,3.566150000000001086e+01,3.647400000000001086e+01,3.897400000000001086e+01,4.388025000000001796e+01,4.802087500000002507e+01,5.280212500000003217e+01,5.894275000000003217e+01,6.475525000000003217e+01,7.145837500000003217e+01,7.650525000000003217e+01,8.047400000000003217e+01,8.556775000000003217e+01,8.928650000000003217e+01,9.042712500000003217e+01,8.872400000000003217e+01,8.525525000000003217e+01,7.953650000000003217e+01,7.413025000000003217e+01,6.595837500000003217e+01,5.133337500000002507e+01,3.666150000000001796e+01,2.330212500000000375e+01,8.302124999999994870e+00,-7.463500000000015788e+00,-2.633850000000002467e+01,-4.977600000000003888e+01,-7.393225000000005309e+01,-9.691662500000006730e+01,-1.214947500000000957e+02,-1.487135000000001241e+02,-1.730572500000001241e+02,-1.944947500000001810e+02,-2.116510000000001810e+02,-2.225885000000001810e+02,-2.299322500000001810e+02,-2.313853750000001810e+02,-2.285728750000001810e+02,-2.222916250000001810e+02,-2.137603750000001810e+02,-2.056197500000001810e+02,-1.980572500000001810e+02,-1.938228750000001810e+02,-1.907135000000001526e+02,-1.920416250000001526e+02,-1.955572500000001810e+02,-1.981666250000001810e+02,-2.042916250000001810e+02,-2.128385000000001810e+02,-2.222447500000001810e+02,-2.302603750000001810e+02,-2.401978750000001810e+02,-2.513853750000001810e+02,-2.624791250000001810e+02,-2.753072500000001810e+02,-2.852291250000001810e+02,-2.904478750000001810e+02,-2.918228750000001810e+02,-2.924635000000001810e+02,-2.894947500000001810e+02,-2.826978750000001810e+02,-2.772291250000001810e+02,-2.747916250000001810e+02,-2.769478750000001810e+02,-2.840260000000001810e+02,-2.957447500000001810e+02,-3.089791250000001810e+02,-3.243853750000001810e+02,-3.399478750000001810e+02,-3.534791250000001810e+02,-3.628853750000001810e+02,-3.665572500000001810e+02,-3.683228750000001810e+02,-3.697916250000001810e+02,-3.709947500000001810e+02,-3.717916250000001810e+02,-3.746353750000001810e+02,-3.780572500000001810e+02,-3.838697500000002947e+02,-3.951353750000002947e+02,-4.055416250000002947e+02,-4.140885000000002947e+02,-4.226041250000003515e+02,-4.303541250000003515e+02,-4.355416250000003515e+02,-4.400260000000003515e+02,-4.427135000000003515e+02,-4.422447500000003515e+02,-4.417916250000003515e+02,-4.412916250000003515e+02,-4.398853750000003515e+02,-4.378228750000003515e+02,-4.371041250000003515e+02,-4.334166250000003515e+02,-4.276822500000003515e+02,-4.219478750000003515e+02,-4.161822500000003515e+02,-4.091353750000002947e+02,-4.007916250000002947e+02,-3.916510000000002947e+02,-3.809322500000002378e+02,-3.738853750000001810e+02,-3.689478750000001810e+02,-3.624478750000001810e+02,-3.556353750000001810e+02,-3.514322500000001810e+02,-3.501197500000001810e+02,-3.525572500000001810e+02,-3.586978750000001810e+02,-3.663385000000001810e+02,-3.739635000000001810e+02,-3.827135000000002947e+02,-3.921041250000002947e+02,-4.003697500000002947e+02,-4.071353750000002947e+02,-4.115572500000003515e+02,-4.117447500000003515e+02,-4.084791250000003515e+02,-4.070260000000003515e+02,-4.080103750000003515e+02,-4.086978750000003515e+02,-4.092291250000003515e+02,-4.097603750000003515e+02,-4.104791250000003515e+02,-4.150103750000003515e+02,-4.226822500000003515e+02,-4.285103750000003515e+02,-4.323385000000003515e+02,-4.361510000000003515e+02,-4.399947500000003515e+02,-4.438228750000003515e+02,-4.475728750000003515e+02,-4.494166250000003515e+02,-4.494478750000003515e+02,-4.494322500000003515e+02,-4.494166250000003515e+02,-4.494166250000003515e+02,-4.493853750000003515e+02,-4.494010000000003515e+02,-4.493697500000003515e+02,-4.493541250000003515e+02,-4.493697500000003515e+02,-4.494010000000003515e+02,-4.494166250000003515e+02,-4.493853750000003515e+02,-4.493853750000003515e+02,-4.493385000000003515e+02,-4.493385000000003515e+02,-4.493072500000003515e+02,-4.492603750000003515e+02,-4.492135000000003515e+02,-4.492135000000003515e+02,-4.492447500000003515e+02,-4.492603750000003515e+02,-4.481822500000003515e+02,-4.453385000000003515e+02,-4.415572500000003515e+02,-4.341666250000003515e+02,-4.235572500000002947e+02,-4.114791250000002947e+02,-3.968228750000002947e+02,-3.795260000000002947e+02,-3.615103750000001810e+02,-3.428385000000001810e+02,-3.223385000000001810e+02,-3.055260000000001810e+02,-2.919322500000001810e+02,-2.783697500000001810e+02,-2.650885000000001810e+02,-2.518072500000001810e+02,-2.394791250000001810e+02,-2.288541250000001810e+02,-2.197603750000001810e+02,-2.080416250000001810e+02,-1.946510000000001810e+02,-1.789635000000001241e+02,-1.641041250000001241e+02,-1.512916250000000957e+02,-1.359322500000000957e+02,-1.197760000000000957e+02,-1.018541250000000815e+02,-8.493225000000006730e+01,-6.666662500000005309e+01,-5.165100000000003888e+01,-3.655725000000003178e+01,-1.968225000000002467e+01,-5.401000000000014900e+00,1.008337499999999665e+01,2.319275000000000375e+01,3.623962500000001086e+01,4.817712500000001796e+01,6.186462500000003217e+01,7.552087500000003217e+01,8.725525000000004638e+01,9.920837500000007481e+01,1.094427500000000748e+02,1.184427500000000748e+02,1.262708750000000748e+02
1.067187500000000711e+01,9.921875000000007105e+00,2.906250000000001332e+00,-3.437500000000002220e-01,-1.515625000000001110e+00,-6.890625000000005329e+00,-5.968750000000003553e+00,-5.406250000000003553e+00,-5.468750000000008882e-01,5.796875000000004441e+00,8.828125000000007105e+00,8.640625000000007105e+00,5.000000000000013323e-01,-6.343750000000003553e+00,-1.021875000000000711e+01,-1.109375000000000711e+01,-3.281250000000001776e+00,2.953125000000001776e+00,5.812500000000003553e+00,8.875000000000005329e+00,4.703125000000002665e+00,2.062500000000001332e+00,2.828125000000001776e+00,8.906250000000006661e-01,3.750000000000002665e+00,4.296875000000002665e+00,-2.187499999999998890e-01,-1.593750000000000666e+00,-6.265625000000003553e+00,-7.875000000000003553e+00,-5.546875000000003553e+00,-5.281250000000003553e+00,-1.515625000000000888e+00,1.875000000000000000e-01,3.343750000000002220e+00,6.984375000000005329e+00,7.984375000000005329e+00,8.296875000000005329e+00,5.437500000000003553e+00,2.953125000000001776e+00,-1.562500000000000000e-02,5.625000000000002220e-01,-9.218750000000008882e-01,-3.328125000000002665e+00,-3.109375000000002665e+00,-7.781250000000004441e+00,-5.718750000000002665e+00,-2.109375000000001332e+00,-2.109375000000001332e+00,1.312500000000000888e+00,2.343750000000002220e-01,-6.875000000000005551e-01,3.031250000000001776e+00,5.375000000000002665e+00,7.875000000000003553e+00,7.406250000000003553e+00,2.718750000000001332e+00,-4.218750000000003886e-01,-3.468750000000002220e+00,-5.296875000000003553e+00,-3.328125000000002220e+00,-4.625000000000003553e+00,-4.609375000000003553e+00,4.531250000000002220e-01,-6.406250000000006661e-01,3.593750000000001332e+00,6.640625000000003553e+00,1.406250000000000000e-01,2.015625000000000888e+00,-2.312500000000000888e+00,-7.375000000000004441e+00,-4.375000000000003553e+00,-7.546875000000005329e+00,-6.671875000000004441e+00,-2.906250000000001776e+00,-1.796875000000001110e+00,1.515625000000001110e+00,4.812500000000003553e+00,7.468750000000005329e+00,8.468750000000005329e+00,8.046875000000005329e+00,4.906250000000003553e+00,-3.265625000000001776e+00,-9.125000000000005329e+00,-1.126562500000000711e+01,-9.687500000000007105e+00,-7.656250000000013323e-01,9.078125000000005329e+00,1.275000000000000888e+01,1.235937500000000888e+01,5.406250000000003553e+00,-7.562500000000006217e+00,-1.467187500000001066e+01,-1.928125000000001421e+01,-1.564062500000001066e+01,-3.125000000000001776e+00,8.781250000000007105e+00,2.226562500000001421e+01,2.342187500000001421e+01,1.542187500000000888e+01,2.687500000000000888e+00,-1.421875000000001066e+01,-1.857812500000001421e+01,-1.418750000000001066e+01,-6.625000000000005329e+00,3.281250000000002220e+00,5.265625000000003553e+00,3.296875000000002220e+00,3.031250000000002220e+00,2.421875000000001776e+00,8.921875000000005329e+00,8.906250000000005329e+00,4.093750000000001776e+00,6.250000000000000000e-01,-1.387500000000000888e+01,-1.490625000000001066e+01,-1.045312500000000711e+01,-8.625000000000007105e+00,4.156250000000001776e+00,5.046875000000002665e+00,3.421875000000002665e+00,4.843750000000003553e+00,-7.031250000000003331e-01,1.093750000000000444e+00,1.062500000000000222e+00,-2.921875000000001776e+00,-4.203125000000002665e+00,-8.468750000000005329e+00,-7.968750000000004441e+00,-2.296875000000001776e+00,6.781250000000005329e+00,1.553125000000001066e+01,1.873437500000001421e+01,1.828125000000001421e+01,1.106250000000000711e+01,4.703125000000003553e+00,3.078125000000001776e+00,2.046875000000000444e+00,3.531250000000001776e+00,5.343750000000003553e+00,2.062500000000000888e+00,-3.468750000000001776e+00,-1.015625000000000711e+01,-2.215625000000001421e+01,-3.198437500000002132e+01,-3.929687500000002132e+01,-4.056250000000002132e+01,-3.109375000000001776e+01,-1.625000000000001066e+01,2.359375000000001776e+00,1.629687500000001066e+01,2.320312500000001421e+01,2.167187500000001421e+01,1.332812500000000888e+01,1.234375000000000444e+00,-1.384375000000000888e+01,-2.328125000000001421e+01,-2.739062500000001776e+01,-2.096875000000001421e+01,-2.859375000000001776e+00,1.534375000000000711e+01,3.018750000000001421e+01,3.525000000000002132e+01,2.709375000000001421e+01,1.321875000000000711e+01,1.000000000000000888e+00,-7.984375000000007105e+00,-1.081250000000000711e+01,-6.046875000000003553e+00,-2.281250000000001776e+00,2.265625000000001776e+00,7.750000000000008882e+00,5.750000000000010658e+00,3.375000000000014211e+00,5.312500000000155431e-01,-2.843749999999994227e+00,7.031250000000008882e-01,6.156249999999996447e+00,1.281249999999999289e+01,1.693750000000000000e+01,1.792187500000000000e+01,1.668750000000000000e+01,1.162499999999999822e+01,6.624999999999991118e+00,-1.203125000000007994e+00,-6.718750000000005329e+00,-1.037500000000000000e+01,-1.278124999999999112e+01,-1.331249999999999112e+01,-1.892187499999999289e+01,-2.235937499999999645e+01,-2.212500000000000711e+01,-1.492187500000001066e+01,4.312499999999994671e+00,2.576562500000000000e+01,4.546875000000001421e+01,5.393750000000002132e+01,4.748437500000001421e+01,3.210937500000000711e+01,9.515625000000003553e+00,-5.328124999999996447e+00,-1.349999999999999467e+01,-1.539062500000000000e+01,-1.045312500000000000e+01,-1.110937500000000533e+01,-8.750000000000007105e+00,-7.359375000000004441e+00,-6.359375000000003553e+00,-9.375000000000004441e-01,-3.390625000000002665e+00,-6.109375000000005329e+00,-1.271875000000000888e+01,-2.207812500000001421e+01,-2.187500000000001421e+01,-2.334375000000001421e+01,-1.793750000000001421e+01,-1.090625000000000711e+01,-1.070312500000000711e+01,-6.812500000000003553e+00,-7.375000000000003553e+00,-4.484375000000001776e+00,1.859375000000001776e+00,8.718750000000005329e+00,1.537500000000001066e+01,1.382812500000000711e+01,1.154687500000000533e+01,1.859375000000000000e+00,-5.890625000000003553e+00,-6.687500000000003553e+00,-1.004687500000000711e+01,-4.640625000000002665e+00,-3.765625000000001776e+00,-6.375000000000003553e+00,-7.500000000000003553e+00,-1.415625000000000711e+01,-1.396875000000000711e+01,-1.282812500000000355e+01,-7.874999999999995559e+00,7.031250000000136557e-01,6.437500000000010658e+00,1.431250000000000711e+01,1.817187500000000355e+01,1.971874999999999645e+01,1.914062500000000000e+01,1.482812500000000355e+01,1.040625000000000355e+01,5.828125000000003553e+00,2.718750000000002220e+00,1.250000000000000888e+00,5.312500000000003331e-01,4.218750000000003331e-01,3.437500000000002220e-01,1.406250000000000833e-01,1.093750000000000694e-01,3.125000000000002776e-02,-3.125000000000002082e-02,7.812500000000005551e-02,6.250000000000004163e-02,1.250000000000000833e-01,1.718750000000001110e-01,1.406250000000001110e-01,1.406250000000001110e-01,6.250000000000005551e-02,-6.250000000000002776e-02,-1.718750000000001110e-01,-2.500000000000001665e-01,-2.500000000000001665e-01,-1.406250000000001110e-01,-3.125000000000002082e-02,6.250000000000004163e-02,1.562500000000001110e-01,1.875000000000001388e-01,2.187500000000001665e-01,2.500000000000001665e-01,2.187500000000001665e-01,7.812500000000006939e-02,-6.250000000000002776e-02,-2.031250000000001110e-01,-3.281250000000002220e-01,-2.343750000000001665e-01,-1.093750000000000833e-01,4.687500000000001388e-02,2.500000000000001665e-01,3.750000000000002220e-01,5.000000000000003331e-01,1.156250000000000888e+00,2.484375000000001776e+00,4.734375000000003553e+00,8.140625000000005329e+00,1.154687500000000355e+01,1.582812500000000355e+01,1.917187500000000000e+01,2.006249999999999645e+01,1.857812500000000355e+01,1.093750000000000711e+01,4.687500000000071054e-01,-8.328124999999992895e+00,-1.412500000000000000e+01,-1.412500000000000178e+01,-8.546875000000001776e+00,-4.031250000000003553e+00,-2.968750000000001776e+00,6.875000000000000000e-01,3.281249999999995559e-01,3.124999999999995559e-01,6.468750000000004441e+00,3.531250000000003109e+00,2.703125000000003109e+00,3.796875000000003553e+00,-2.375000000000001776e+00,5.156249999999995559e-01,1.171874999999999556e+00,-2.250000000000001776e+00,-1.671875000000001332e+00,-5.765625000000002665e+00,-8.218750000000003553e+00,-6.078125000000003553e+00,-2.265625000000000888e+00,1.328125000000000444e+00,6.968750000000005329e+00,9.375000000000007105e+00,6.562500000000004441e+00,5.921875000000003553e+00,-1.125000000000002665e+00,-7.500000000000005329e+00,-1.051562500000000711e+01,-1.578125000000001066e+01,-1.281250000000000711e+01,-7.640625000000005329e+00,-2.343750000000001776e+00,6.343750000000003553e+00,7.093750000000003553e+00,5.796875000000003553e+00,4.734375000000003553e+00,-1.249999999999996669e-01,2.312500000000001776e+00,2.953125000000002665e+00,2.375000000000001776e+00,1.765625000000000888e+00,-3.984375000000002665e+00,-4.531250000000003553e+00,-6.468750000000003553e+00,-2.500000000000001332e+00,1.718750000000000444e+00,4.687499999999944489e-02,3.468750000000001776e+00,-1.140625000000001332e+00,-1.281250000000000444e+00,1.453125000000001332e+00,-2.046875000000001332e+00,-9.531250000000006661e-01,-5.812500000000003553e+00,-8.468750000000005329e+00,-7.531250000000005329e+00,-6.656250000000004441e+00,-1.640625000000001110e+00,-1.156250000000000666e+00,-5.625000000000002220e-01,-1.156250000000000888e+00,-3.000000000000001776e+00,-1.718750000000001332e+00,-1.625000000000001332e+00,-1.015625000000000666e+00,-4.218750000000002776e-01,-7.500000000000004441e-01,-5.312500000000003331e-01,-3.750000000000002220e-01,-2.187500000000001110e-01,-3.125000000000002776e-02,6.250000000000005551e-02,9.375000000000008327e-02,1.250000000000000833e-01,1.093750000000000833e-01,6.250000000000004163e-02,3.125000000000002082e-02,0.000000000000000000e+00,-1.562500000000001041e-02,-6.250000000000005551e-02,-9.375000000000008327e-02,-1.250000000000000833e-01,-6.250000000000004163e-02,4.687500000000004163e-02,9.375000000000005551e-02,1.406250000000000833e-01,4.687500000000001388e-02,-6.250000000000005551e-02,-9.375000000000006939e-02,-1.250000000000000833e-01,-7.812500000000005551e-02,-3.125000000000002082e-02,3.125000000000002776e-02,9.375000000000008327e-02,1.406250000000001110e-01,1.875000000000001665e-01,9.375000000000008327e-02,-1.562500000000000347e-02,-1.250000000000000833e-01,-2.343750000000001665e-01,-1.875000000000001110e-01,-7.812500000000004163e-02,3.125000000000004163e-02,1.406250000000001110e-01,1.718750000000001388e-01,3.125000000000002776e-02,-9.687500000000006661e-01,-2.796875000000001776e+00,-5.406250000000003553e+00,-8.203125000000005329e+00,-7.953125000000005329e+00,-5.625000000000003553e+00,-7.187500000000000000e-01,5.031250000000003553e+00,5.578125000000003553e+00,4.765625000000002665e+00,-1.171875000000001332e+00,-8.765625000000005329e+00,-1.045312500000000711e+01,-1.378125000000000888e+01,-9.796875000000007105e+00,-3.156250000000002665e+00,-1.171875000000001110e+00,4.703125000000002665e+00,5.593750000000003553e+00,5.765625000000003553e+00,7.640625000000005329e+00,7.140625000000004441e+00,7.031250000000004441e+00,2.484375000000001776e+00,-5.156250000000007772e-01,-2.546875000000001776e+00,-5.281250000000003553e+00,-7.187499999999995559e-01,9.375000000000009992e-01,-1.312500000000000888e+00,-2.187500000000005274e-01,-3.562500000000003109e+00,-4.296875000000003553e+00,1.093749999999998890e-01,3.328125000000002220e+00,5.062500000000003553e+00,4.265625000000002665e+00,2.953125000000002220e+00,-2.171875000000000888e+00,-2.281250000000000888e+00,1.500000000000000888e+00,1.453125000000000666e+00,5.312500000000003553e+00,5.515625000000003553e+00,-2.812500000000000000e-01,-2.046875000000000888e+00,-3.109375000000001776e+00,-4.359375000000002665e+00,3.125000000000000000e-01,2.000000000000001332e+00,2.031250000000001332e+00,4.328125000000003553e+00,2.984375000000002665e+00,2.437500000000001776e+00,-8.281250000000002220e-01,-4.203125000000002665e+00,-7.171875000000004441e+00,-6.828125000000003553e+00,-7.031249999999997780e-01,1.421875000000001776e+00,7.031250000000006217e+00,7.484375000000006217e+00,1.937500000000001332e+00,9.375000000000022204e-02,-7.390625000000005329e+00,-1.142187500000000711e+01,-9.062500000000005329e+00,-6.296875000000005329e+00,1.828125000000000444e+00,9.718750000000005329e+00,1.132812500000000711e+01,1.212500000000000711e+01,9.765625000000007105e+00,3.390625000000002665e+00,1.156250000000000666e+00,-1.687500000000001110e+00,-5.718750000000004441e+00,-2.828125000000002665e+00,-1.031250000000001110e+00,-7.656250000000007772e-01,4.171875000000002665e+00,1.593750000000001110e+00,-5.000000000000004441e-01,8.125000000000005551e-01,-2.921875000000001332e+00,1.234375000000000888e+00,2.484375000000001776e+00,1.406250000000000666e+00,3.968750000000002665e+00,-1.750000000000001554e+00,-4.656250000000003553e+00,-7.265625000000005329e+00,-1.148437500000000711e+01,-7.500000000000003553e+00,-1.609375000000000888e+00,5.015625000000003553e+00,1.289062500000000711e+01,1.373437500000000888e+01,8.671875000000005329e+00,4.984375000000003553e+00,-1.468750000000001110e+00,-4.968750000000003553e+00,-3.328125000000002665e+00,-5.078125000000003553e+00,-5.843750000000003553e+00,-4.953125000000003553e+00,-4.328125000000002665e+00,-3.578125000000002665e+00,8.437500000000000000e-01,4.015625000000001776e+00,3.109375000000001776e+00,6.796875000000003553e+00,6.187500000000003553e+00,4.093750000000002665e+00,4.781250000000003553e+00,2.328125000000001332e+00,1.062500000000000666e+00,6.249999999999983347e-02,-3.125000000000027756e-02,-3.500000000000002665e+00,-7.062500000000005329e+00,-9.343750000000007105e+00,-1.153125000000000888e+01,-7.109375000000004441e+00,-2.156250000000001776e+00,5.015625000000002665e+00,9.015625000000005329e+00,9.078125000000005329e+00,9.984375000000005329e+00,3.968750000000002220e+00,8.593750000000005551e-01,-1.453125000000000666e+00,-5.015625000000003553e+00,-6.406250000000004441e-01,2.328125000000001332e+00,6.406250000000003553e+00,9.625000000000005329e+00,6.218750000000003553e+00,2.500000000000001332e+00,-5.718750000000003553e+00,-1.253125000000000711e+01,-1.404687500000000888e+01,-1.181250000000000711e+01,-1.796875000000001332e+00,7.421875000000003553e+00,1.407812500000000711e+01,1.587500000000001066e+01,9.390625000000005329e+00,3.156250000000001332e+00,-5.703125000000004441e+00,-1.442187500000001066e+01,-1.696875000000001066e+01,-1.664062500000001066e+01,-1.034375000000000711e+01,2.234375000000003109e+00,1.165625000000001066e+01,1.585937500000001243e+01,1.685937500000001421e+01,9.593750000000007105e+00,2.859375000000001776e+00,-1.984375000000001776e+00,-8.812500000000005329e+00,-1.110937500000000711e+01,-1.018750000000000711e+01,-6.906250000000004441e+00,7.968750000000008882e-01,8.984375000000005329e+00,1.034375000000000533e+01,1.040625000000000711e+01,4.953125000000003553e+00,-3.140625000000001776e+00,-5.500000000000003553e+00,-9.578125000000007105e+00,-6.906250000000005329e+00,-2.421875000000001776e+00,5.625000000000000000e-01,3.500000000000001776e+00,2.499999999999997780e-01,-2.625000000000002220e+00,-7.218750000000005329e+00,-7.109375000000005329e+00,-2.421875000000001776e+00,1.687500000000000222e+00,9.093750000000005329e+00,1.176562500000000711e+01,9.484375000000005329e+00,5.203125000000002665e+00,-1.656250000000001110e+00,-8.937500000000005329e+00,-9.078125000000005329e+00,-5.937500000000003553e+00,-2.156250000000001776e+00,6.796875000000003553e+00,6.890625000000003553e+00,5.421875000000003553e+00,4.937500000000002665e+00,-3.187500000000002665e+00,-2.265625000000001776e+00,-3.390625000000002665e+00,-7.265625000000005329e+00,-1.796875000000001332e+00,-3.828125000000003109e+00,-6.562500000000008882e-01,5.515625000000004441e+00,1.328125000000001332e+00,2.281250000000002220e+00,-1.296875000000000444e+00,-6.640625000000003553e+00,-1.734375000000001110e+00,-7.812500000000044409e-02,3.265625000000001776e+00,7.984375000000005329e+00,4.312500000000002665e+00,2.718750000000001776e+00,9.062500000000004441e-01,-1.484375000000000888e+00,-4.062500000000003331e-01,-1.078125000000000888e+00,-1.281250000000000888e+00,-2.859375000000002220e+00,-2.515625000000001776e+00,7.812500000000002220e-01,2.031250000000000888e+00,4.593750000000003553e+00,4.062500000000002665e+00,-2.140625000000001332e+00,-4.906250000000003553e+00,-6.656250000000003553e+00,-7.359375000000004441e+00,-1.093750000000000888e+00,1.593750000000000888e+00,1.843750000000000888e+00,2.828125000000001776e+00,-3.124999999999998890e-01,-1.796875000000000888e+00,-6.875000000000002220e-01,2.031250000000002776e-01,8.437500000000006661e-01,3.296875000000002220e+00,4.359375000000002665e+00,2.765625000000001776e+00,2.546875000000001776e+00,8.906250000000003331e-01,-2.609375000000001776e+00,-1.906250000000001110e+00,-2.656250000000003886e-01,-2.031250000000001776e+00,1.656250000000000888e+00,1.796875000000001110e+00,-7.031250000000005551e-01,1.812500000000001332e+00,-2.812500000000001776e+00,-3.453125000000001776e+00,-1.984375000000001110e+00,-8.437500000000002220e-01,4.781250000000002665e+00,5.031250000000003553e+00,3.281250000000001776e+00,-3.125000000000002220e+00,-8.625000000000005329e+00,-8.703125000000005329e+00,-5.156250000000002665e+00,2.453125000000002220e+00,8.109375000000005329e+00,9.890625000000007105e+00,6.312500000000005329e+00,2.640625000000001776e+00,-4.187500000000001776e+00,-8.140625000000003553e+00,-5.843750000000003553e+00,-5.875000000000003553e+00,2.093750000000001332e+00,5.375000000000002665e+00,2.609375000000001776e+00,3.609375000000002220e+00,-4.218750000000002665e+00,-5.375000000000003553e+00,-2.156250000000001776e+00,-3.609375000000002665e+00,2.203125000000001332e+00,3.406250000000002220e+00,3.968750000000002665e+00,6.593750000000004441e+00,4.593750000000003553e+00,4.171875000000002665e+00,-4.531250000000004441e-01,-3.390625000000002665e+00,-3.718750000000002665e+00,-7.250000000000005329e+00,-5.000000000000003553e+00,-3.078125000000002220e+00,-3.500000000000002665e+00,3.312500000000001776e+00,7.500000000000005329e+00,7.953125000000005329e+00,1.014062500000000711e+01,5.187500000000003553e+00,-5.625000000000003331e-01,-3.750000000000002665e+00,-6.296875000000004441e+00,-7.015625000000005329e+00,-6.859375000000004441e+00,-3.750000000000002665e+00,-4.609375000000003553e+00,-2.406250000000001776e+00,1.328125000000000888e+00,-3.750000000000002220e-01,3.546875000000002665e+00,5.406250000000003553e+00,3.078125000000001776e+00,3.687500000000002665e+00,2.031250000000001332e+00,-1.578125000000000888e+00,1.265625000000000444e+00,4.234375000000001776e+00,2.609375000000000888e+00,2.765625000000001332e+00,-5.062500000000004441e+00,-1.229687500000000711e+01,-1.056250000000000711e+01,-6.687500000000005329e+00,5.187500000000003553e+00,1.426562500000001066e+01,1.492187500000001066e+01,1.017187500000000711e+01,3.124999999999955591e-02,-8.640625000000007105e+00,-1.231250000000000888e+01,-8.468750000000005329e+00,-3.796875000000002220e+00,1.546875000000001332e+00,6.890625000000005329e+00,4.656250000000003553e+00,3.687500000000002220e+00,3.171875000000002220e+00,-2.828125000000002220e+00,-3.500000000000002665e+00,-4.062500000000002665e+00,-6.437500000000004441e+00,-5.625000000000004441e-01,1.125000000000000444e+00,2.968750000000000000e-01,1.265625000000000888e+00,-4.796875000000003553e+00,-6.140625000000004441e+00,-1.437500000000000888e+00,5.156250000000001110e-01,6.875000000000005329e+00,8.765625000000007105e+00,1.234375000000001110e+00,-1.765625000000000444e+00,-5.843750000000002665e+00,-7.109375000000003553e+00,1.484375000000000888e+00,4.062500000000002665e+00,2.843750000000001776e+00,2.296875000000001332e+00,-5.359375000000003553e+00,-6.140625000000003553e+00,-3.125000000000003886e-01,8.906250000000004441e-01,6.906250000000005329e+00,6.593750000000005329e+00,2.781250000000001776e+00,4.015625000000003553e+00,-2.343750000000000000e-01,5.781250000000000000e-01,-1.125000000000001332e+00,-3.812500000000003109e+00,-1.968750000000001554e+00,-4.781250000000003553e+00,-1.125000000000000888e+00,-1.218750000000000888e+00,-1.906250000000001332e+00,2.671875000000001776e+00,1.874999999999997780e-01,2.515625000000001332e+00,4.281250000000002665e+00,2.343749999999998335e-01,1.375000000000000888e+00,-2.812500000000000000e-01,-1.484375000000000888e+00,2.015625000000001332e+00,2.281250000000001776e+00,3.640625000000002220e+00,1.640625000000000888e+00,-3.531250000000002665e+00,-6.640625000000004441e+00,-9.734375000000007105e+00,-8.500000000000005329e+00,-3.765625000000001776e+00,7.968750000000009992e-01,6.515625000000004441e+00,1.167187500000000711e+01,1.473437500000001066e+01,1.493750000000001066e+01,7.921875000000004441e+00,-2.078125000000002665e+00,-1.604687500000001066e+01,-2.375000000000001421e+01,-1.912500000000001066e+01,-1.225000000000000711e+01,3.593750000000002665e+00,1.107812500000000711e+01,7.109375000000003553e+00,4.593750000000002665e+00,-6.218750000000005329e+00,-9.484375000000007105e+00,-2.468750000000001332e+00,1.500000000000001332e+00,8.906250000000007105e+00,1.350000000000001066e+01,7.609375000000006217e+00,5.687500000000003553e+00,9.531250000000007105e+00,1.006250000000000711e+01,1.746875000000001066e+01,1.814062500000001421e+01,5.640625000000002665e+00,-5.000000000000009992e-01,-8.015625000000005329e+00,-7.078125000000004441e+00,4.062500000000003553e+00,1.106250000000000888e+01,2.081250000000001421e+01,2.059375000000001421e+01,1.689062500000001066e+01,1.053125000000000533e+01,-7.750000000000005329e+00,-1.721875000000001066e+01,-2.971875000000001421e+01,-3.712500000000002132e+01,-3.037500000000002132e+01,-2.840625000000001776e+01,-1.814062500000001066e+01,-9.515625000000007105e+00,-5.671875000000003553e+00,9.843750000000005551e-01,3.343750000000001776e+00,8.718750000000007105e+00,1.354687500000001066e+01,1.956250000000001421e+01,2.364062500000001421e+01,2.009375000000001066e+01,1.139062500000000711e+01,-3.484375000000002220e+00,-1.625000000000000711e+01,-1.971875000000001421e+01,-8.578125000000005329e+00,9.734375000000005329e+00,2.660937500000001421e+01,3.289062500000002132e+01,1.871875000000001066e+01,-6.859375000000006217e+00,-3.645312500000002842e+01,-5.695312500000004263e+01,-5.675000000000004263e+01,-3.678125000000002842e+01,-5.156250000000017764e-01,3.707812500000002132e+01,5.995312500000003553e+01,6.360937500000004263e+01,4.656250000000002842e+01,1.590625000000001066e+01,-1.129687500000000711e+01,-3.045312500000001776e+01,-3.801562500000002132e+01,-2.967187500000001421e+01,-1.764062500000001066e+01,-7.968750000000006217e+00,1.921875000000001554e+00,2.015625000000001776e+00,7.812500000000006661e-01,9.453125000000007105e+00,1.210937500000000711e+01,1.759375000000001066e+01,2.084375000000001421e+01,7.171875000000004441e+00,-1.546875000000001332e+00,-9.437500000000005329e+00,-1.660937500000001066e+01,-1.192187500000000711e+01,-9.921875000000007105e+00,-8.812500000000005329e+00,-6.250000000000003553e+00,-6.656250000000004441e+00,-2.359375000000001776e+00,2.390625000000001332e+00,6.171875000000003553e+00,8.921875000000005329e+00,3.703125000000002220e+00,-5.109375000000003553e+00,-1.546875000000001066e+01,-2.264062500000001421e+01,-2.128125000000001066e+01,-8.578125000000003553e+00,1.007812500000000711e+01,2.193750000000001421e+01,2.453125000000001776e+01,1.129687500000000533e+01,-9.640625000000008882e+00,-2.014062500000001421e+01,-1.782812500000001421e+01,-1.218750000000002665e+00,2.221875000000001421e+01,3.765625000000002132e+01,3.948437500000002842e+01,2.850000000000002132e+01,7.875000000000005329e+00,-1.512500000000001066e+01,-3.079687500000002132e+01,-3.665625000000002132e+01,-2.864062500000001776e+01,-8.718750000000007105e+00,8.343750000000005329e+00,1.889062500000001421e+01,1.612500000000001066e+01,1.718750000000008882e-01,-8.578125000000005329e+00,-8.484375000000005329e+00,-7.656250000000000000e-01,1.439062500000001066e+01,1.817187500000001421e+01,1.078125000000000711e+01,1.421875000000001332e+00,-9.562500000000007105e+00,-1.293750000000000888e+01,-9.218750000000007105e+00,-5.515625000000003553e+00,-1.890625000000001332e+00,-1.718750000000001110e-01,-2.031250000000001665e-01,-9.375000000000008327e-02,-4.687500000000004163e-02,1.562500000000000000e-02,1.093750000000000833e-01,6.250000000000005551e-02,9.375000000000006939e-02,7.812500000000005551e-02,3.125000000000002082e-02,0.000000000000000000e+00,-4.687500000000002776e-02,-7.812500000000005551e-02,-1.406250000000000833e-01,-1.250000000000000833e-01,-1.250000000000000833e-01,-3.125000000000000694e-02,1.093750000000000833e-01,1.875000000000001110e-01,2.500000000000001665e-01,1.562500000000001110e-01,4.687500000000004163e-02,-1.156250000000000666e+00,-4.125000000000001776e+00,-7.906250000000003553e+00,-1.529687500000000711e+01,-2.146875000000001421e+01,-2.198437500000001421e+01,-2.139062500000001421e+01,-9.000000000000007105e+00,6.671875000000003553e+00,1.331250000000000711e+01,2.093750000000001421e+01,1.393750000000001243e+01,5.937500000000018874e-01,-4.687499999999987788e-01,-3.250000000000001332e+00,1.406250000000000888e+00,9.265625000000005329e+00,2.578125000000001332e+00,-2.515625000000002220e+00,-6.796875000000005329e+00,-1.150000000000000711e+01,-5.062500000000003553e+00,-2.046875000000001776e+00,-7.968750000000006661e-01,-1.562500000000002220e-01,-1.750000000000000888e+00,1.562499999999994449e-02,-1.218750000000000666e+00,1.265625000000000222e+00,-3.750000000000004441e-01,-1.031250000000000000e+00,4.343750000000002665e+00,5.625000000000003553e+00,8.890625000000005329e+00,7.593750000000003553e+00,1.859375000000001332e+00,-4.828125000000003553e+00,-7.453125000000005329e+00,-6.734375000000004441e+00,-3.156250000000002220e+00,6.578125000000003553e+00,1.021875000000000533e+01,1.528125000000000711e+01,1.645312500000000711e+01
1.043750000000000533e+01,-5.687500000000002665e+00,-1.193750000000000533e+01,6.562500000000003553e+00,1.125000000000000533e+01,-9.125000000000003553e+00,-7.125000000000001776e+00,3.875000000000001776e+00,-7.750000000000002665e+00,-8.875000000000003553e+00,1.681250000000000711e+01,2.056250000000000711e+01,-5.687500000000001776e+00,-1.218750000000000533e+01,-4.687500000000002665e+00,-8.437500000000003553e+00,-4.625000000000001776e+00,8.125000000000003553e+00,1.168750000000000533e+01,1.937500000000000888e+00,-7.687500000000003553e+00,1.250000000000000888e+00,7.062500000000003553e+00,-5.187500000000003553e+00,-5.437500000000003553e+00,5.625000000000001776e+00,9.750000000000003553e+00,5.250000000000002665e+00,-1.193750000000000711e+01,-1.806250000000001066e+01,3.062500000000001776e+00,1.706250000000000711e+01,7.500000000000000000e-01,-1.800000000000000711e+01,-5.562500000000003553e+00,1.550000000000000711e+01,1.137500000000000533e+01,-3.437500000000001332e+00,-4.812500000000001776e+00,3.625000000000001776e+00,4.437500000000001776e+00,-4.687500000000002665e+00,-7.062500000000003553e+00,7.062500000000002665e+00,9.437500000000003553e+00,-8.937500000000003553e+00,-1.200000000000000533e+01,-4.812500000000001776e+00,2.750000000000001776e+00,1.818750000000001066e+01,7.437500000000004441e+00,-2.362500000000001066e+01,-1.612500000000000711e+01,1.881250000000000711e+01,2.181250000000000711e+01,-4.187500000000001776e+00,-1.087500000000000355e+01,1.687500000000000888e+00,1.187500000000000888e+00,-3.625000000000001332e+00,2.500000000000000000e-01,6.250000000000001110e-01,-3.125000000000000000e-01,-4.500000000000001776e+00,-7.437500000000003553e+00,8.562500000000003553e+00,1.100000000000000533e+01,-4.312500000000002665e+00,-9.375000000000008882e-01,-2.375000000000000888e+00,-5.625000000000002665e+00,6.187500000000003553e+00,-3.750000000000000000e-01,-1.106250000000000533e+01,-1.500000000000000000e+00,3.437500000000001776e+00,1.500000000000000444e+00,3.562500000000001332e+00,-1.500000000000000888e+00,-4.000000000000001776e+00,9.437500000000005329e+00,1.118750000000000711e+01,-3.375000000000001776e+00,-4.562500000000002665e+00,-6.437500000000002665e+00,-1.681250000000000711e+01,-3.312500000000000888e+00,1.737500000000000711e+01,1.087500000000000533e+01,-3.125000000000005551e-01,2.437500000000000888e+00,5.125000000000001776e+00,-4.312500000000002665e+00,-2.187500000000001066e+01,-1.593750000000000711e+01,1.037500000000000355e+01,1.031250000000000355e+01,-7.562500000000003553e+00,6.625000000000003553e+00,3.787500000000002132e+01,1.481250000000001066e+01,-3.668750000000001421e+01,-3.062500000000001421e+01,1.062500000000000000e+00,7.562500000000003553e+00,1.506250000000000888e+01,1.331250000000000711e+01,-1.450000000000000711e+01,-1.743750000000000711e+01,1.318750000000000711e+01,1.131250000000000533e+01,-1.387500000000000711e+01,1.068750000000000178e+01,2.900000000000001066e+01,-1.850000000000001066e+01,-3.537500000000001421e+01,-1.562500000000000000e+00,1.231250000000000533e+01,7.687500000000002665e+00,1.250000000000000222e+00,1.250000000000002220e-01,-8.750000000000004441e-01,-5.250000000000002665e+00,2.312500000000001332e+00,4.750000000000002665e+00,-1.937500000000001332e+00,1.500000000000000888e+00,5.000000000000008882e-01,-9.375000000000003553e+00,-1.043750000000000533e+01,-2.062500000000000888e+00,1.031250000000000355e+01,2.187500000000001066e+01,1.212500000000000711e+01,-1.200000000000000355e+01,-7.000000000000000888e+00,9.312500000000005329e+00,-2.437500000000000888e+00,-6.437500000000003553e+00,1.175000000000000355e+01,8.312500000000003553e+00,-8.312500000000003553e+00,-5.750000000000002665e+00,8.750000000000006661e-01,-2.187500000000001332e+00,-1.206250000000000533e+01,-2.418750000000001066e+01,-2.412500000000001066e+01,-3.375000000000000000e+00,1.650000000000000711e+01,1.087500000000000533e+01,1.750000000000000444e+00,1.068750000000000355e+01,1.200000000000000533e+01,-5.125000000000001776e+00,-7.562500000000003553e+00,2.937500000000001332e+00,-1.193750000000000533e+01,-2.968750000000001421e+01,-1.200000000000000711e+01,1.781250000000000711e+01,2.831250000000001421e+01,1.637500000000000711e+01,2.625000000000001332e+00,4.812500000000001776e+00,3.125000000000000000e-01,-1.806250000000000711e+01,-9.875000000000005329e+00,1.293750000000000533e+01,2.812500000000000000e+00,-1.093750000000000533e+01,8.750000000000008882e-01,9.375000000000003553e+00,9.687500000000003553e+00,3.500000000000001776e+00,-1.437500000000000000e+01,-1.643749999999999645e+01,6.562500000000000888e+00,2.031249999999999289e+01,8.999999999999998224e+00,-3.187500000000001776e+00,-2.937500000000001332e+00,4.374999999999994671e+00,1.362499999999999112e+01,8.500000000000003553e+00,-1.268749999999999112e+01,-2.131250000000000000e+01,-1.750000000000000000e+00,1.512500000000000711e+01,4.687500000000001776e+00,-1.250000000000000533e+01,-2.225000000000000000e+01,-1.724999999999999289e+01,4.875000000000001776e+00,1.537499999999999289e+01,8.499999999999996447e+00,1.718750000000000000e+01,3.831250000000000000e+01,2.356250000000000711e+01,-1.962499999999999289e+01,-2.587500000000000355e+01,-3.125000000000017764e-01,6.437500000000001776e+00,-4.687500000000001776e+00,-3.250000000000001332e+00,6.812500000000001776e+00,-7.250000000000001776e+00,-2.006250000000000711e+01,4.187500000000001776e+00,2.343750000000000711e+01,3.875000000000000000e+00,-2.137500000000001066e+01,-1.212500000000000711e+01,4.750000000000001776e+00,-8.687500000000003553e+00,-1.531250000000000711e+01,-5.000000000000000000e-01,7.312500000000003553e+00,5.375000000000002665e+00,-6.750000000000002665e+00,-1.525000000000000711e+01,-3.187500000000001776e+00,1.218750000000000533e+01,9.812500000000003553e+00,3.812500000000001332e+00,7.000000000000003553e+00,2.125000000000001776e+00,-5.875000000000002665e+00,-9.562500000000005329e+00,-8.375000000000003553e+00,5.500000000000002665e+00,7.375000000000003553e+00,-3.687500000000001776e+00,-2.937500000000001776e+00,-6.875000000000001110e-01,-8.187500000000003553e+00,-1.306250000000000533e+01,-7.500000000000008882e-01,9.000000000000003553e+00,6.250000000000062172e-01,-2.499999999999987566e+00,6.187500000000002665e+00,1.174999999999999289e+01,8.437499999999996447e+00,2.312500000000000888e+00,6.250000000000001388e-02,1.250000000000000278e-01,3.125000000000001110e-01,4.375000000000002220e-01,6.250000000000005551e-02,-1.875000000000000833e-01,6.250000000000002776e-02,3.125000000000001665e-01,1.875000000000001110e-01,-3.125000000000001665e-01,-3.125000000000001665e-01,2.500000000000001110e-01,2.500000000000001110e-01,-6.250000000000002776e-02,-6.250000000000002776e-02,0.000000000000000000e+00,6.250000000000002776e-02,1.875000000000000833e-01,1.250000000000000555e-01,-1.875000000000001110e-01,-3.125000000000001665e-01,-6.250000000000002776e-02,6.250000000000002776e-02,-6.250000000000002776e-02,6.250000000000002776e-02,1.875000000000000833e-01,-6.250000000000002776e-02,-6.250000000000002776e-02,1.875000000000000833e-01,6.250000000000002776e-02,6.250000000000005551e-02,3.125000000000002220e-01,-1.875000000000001110e-01,-6.875000000000004441e-01,0.000000000000000000e+00,4.375000000000002220e-01,-1.250000000000000555e-01,-2.500000000000001110e-01,2.500000000000001110e-01,3.750000000000001665e-01,1.250000000000000555e-01,-6.250000000000002776e-02,1.387778780781445676e-17,5.625000000000002220e-01,3.000000000000000888e+00,6.812500000000002665e+00,6.187499999999995559e+00,1.812499999999986677e+00,3.312500000000001776e+00,1.300000000000002132e+01,1.431250000000001421e+01,-1.043750000000000355e+01,-3.056250000000001421e+01,-6.562500000000003553e+00,1.881250000000000711e+01,1.750000000000000000e+00,-8.937500000000003553e+00,4.625000000000001776e+00,-3.375000000000001776e+00,-8.437500000000003553e+00,1.056250000000000355e+01,8.312500000000003553e+00,-3.750000000000000888e+00,-1.625000000000000444e+00,-6.250000000000088818e-02,-1.250000000000009159e-01,-5.312500000000001776e+00,6.250000000000008882e-01,1.656250000000000711e+01,-1.500000000000001776e+00,-2.568750000000001066e+01,-4.625000000000001776e+00,1.800000000000000711e+01,2.062500000000000000e+00,-1.168750000000000711e+01,5.624999999999991118e-01,1.587500000000000533e+01,1.068750000000000355e+01,-1.181250000000000533e+01,-1.225000000000000533e+01,7.000000000000003553e+00,4.250000000000001776e+00,-1.343750000000000711e+01,-1.681250000000000711e+01,1.062500000000000000e+00,1.693750000000000711e+01,8.937500000000003553e+00,-2.187500000000000444e+00,-4.750000000000001776e+00,-4.500000000000002665e+00,2.937500000000000888e+00,3.375000000000001776e+00,-1.125000000000000222e+00,4.812500000000002665e+00,6.187500000000002665e+00,-7.500000000000003553e+00,-1.550000000000000711e+01,-8.124999999999991118e-01,1.050000000000000533e+01,7.500000000000003553e+00,1.500000000000000888e+00,-9.937500000000003553e+00,-6.312500000000002665e+00,5.687500000000002665e+00,3.625000000000001776e+00,3.125000000000001332e+00,1.750000000000000666e+00,-8.562500000000003553e+00,-1.318750000000000711e+01,-1.125000000000000888e+00,1.081250000000000533e+01,3.812500000000002665e+00,-4.875000000000001776e+00,-4.000000000000001776e+00,-9.375000000000002220e-01,1.562500000000000666e+00,6.875000000000002220e-01,-1.000000000000000444e+00,-4.375000000000002220e-01,-6.250000000000002776e-02,-2.500000000000001110e-01,-6.250000000000002776e-02,1.250000000000000555e-01,6.250000000000002776e-02,-6.250000000000002776e-02,-1.250000000000000555e-01,6.250000000000002776e-02,3.125000000000001665e-01,1.250000000000000833e-01,-3.125000000000001110e-01,-2.500000000000001110e-01,2.500000000000001110e-01,3.125000000000001110e-01,-1.250000000000000833e-01,-3.125000000000001665e-01,-1.250000000000000555e-01,0.000000000000000000e+00,1.875000000000001110e-01,3.750000000000002220e-01,0.000000000000000000e+00,-3.750000000000002220e-01,-1.250000000000000833e-01,1.250000000000000555e-01,6.250000000000002776e-02,0.000000000000000000e+00,-6.250000000000002776e-02,-1.250000000000000555e-01,6.250000000000002776e-02,2.500000000000001110e-01,1.250000000000000555e-01,0.000000000000000000e+00,-1.250000000000000555e-01,-2.500000000000001110e-01,-6.250000000000002776e-02,6.250000000000002776e-02,-6.250000000000002776e-02,6.250000000000002776e-02,2.500000000000001110e-01,6.250000000000002776e-02,-1.250000000000000555e-01,-6.250000000000002776e-02,0.000000000000000000e+00,-3.125000000000001110e-01,-4.062500000000001776e+00,-9.875000000000005329e+00,-5.125000000000002665e+00,8.750000000000003553e+00,1.318750000000000533e+01,3.062500000000000888e+00,-8.625000000000003553e+00,-4.812500000000002665e+00,2.250000000000001332e+00,-5.187500000000001776e+00,-9.562500000000005329e+00,-6.437500000000003553e+00,4.250000000000001776e+00,1.793750000000000711e+01,8.125000000000000000e-01,-2.018750000000000711e+01,2.562500000000003553e+00,2.287500000000001066e+01,-1.875000000000017764e-01,-1.262500000000000711e+01,8.437500000000003553e+00,4.625000000000001776e+00,-1.556250000000000711e+01,-4.125000000000000888e+00,7.750000000000003553e+00,6.187500000000001776e+00,7.687500000000003553e+00,-8.750000000000003553e+00,-1.968750000000000711e+01,4.500000000000000000e+00,1.631250000000000711e+01,-3.750000000000000000e-01,-2.812500000000001776e+00,3.750000000000001776e+00,-2.250000000000000888e+00,-1.750000000000000888e+00,-2.625000000000001776e+00,-6.687500000000003553e+00,1.025000000000000711e+01,1.350000000000000711e+01,-7.437500000000003553e+00,-4.812500000000001776e+00,2.250000000000001776e+00,-1.118750000000000355e+01,-3.875000000000001776e+00,1.812500000000000711e+01,9.062500000000005329e+00,-1.706250000000000711e+01,-1.331250000000000711e+01,1.706250000000000711e+01,2.025000000000000711e+01,-9.875000000000005329e+00,-2.156250000000001066e+01,-3.000000000000000888e+00,5.625000000000002665e+00,3.250000000000000888e+00,1.050000000000000355e+01,1.250000000000000000e-01,-1.256250000000000711e+01,7.562500000000004441e+00,1.443750000000000711e+01,-1.106250000000000711e+01,-2.225000000000001066e+01,-4.500000000000000888e+00,1.256250000000000711e+01,8.312500000000003553e+00,1.812500000000000888e+00,5.250000000000002665e+00,-7.500000000000000000e-01,-2.937500000000000888e+00,9.437500000000003553e+00,0.000000000000000000e+00,-1.400000000000000711e+01,1.875000000000000000e+00,5.187500000000002665e+00,-7.750000000000002665e+00,3.375000000000001776e+00,1.137500000000000533e+01,-2.187500000000000888e+00,-9.562500000000003553e+00,-1.562500000000000444e+00,5.500000000000002665e+00,-1.312500000000000444e+00,8.750000000000000000e-01,8.312500000000003553e+00,-4.687500000000001776e+00,-7.000000000000002665e+00,6.687500000000003553e+00,8.125000000000000000e-01,-1.462500000000000711e+01,-1.181250000000000355e+01,7.187500000000003553e+00,1.612500000000000711e+01,6.937500000000003553e+00,3.687500000000001332e+00,1.000000000000000444e+00,-1.350000000000000355e+01,-4.812500000000000888e+00,1.387500000000000711e+01,-1.750000000000000000e+00,-1.125000000000000355e+01,5.062500000000002665e+00,-1.250000000000000000e+00,-1.181250000000000533e+01,7.125000000000003553e+00,8.875000000000003553e+00,-7.187500000000002665e+00,2.562500000000001776e+00,5.625000000000001776e+00,-5.250000000000003553e+00,5.812500000000001776e+00,9.125000000000003553e+00,-1.062500000000000355e+01,-7.750000000000001776e+00,1.143750000000000533e+01,4.000000000000001776e+00,-6.625000000000002665e+00,-5.000000000000002220e-01,-5.562500000000002665e+00,-1.412500000000000711e+01,-1.375000000000001776e+00,1.387500000000000533e+01,7.812500000000003553e+00,-1.187500000000000444e+00,-2.750000000000001332e+00,-1.437500000000000444e+00,1.125000000000000355e+01,7.812500000000001776e+00,-1.843750000000000711e+01,-1.587500000000000711e+01,1.287500000000000711e+01,1.775000000000001066e+01,-3.187500000000000888e+00,-8.125000000000003553e+00,7.312500000000002665e+00,7.312500000000003553e+00,-4.687500000000001776e+00,-1.075000000000000533e+01,-1.525000000000000711e+01,-9.000000000000003553e+00,1.293750000000000711e+01,2.318750000000001421e+01,3.937500000000002665e+00,-1.025000000000000533e+01,2.000000000000000000e+00,4.937500000000001776e+00,-4.625000000000001776e+00,-4.437500000000001776e+00,-9.562500000000003553e+00,-1.687500000000000711e+01,-3.625000000000000888e+00,1.675000000000001066e+01,2.181250000000001066e+01,5.687500000000001776e+00,-1.368750000000000533e+01,-4.687500000000001776e+00,1.137500000000000533e+01,1.937500000000001776e+00,-8.625000000000003553e+00,-7.687500000000003553e+00,-8.750000000000003553e+00,-3.062500000000000444e+00,1.050000000000000533e+01,1.456250000000000711e+01,6.000000000000002665e+00,-7.875000000000003553e+00,-7.437500000000003553e+00,5.437500000000002665e+00,2.125000000000001332e+00,-9.875000000000005329e+00,-1.093750000000000533e+01,1.812500000000001776e+00,1.643750000000000711e+01,1.050000000000000355e+01,-1.087500000000000355e+01,-1.656250000000000711e+01,5.000000000000000000e-01,6.875000000000003553e+00,-2.062500000000000888e+00,-8.125000000000004441e-01,3.875000000000001776e+00,8.062500000000003553e+00,1.250000000000000711e+01,-1.937500000000000000e+00,-1.843750000000000711e+01,-6.312500000000003553e+00,6.125000000000002665e+00,-1.187500000000000888e+00,-3.500000000000001776e+00,6.000000000000003553e+00,1.475000000000000711e+01,1.687500000000000000e+00,-1.687500000000000711e+01,-4.125000000000000888e+00,8.562500000000003553e+00,3.312500000000001332e+00,-1.250000000000000444e+00,-1.031250000000000355e+01,-7.187500000000002665e+00,7.125000000000002665e+00,1.168750000000000355e+01,8.937500000000003553e+00,-9.812500000000005329e+00,-1.850000000000001066e+01,4.437500000000000888e+00,1.131250000000000355e+01,-3.625000000000001332e+00,-3.687500000000001332e+00,8.500000000000003553e+00,1.162500000000000533e+01,-7.125000000000001776e+00,-1.918750000000000711e+01,4.812500000000003553e+00,2.131250000000001066e+01,-3.250000000000001776e+00,-1.887500000000000711e+01,2.500000000000000000e+00,8.437500000000003553e+00,-7.750000000000003553e+00,2.000000000000000000e+00,1.412500000000000533e+01,-1.312500000000000888e+00,-8.625000000000003553e+00,-3.250000000000000888e+00,-5.500000000000001776e+00,-4.125000000000001776e+00,5.375000000000002665e+00,1.262500000000000711e+01,2.437500000000001776e+00,-1.581250000000000533e+01,-5.000000000000000888e+00,1.462500000000000711e+01,6.875000000000000000e-01,-1.125000000000000533e+01,4.937500000000001776e+00,5.125000000000001776e+00,-5.500000000000003553e+00,7.687500000000003553e+00,7.812500000000004441e+00,-1.368750000000000711e+01,-7.625000000000003553e+00,9.562500000000003553e+00,4.250000000000000888e+00,-2.437500000000000888e+00,-4.625000000000001776e+00,-1.625000000000000888e+00,7.562500000000003553e+00,3.187500000000001776e+00,-4.687500000000001776e+00,-5.625000000000001776e+00,-5.125000000000001776e+00,1.062500000000000444e+00,9.187500000000005329e+00,1.043750000000000533e+01,1.812500000000000888e+00,-9.687500000000003553e+00,-1.706250000000000711e+01,-9.375000000000003553e+00,1.325000000000000711e+01,1.831250000000001066e+01,-1.875000000000000888e+00,-9.312500000000005329e+00,4.250000000000002665e+00,7.000000000000003553e+00,-2.125000000000000888e+00,-1.075000000000000533e+01,-1.218750000000000533e+01,3.187500000000001776e+00,1.381250000000000711e+01,9.687500000000005329e+00,-1.375000000000000444e+00,-1.350000000000000533e+01,-5.000000000000001776e+00,4.312500000000001776e+00,-3.750000000000001110e-01,4.937500000000002665e+00,1.687500000000000888e+00,-9.937500000000003553e+00,2.437500000000001776e+00,1.518750000000000711e+01,2.500000000000000000e-01,-9.312500000000003553e+00,4.375000000000002665e+00,-6.875000000000000000e-01,-1.375000000000000711e+01,6.000000000000003553e+00,1.175000000000000711e+01,-1.268750000000000711e+01,-1.125000000000000711e+01,6.812500000000001776e+00,1.281250000000000355e+01,1.156250000000000355e+01,-3.750000000000001776e+00,-1.237500000000000533e+01,3.187500000000001776e+00,6.125000000000003553e+00,-9.500000000000003553e+00,-5.562500000000002665e+00,6.062500000000002665e+00,-1.750000000000000000e+00,-4.312500000000001776e+00,8.125000000000003331e-01,6.875000000000003331e-01,4.937500000000001776e+00,-1.250000000000000000e+00,-6.750000000000002665e+00,1.056250000000000533e+01,1.006250000000000355e+01,-1.156250000000000711e+01,-8.000000000000003553e+00,1.937500000000000888e+00,1.812500000000000666e+00,1.431250000000000711e+01,1.231250000000000711e+01,-1.625000000000000711e+01,-2.775000000000001066e+01,-6.000000000000000888e+00,1.762500000000000711e+01,1.312500000000000355e+01,2.687500000000001332e+00,7.437500000000003553e+00,2.937500000000000888e+00,-1.118750000000000533e+01,-1.093750000000000533e+01,-5.687500000000001776e+00,-2.125000000000000444e+00,1.243750000000000533e+01,1.043750000000000533e+01,-1.218750000000000533e+01,-3.375000000000001776e+00,1.425000000000000711e+01,-2.125000000000000000e+00,-9.312500000000003553e+00,3.875000000000001776e+00,7.500000000000000000e-01,-1.100000000000000355e+01,-5.937500000000001776e+00,1.637500000000000711e+01,1.650000000000000711e+01,-1.512500000000000711e+01,-1.956250000000000711e+01,3.562500000000002220e+00,7.312500000000003553e+00,2.812500000000001332e+00,3.500000000000001776e+00,5.750000000000002665e+00,5.937500000000002665e+00,-1.150000000000000711e+01,-1.937500000000001066e+01,1.625000000000000000e+00,1.350000000000000711e+01,1.331250000000000711e+01,6.562500000000002665e+00,-1.681250000000000711e+01,-1.943750000000000711e+01,3.750000000000001776e+00,1.293750000000000711e+01,9.562500000000003553e+00,5.625000000000000000e-01,-8.062500000000003553e+00,-5.125000000000001776e+00,4.312500000000001776e+00,1.118750000000000533e+01,2.500000000000000000e-01,-1.312500000000000711e+01,-5.125000000000002665e+00,7.625000000000003553e+00,5.312500000000002665e+00,-6.625000000000003553e+00,-3.687500000000002220e+00,2.937500000000001776e+00,-1.375000000000000444e+00,5.750000000000002665e+00,3.875000000000001776e+00,-1.106250000000000533e+01,2.937500000000001776e+00,1.468750000000000711e+01,-8.687500000000005329e+00,-1.737500000000000711e+01,8.500000000000005329e+00,1.875000000000001066e+01,-3.437500000000000888e+00,-1.037500000000000355e+01,3.687500000000000888e+00,-1.625000000000001776e+00,-1.287500000000000711e+01,-3.000000000000001776e+00,8.062500000000003553e+00,5.562500000000001776e+00,-3.125000000000000000e-01,-2.437500000000000888e+00,3.875000000000001332e+00,1.606250000000000711e+01,1.368750000000000533e+01,-9.937500000000003553e+00,-2.506250000000001421e+01,-2.075000000000001066e+01,-5.375000000000001776e+00,1.662500000000000711e+01,1.825000000000000711e+01,5.187500000000001776e+00,-3.187500000000001776e+00,-1.318750000000000533e+01,-5.875000000000001776e+00,4.312500000000001776e+00,-6.625000000000003553e+00,-3.750000000000000000e-01,1.831250000000000711e+01,1.331250000000000711e+01,-8.125000000000000000e-01,-1.943750000000000711e+01,-2.025000000000000711e+01,2.550000000000001421e+01,4.200000000000002132e+01,-1.250000000000017764e-01,-2.131250000000001066e+01,-1.818750000000000711e+01,-1.237500000000000355e+01,1.350000000000000711e+01,2.762500000000001066e+01,-1.937500000000001776e+00,-2.131250000000000711e+01,1.587500000000000355e+01,3.456250000000001421e+01,-4.437500000000001776e+00,-2.612500000000001421e+01,-1.568750000000000711e+01,-3.125000000000001332e+00,-3.187500000000001332e+00,-1.656250000000000711e+01,-1.012500000000000355e+01,6.437500000000003553e+00,5.312500000000002665e+00,-1.375000000000000888e+00,-4.625000000000001776e+00,-1.812500000000000222e+00,7.625000000000004441e+00,1.025000000000000533e+01,-5.000000000000004441e-01,3.812500000000001776e+00,2.362500000000001066e+01,1.012500000000000533e+01,-2.281250000000000711e+01,-2.218750000000001066e+01,-1.056250000000000355e+01,-1.143750000000000355e+01,2.012500000000001066e+01,5.568750000000002842e+01,1.618750000000000711e+01,-3.656250000000001421e+01,-1.400000000000000178e+01,1.162500000000000711e+01,-3.618750000000002132e+01,-6.587500000000002842e+01,-1.937500000000000000e+00,5.650000000000002842e+01,3.768750000000001421e+01,1.218750000000000355e+01,1.756250000000000711e+01,1.243750000000000711e+01,-1.262500000000000533e+01,-2.856250000000001421e+01,-1.743750000000000711e+01,-2.000000000000001332e+00,-7.625000000000003553e+00,-4.375000000000001776e+00,1.600000000000000711e+01,1.262500000000000711e+01,-6.437500000000002665e+00,-1.956250000000000711e+01,-1.462500000000000533e+01,3.006250000000001421e+01,4.387500000000002132e+01,-1.118750000000000178e+01,-2.956250000000001066e+01,3.750000000000008882e-01,3.312500000000001776e+00,-6.375000000000003553e+00,-2.937500000000001776e+00,1.875000000000001110e-01,-1.875000000000001110e-01,-5.000000000000002220e-01,-5.000000000000001776e+00,-9.250000000000003553e+00,4.562500000000001776e+00,1.900000000000000711e+01,6.000000000000001776e+00,-9.125000000000003553e+00,-6.500000000000002665e+00,-4.312500000000002665e+00,-8.437500000000003553e+00,-1.518750000000000711e+01,-1.768750000000000711e+01,1.356250000000000711e+01,5.625000000000002842e+01,2.893750000000001066e+01,-3.831250000000001421e+01,-4.431250000000001421e+01,-6.937500000000002665e+00,9.750000000000003553e+00,1.175000000000000533e+01,1.700000000000000711e+01,2.031250000000000711e+01,1.693750000000000711e+01,3.187500000000003553e+00,-1.381250000000000711e+01,-1.675000000000000711e+01,-1.012500000000000533e+01,-1.362500000000000533e+01,-2.187500000000000711e+01,-1.250000000000001776e+00,3.993750000000001421e+01,3.600000000000001421e+01,-9.062500000000003553e+00,-3.187500000000001421e+01,-3.018750000000001421e+01,-5.375000000000003553e+00,3.793750000000001421e+01,3.568750000000001421e+01,-8.250000000000003553e+00,-2.206250000000001066e+01,-7.250000000000003553e+00,1.875000000000000833e-01,6.250000000000002776e-02,-6.250000000000002776e-02,6.250000000000002776e-02,-6.250000000000002776e-02,-2.500000000000001110e-01,-1.250000000000000555e-01,6.250000000000002776e-02,2.500000000000001110e-01,1.250000000000000833e-01,-3.125000000000001110e-01,-1.250000000000000555e-01,3.750000000000001665e-01,1.875000000000000833e-01,-2.500000000000001110e-01,-1.875000000000001110e-01,6.250000000000002776e-02,1.250000000000000555e-01,6.250000000000002776e-02,-1.875000000000001110e-01,-3.125000000000001665e-01,0.000000000000000000e+00,3.750000000000001665e-01,3.125000000000001110e-01,-6.250000000000002776e-02,-1.875000000000000833e-01,-6.250000000000002776e-02,6.250000000000002776e-02,6.250000000000002776e-02,-1.875000000000001110e-01,-4.625000000000001776e+00,-1.568750000000000533e+01,-1.318750000000000533e+01,2.624999999999999556e+00,-5.562500000000002665e+00,-3.625000000000000000e+00,3.425000000000001421e+01,2.568750000000001421e+01,-1.956250000000000711e+01,-2.256250000000001066e+01,-8.062500000000003553e+00,3.750000000000002665e+00,2.056250000000001066e+01,1.937500000000000711e+01,-2.875000000000001776e+00,-2.981250000000001066e+01,-2.300000000000000711e+01,2.087500000000001066e+01,2.500000000000001066e+01,-1.306250000000000711e+01,-1.706250000000000711e+01,6.625000000000003553e+00,4.937500000000001776e+00,-5.000000000000002665e+00,5.000000000000002665e+00,4.625000000000003553e+00,-6.312500000000001776e+00,-6.812500000000003553e+00,-2.375000000000001332e+00,1.137500000000000355e+01,1.831250000000000711e+01,-7.500000000000000000e-01,-1.625000000000000711e+01,-7.062500000000003553e+00,1.312500000000000222e+00,1.500000000000000666e+00,2.062500000000000888e+00,-1.812500000000000888e+00,3.625000000000001776e+00,1.462500000000000711e+01
-1.375000000000000355e+01,1.525000000000000355e+01,-1.800000000000000355e+01,-8.500000000000001776e+00,4.700000000000001421e+01,-5.400000000000001421e+01,3.100000000000000711e+01,-1.600000000000000355e+01,1.850000000000000355e+01,-3.250000000000000711e+01,2.100000000000000355e+01,1.750000000000000355e+01,-1.725000000000000355e+01,-5.250000000000000888e+00,1.075000000000000178e+01,-8.750000000000001776e+00,-1.000000000000000355e+01,2.100000000000000711e+01,-1.825000000000000355e+01,2.825000000000000711e+01,-3.075000000000000711e+01,1.325000000000000355e+01,6.000000000000001776e+00,-3.750000000000001332e+00,-1.500000000000000355e+01,2.450000000000000711e+01,-2.075000000000000711e+01,2.225000000000000711e+01,-8.500000000000003553e+00,-2.000000000000000355e+01,1.500000000000000355e+01,-5.000000000000001110e-01,1.275000000000000355e+01,-1.975000000000000711e+01,-7.500000000000001776e+00,2.600000000000000711e+01,-1.500000000000000355e+01,1.575000000000000355e+01,-2.400000000000000711e+01,2.175000000000000711e+01,-1.025000000000000178e+01,5.250000000000000888e+00,-4.750000000000000888e+00,-1.200000000000000355e+01,3.750000000000001421e+01,-3.600000000000000711e+01,9.500000000000001776e+00,4.250000000000000888e+00,-1.550000000000000355e+01,1.525000000000000355e+01,1.650000000000000355e+01,-2.700000000000000711e+01,-6.750000000000001776e+00,1.325000000000000355e+01,1.450000000000000355e+01,-8.250000000000003553e+00,-1.300000000000000355e+01,1.350000000000000355e+01,-1.000000000000000000e+00,-1.000000000000000178e+01,9.750000000000001776e+00,-3.000000000000000444e+00,-4.500000000000001776e+00,9.500000000000003553e+00,-1.000000000000000355e+01,-1.400000000000000355e+01,5.275000000000001421e+01,-6.225000000000001421e+01,4.250000000000001421e+01,-1.075000000000000355e+01,-1.950000000000000355e+01,2.525000000000000711e+01,-6.000000000000000888e+00,-1.400000000000000355e+01,9.000000000000001776e+00,2.500000000000000444e+00,-8.000000000000001776e+00,8.750000000000001776e+00,0.000000000000000000e+00,-8.750000000000001776e+00,2.000000000000000888e+00,1.975000000000000355e+01,-1.825000000000000355e+01,0.000000000000000000e+00,1.500000000000000355e+01,-2.500000000000000711e+01,2.500000000000001776e+00,1.275000000000000178e+01,5.750000000000001776e+00,-1.500000000000000355e+01,1.550000000000000355e+01,-9.000000000000001776e+00,7.000000000000001776e+00,-5.000000000000000000e-01,-3.675000000000000711e+01,4.350000000000001421e+01,-2.225000000000000711e+01,1.700000000000000355e+01,-3.050000000000000711e+01,3.525000000000000711e+01,2.275000000000000355e+01,-4.600000000000000711e+01,-3.750000000000001776e+00,1.800000000000000355e+01,-1.075000000000000355e+01,2.500000000000000000e-01,2.550000000000000711e+01,-1.825000000000000355e+01,-1.700000000000000355e+01,1.725000000000000355e+01,1.075000000000000178e+01,-7.500000000000000888e+00,-4.125000000000000711e+01,9.425000000000002842e+01,-6.750000000000001421e+01,-7.000000000000001776e+00,2.325000000000000355e+01,-1.675000000000000355e+01,1.675000000000000355e+01,-3.250000000000000444e+00,-1.300000000000000178e+01,2.625000000000000711e+01,-3.025000000000000711e+01,1.525000000000000355e+01,7.500000000000001776e+00,-1.750000000000000355e+01,1.325000000000000355e+01,-1.000000000000000000e+00,-7.000000000000001776e+00,5.000000000000000000e-01,-6.750000000000000888e+00,1.125000000000000178e+01,-7.750000000000001776e+00,3.125000000000000711e+01,-2.925000000000000711e+01,-2.250000000000000888e+00,1.925000000000000711e+01,-5.750000000000001776e+00,-1.700000000000000355e+01,1.800000000000000355e+01,8.000000000000001776e+00,-1.925000000000000355e+01,7.250000000000001776e+00,3.250000000000000888e+00,-1.050000000000000355e+01,1.625000000000000355e+01,-3.100000000000000711e+01,1.700000000000000355e+01,-3.325000000000000711e+01,4.225000000000000711e+01,-2.000000000000000711e+01,8.500000000000003553e+00,-6.250000000000000888e+00,1.875000000000000355e+01,-8.750000000000001776e+00,-1.300000000000000355e+01,1.525000000000000355e+01,3.000000000000000444e+00,-3.100000000000000711e+01,1.025000000000000355e+01,-1.000000000000000000e+00,1.550000000000000355e+01,5.250000000000000888e+00,-7.000000000000001776e+00,1.000000000000000444e+00,1.200000000000000178e+01,-1.200000000000000178e+01,-1.975000000000000355e+01,2.975000000000000711e+01,-4.000000000000000888e+00,-1.975000000000000355e+01,1.500000000000000355e+01,1.000000000000000222e+00,-7.500000000000001776e+00,2.125000000000000711e+01,-2.025000000000000711e+01,-3.500000000000000000e+00,5.000000000000142109e-01,1.299999999999998934e+01,5.499999999999986677e+00,-1.724999999999997513e+01,1.949999999999997513e+01,-2.224999999999997513e+01,2.374999999999997868e+01,-4.749999999999987566e+00,5.000000000000000000e-01,-1.225000000000000355e+01,-9.500000000000003553e+00,2.900000000000000711e+01,-1.750000000000000355e+01,6.750000000000001776e+00,-9.750000000000001776e+00,-1.050000000000000355e+01,2.000000000000014211e+00,1.824999999999997513e+01,-1.374999999999997513e+01,9.499999999999987566e+00,3.499999999999986677e+00,3.450000000000002132e+01,-3.000000000000000711e+01,-1.625000000000000355e+01,2.500000000000000711e+01,-2.050000000000000355e+01,2.575000000000000355e+01,-3.800000000000000711e+01,3.575000000000000711e+01,-1.050000000000000178e+01,-1.900000000000000355e+01,5.000000000000000888e+00,2.000000000000000355e+01,-6.750000000000001776e+00,-2.500000000000000000e-01,-2.800000000000000711e+01,3.500000000000000711e+01,-1.275000000000000355e+01,-2.775000000000000711e+01,4.075000000000001421e+01,-4.175000000000001421e+01,4.425000000000001421e+01,-3.250000000000000711e+01,1.225000000000000355e+01,-1.625000000000000355e+01,1.625000000000000355e+01,3.250000000000000888e+00,-9.000000000000001776e+00,7.000000000000001776e+00,1.200000000000000355e+01,-2.925000000000000711e+01,3.450000000000000711e+01,-4.100000000000000711e+01,2.375000000000000355e+01,8.750000000000001776e+00,-2.600000000000000711e+01,2.700000000000000711e+01,-2.550000000000000711e+01,2.350000000000000711e+01,-2.575000000000000711e+01,4.250000000000000000e+00,1.675000000000000355e+01,-1.600000000000000355e+01,8.250000000000003553e+00,-5.749999999999986677e+00,1.074999999999998757e+01,-7.500000000000002220e-01,2.500000000000000555e-01,0.000000000000000000e+00,0.000000000000000000e+00,0.000000000000000000e+00,2.500000000000000555e-01,2.500000000000000555e-01,-7.500000000000002220e-01,7.500000000000002220e-01,-5.000000000000001110e-01,5.000000000000001110e-01,0.000000000000000000e+00,-1.000000000000000222e+00,1.250000000000000444e+00,-7.500000000000002220e-01,5.000000000000001110e-01,-5.000000000000001110e-01,5.000000000000001110e-01,-5.000000000000001110e-01,5.000000000000001110e-01,-2.500000000000000555e-01,2.500000000000000555e-01,-5.000000000000001110e-01,2.500000000000000555e-01,0.000000000000000000e+00,0.000000000000000000e+00,-2.500000000000000555e-01,5.000000000000001110e-01,-2.500000000000000555e-01,-2.500000000000000555e-01,5.000000000000001110e-01,-2.500000000000000555e-01,0.000000000000000000e+00,0.000000000000000000e+00,7.500000000000002220e-01,-1.500000000000000444e+00,7.500000000000002220e-01,2.500000000000000555e-01,-2.500000000000000555e-01,-2.500000000000000555e-01,2.500000000000000555e-01,2.500000000000000555e-01,-2.500000000000000555e-01,2.500000000000000555e-01,-2.500000000000000555e-01,0.000000000000000000e+00,7.500000000000002220e-01,0.000000000000000000e+00,7.750000000000001776e+00,-6.750000000000015987e+00,4.500000000000015987e+00,-1.250000000000000888e+00,1.050000000000000355e+01,6.250000000000000000e+00,-3.025000000000000711e+01,1.000000000000000000e+00,1.975000000000000711e+01,3.500000000000000000e+00,-3.100000000000000711e+01,3.000000000000000711e+01,-3.500000000000001776e+00,-2.700000000000000711e+01,2.650000000000000711e+01,6.250000000000001776e+00,-3.025000000000000711e+01,3.775000000000001421e+01,-3.600000000000000711e+01,2.575000000000000711e+01,-8.000000000000001776e+00,-1.675000000000000355e+01,2.675000000000000711e+01,2.250000000000000000e+00,-2.825000000000000711e+01,3.250000000000000000e+00,1.800000000000000355e+01,7.500000000000017764e-01,-2.375000000000000711e+01,2.350000000000000711e+01,-1.925000000000000711e+01,3.250000000000000711e+01,-2.125000000000000711e+01,-1.375000000000000355e+01,2.450000000000000711e+01,-1.200000000000000355e+01,5.250000000000001776e+00,-1.625000000000000355e+01,3.250000000000000888e+00,8.250000000000001776e+00,1.150000000000000355e+01,-2.450000000000000711e+01,2.850000000000000711e+01,-3.000000000000000711e+01,1.650000000000000355e+01,6.500000000000000888e+00,-2.175000000000000355e+01,2.550000000000000711e+01,-1.850000000000000355e+01,2.075000000000000355e+01,-2.750000000000000711e+01,4.000000000000000888e+00,2.250000000000000355e+01,-2.800000000000000711e+01,3.050000000000000711e+01,-1.800000000000000355e+01,-1.550000000000000355e+01,3.625000000000000711e+01,-3.575000000000000711e+01,2.825000000000000711e+01,-1.350000000000000355e+01,3.750000000000000888e+00,-4.250000000000000888e+00,-1.400000000000000355e+01,2.725000000000000711e+01,-1.625000000000000355e+01,5.000000000000000888e+00,-2.250000000000000444e+00,-2.750000000000000444e+00,4.750000000000000888e+00,-2.250000000000000444e+00,0.000000000000000000e+00,0.000000000000000000e+00,2.500000000000000555e-01,-5.000000000000001110e-01,2.500000000000000555e-01,0.000000000000000000e+00,0.000000000000000000e+00,0.000000000000000000e+00,0.000000000000000000e+00,-2.500000000000000555e-01,5.000000000000001110e-01,-2.500000000000000555e-01,2.500000000000000555e-01,-7.500000000000002220e-01,7.500000000000002220e-01,-2.500000000000000555e-01,2.500000000000000555e-01,-5.000000000000001110e-01,2.500000000000000555e-01,0.000000000000000000e+00,-2.500000000000000555e-01,5.000000000000001110e-01,0.000000000000000000e+00,-5.000000000000001110e-01,2.500000000000000555e-01,0.000000000000000000e+00,0.000000000000000000e+00,0.000000000000000000e+00,0.000000000000000000e+00,0.000000000000000000e+00,-2.500000000000000555e-01,5.000000000000001110e-01,-2.500000000000000555e-01,0.000000000000000000e+00,2.500000000000000555e-01,-5.000000000000001110e-01,2.500000000000000555e-01,0.000000000000000000e+00,0.000000000000000000e+00,-2.500000000000000555e-01,5.000000000000001110e-01,-2.500000000000000555e-01,0.000000000000000000e+00,0.000000000000000000e+00,0.000000000000000000e+00,0.000000000000000000e+00,0.000000000000000000e+00,-1.250000000000000222e+00,-1.125000000000000355e+01,1.300000000000000355e+01,0.000000000000000000e+00,3.250000000000000888e+00,-1.000000000000000444e+00,-1.625000000000000355e+01,2.350000000000000711e+01,-1.500000000000000355e+01,-6.000000000000000888e+00,1.550000000000000355e+01,-2.775000000000000355e+01,3.125000000000000711e+01,2.500000000000000000e+00,-3.025000000000000711e+01,1.200000000000000178e+01,1.150000000000000355e+01,1.075000000000000355e+01,-3.825000000000000711e+01,2.975000000000000711e+01,5.500000000000000000e+00,-2.450000000000000711e+01,2.750000000000001776e+00,2.200000000000000355e+01,-2.850000000000000711e+01,2.650000000000000711e+01,-1.000000000000000000e+00,-3.225000000000000711e+01,2.250000000000000355e+01,2.250000000000000444e+00,4.000000000000000888e+00,-2.200000000000000355e+01,3.100000000000000711e+01,-2.150000000000000711e+01,-1.000000000000000000e+00,2.200000000000000711e+01,-3.400000000000000711e+01,1.900000000000000355e+01,1.425000000000000355e+01,-1.600000000000000355e+01,-9.500000000000003553e+00,2.825000000000000711e+01,-2.550000000000000711e+01,-4.500000000000001776e+00,2.275000000000000711e+01,-5.750000000000001776e+00,2.500000000000000444e+00,-2.575000000000000355e+01,2.000000000000000355e+01,1.700000000000000355e+01,-1.925000000000000355e+01,1.750000000000000222e+00,-1.900000000000000355e+01,3.925000000000000711e+01,-4.275000000000000711e+01,3.225000000000000711e+01,2.500000000000000000e+00,-2.975000000000000711e+01,1.825000000000000355e+01,1.300000000000000355e+01,-1.475000000000000355e+01,-4.500000000000001776e+00,-8.000000000000001776e+00,1.600000000000000355e+01,-1.250000000000000444e+00,-4.250000000000000888e+00,1.750000000000000444e+00,1.475000000000000355e+01,-3.025000000000000711e+01,2.675000000000000711e+01,2.000000000000000000e+00,-2.450000000000000711e+01,9.250000000000003553e+00,1.925000000000000355e+01,-2.900000000000000711e+01,8.750000000000003553e+00,2.175000000000000355e+01,-2.925000000000000711e+01,2.600000000000000711e+01,-3.300000000000000711e+01,3.300000000000000711e+01,-1.500000000000000355e+01,-1.000000000000000178e+01,2.575000000000000711e+01,-1.250000000000000355e+01,-1.625000000000000355e+01,2.825000000000000711e+01,-1.925000000000000355e+01,1.175000000000000355e+01,-2.500000000000000711e+01,1.975000000000000355e+01,-4.000000000000000888e+00,1.450000000000000355e+01,-2.350000000000000711e+01,3.100000000000000711e+01,-2.225000000000000355e+01,-1.350000000000000355e+01,3.300000000000000711e+01,-1.225000000000000355e+01,-1.725000000000000355e+01,1.700000000000000355e+01,6.500000000000000888e+00,-2.650000000000000711e+01,1.125000000000000355e+01,2.375000000000000355e+01,-3.450000000000000711e+01,1.250000000000000355e+01,2.200000000000000355e+01,-3.850000000000000711e+01,2.900000000000000711e+01,-6.500000000000001776e+00,7.250000000000001776e+00,-3.100000000000000711e+01,3.500000000000000711e+01,-7.500000000000001776e+00,-1.750000000000000355e+01,2.200000000000000355e+01,-1.450000000000000355e+01,1.500000000000000444e+00,-1.175000000000000355e+01,1.750000000000000355e+01,3.500000000000000888e+00,-1.800000000000000355e+01,2.400000000000000711e+01,-2.425000000000000711e+01,1.050000000000000178e+01,1.975000000000000355e+01,-2.400000000000000355e+01,-9.000000000000003553e+00,1.675000000000000355e+01,-2.500000000000000000e-01,1.200000000000000355e+01,-3.350000000000000711e+01,3.350000000000000711e+01,-1.325000000000000355e+01,3.250000000000000888e+00,-4.750000000000000888e+00,2.500000000000000555e-01,-1.525000000000000355e+01,1.425000000000000355e+01,2.250000000000000444e+00,1.800000000000000355e+01,-3.450000000000000711e+01,2.250000000000000711e+01,1.750000000000000000e+00,-1.400000000000000355e+01,9.750000000000001776e+00,-3.000000000000000444e+00,-1.000000000000000178e+01,-5.250000000000001776e+00,1.575000000000000355e+01,-3.000000000000000888e+00,1.550000000000000355e+01,-1.450000000000000355e+01,-1.600000000000000355e+01,3.725000000000000711e+01,-2.925000000000000711e+01,1.750000000000000355e+01,-1.975000000000000355e+01,1.925000000000000355e+01,-3.000000000000000711e+01,3.100000000000000711e+01,-1.350000000000000355e+01,1.075000000000000355e+01,2.250000000000000000e+00,-2.650000000000000711e+01,3.150000000000000711e+01,-1.650000000000000355e+01,2.500000000000000888e+00,-2.000000000000000444e+00,-1.200000000000000355e+01,2.275000000000000711e+01,-6.250000000000000888e+00,4.250000000000000888e+00,-1.650000000000000355e+01,-7.500000000000000000e-01,2.500000000000000711e+01,-3.175000000000000711e+01,2.400000000000000711e+01,-1.300000000000000355e+01,6.750000000000000888e+00,2.250000000000000888e+00,1.075000000000000355e+01,-2.050000000000000711e+01,-6.000000000000001776e+00,2.800000000000000711e+01,-3.000000000000000711e+01,2.100000000000000711e+01,-1.475000000000000355e+01,1.100000000000000355e+01,1.450000000000000355e+01,-2.700000000000000711e+01,-1.500000000000000000e+00,3.150000000000000711e+01,-4.000000000000000711e+01,3.825000000000000711e+01,-2.425000000000000355e+01,-9.000000000000003553e+00,2.725000000000000711e+01,-2.500000000000000711e+01,2.525000000000000711e+01,-4.250000000000001776e+00,-2.600000000000000711e+01,1.425000000000000355e+01,1.675000000000000355e+01,-2.650000000000000711e+01,1.975000000000000711e+01,-1.575000000000000355e+01,1.900000000000000355e+01,0.000000000000000000e+00,-2.425000000000000711e+01,8.250000000000003553e+00,1.675000000000000355e+01,-2.500000000000000000e-01,-2.300000000000000711e+01,5.250000000000001776e+00,2.575000000000000711e+01,-3.225000000000000711e+01,1.025000000000000355e+01,1.325000000000000355e+01,-3.250000000000000000e+00,-1.875000000000000711e+01,2.600000000000000711e+01,-2.625000000000000711e+01,1.425000000000000355e+01,-6.750000000000001776e+00,4.000000000000000888e+00,1.525000000000000355e+01,-2.175000000000000711e+01,-4.000000000000000000e+00,1.825000000000000355e+01,2.750000000000000000e+00,-2.425000000000000711e+01,1.425000000000000355e+01,1.425000000000000355e+01,-2.850000000000000711e+01,1.625000000000000355e+01,1.275000000000000355e+01,-1.800000000000000355e+01,-9.750000000000003553e+00,2.500000000000000711e+01,-1.275000000000000178e+01,-3.750000000000000888e+00,1.825000000000000355e+01,-3.425000000000000711e+01,3.675000000000000711e+01,-1.725000000000000355e+01,-2.500000000000000888e+00,1.350000000000000355e+01,-2.550000000000000711e+01,2.575000000000000711e+01,-2.200000000000000711e+01,2.625000000000000711e+01,-1.375000000000000355e+01,1.500000000000000444e+00,7.500000000000000000e-01,-2.200000000000000355e+01,2.300000000000000355e+01,-2.000000000000000444e+00,1.025000000000000355e+01,-2.575000000000000711e+01,1.900000000000000355e+01,2.250000000000000888e+00,-1.325000000000000355e+01,1.725000000000000355e+01,-2.600000000000000711e+01,8.250000000000001776e+00,1.850000000000000711e+01,-2.400000000000000711e+01,3.325000000000000711e+01,-3.250000000000000711e+01,2.500000000000000000e+00,2.200000000000000711e+01,-2.625000000000000711e+01,1.275000000000000355e+01,1.450000000000000355e+01,-3.175000000000000711e+01,2.200000000000000355e+01,-8.000000000000001776e+00,2.225000000000000355e+01,-3.650000000000000711e+01,2.350000000000000711e+01,6.750000000000001776e+00,-2.675000000000000711e+01,6.250000000000001776e+00,3.000000000000000711e+01,-3.325000000000000711e+01,1.750000000000000000e+00,1.550000000000000355e+01,-1.450000000000000355e+01,1.850000000000000355e+01,5.000000000000000000e-01,-2.425000000000000711e+01,1.950000000000000711e+01,-2.500000000000000888e+00,2.250000000000000000e+00,-2.325000000000000355e+01,3.200000000000000711e+01,-1.725000000000000355e+01,-8.000000000000001776e+00,2.375000000000000711e+01,-2.725000000000000711e+01,1.900000000000000355e+01,3.250000000000000888e+00,-2.200000000000000711e+01,1.475000000000000355e+01,1.400000000000000355e+01,-1.750000000000000355e+01,-1.075000000000000355e+01,3.100000000000000711e+01,-3.550000000000000711e+01,2.425000000000000711e+01,1.000000000000000178e+01,-1.725000000000000355e+01,-3.250000000000000888e+00,-1.275000000000000355e+01,1.850000000000000355e+01,8.750000000000001776e+00,-2.125000000000000355e+01,2.375000000000000711e+01,-1.025000000000000355e+01,4.500000000000001776e+00,-1.850000000000000355e+01,1.950000000000000355e+01,-1.850000000000000355e+01,3.750000000000000000e+00,2.800000000000000711e+01,-3.025000000000000711e+01,-1.750000000000000000e+00,2.400000000000000711e+01,-6.000000000000001776e+00,-2.575000000000000711e+01,3.625000000000000711e+01,-2.775000000000000711e+01,1.800000000000000355e+01,-2.175000000000000711e+01,9.750000000000003553e+00,2.350000000000000355e+01,-1.800000000000000355e+01,-2.025000000000000355e+01,2.475000000000000711e+01,-7.250000000000001776e+00,-6.250000000000001776e+00,1.900000000000000355e+01,-2.300000000000000355e+01,2.425000000000000711e+01,-5.750000000000001776e+00,-2.575000000000000711e+01,1.750000000000000355e+01,5.750000000000000888e+00,-1.275000000000000355e+01,2.625000000000000711e+01,-1.575000000000000355e+01,-2.300000000000000355e+01,2.700000000000000711e+01,-1.100000000000000355e+01,4.750000000000000888e+00,1.375000000000000355e+01,-2.825000000000000711e+01,2.475000000000000711e+01,-2.150000000000000355e+01,1.625000000000000355e+01,1.050000000000000355e+01,-3.350000000000000711e+01,2.850000000000000711e+01,-2.375000000000000711e+01,2.700000000000000711e+01,-1.550000000000000355e+01,-1.225000000000000355e+01,3.125000000000000711e+01,-3.125000000000000711e+01,1.375000000000000355e+01,1.425000000000000355e+01,-2.275000000000000711e+01,-2.750000000000000000e+00,3.250000000000000711e+01,-2.500000000000000355e+01,-2.500000000000000888e+00,-2.000000000000000000e+00,2.100000000000000711e+01,-3.000000000000001776e+00,-2.850000000000000711e+01,3.625000000000000711e+01,-2.450000000000000711e+01,1.225000000000000355e+01,-2.500000000000000355e+01,3.675000000000000711e+01,-3.350000000000000711e+01,3.350000000000000711e+01,-3.275000000000000711e+01,2.600000000000000711e+01,-1.775000000000000355e+01,2.800000000000000711e+01,-1.250000000000000178e+01,-1.825000000000000355e+01,1.400000000000000355e+01,-2.475000000000000355e+01,1.750000000000000355e+01,1.925000000000000355e+01,-3.050000000000000711e+01,3.425000000000000711e+01,-2.775000000000000711e+01,-4.500000000000001776e+00,2.525000000000000711e+01,-2.075000000000000711e+01,-5.500000000000001776e+00,2.350000000000000711e+01,-4.750000000000000888e+00,-6.000000000000000888e+00,1.725000000000000355e+01,-4.075000000000001421e+01,1.050000000000000355e+01,5.850000000000001421e+01,-4.925000000000000711e+01,1.275000000000000355e+01,-5.000000000000000000e-01,-2.125000000000000711e+01,1.350000000000000355e+01,1.325000000000000355e+01,5.500000000000000000e+00,-2.375000000000000355e+01,-1.225000000000000355e+01,7.100000000000001421e+01,-5.750000000000001421e+01,1.500000000000000355e+01,-4.500000000000000000e+00,-1.750000000000000355e+01,3.175000000000000711e+01,-3.150000000000000711e+01,-2.750000000000001776e+00,2.425000000000000711e+01,-2.675000000000000711e+01,2.975000000000000711e+01,-3.150000000000000711e+01,2.475000000000000711e+01,-2.075000000000000711e+01,2.350000000000000711e+01,-6.500000000000000888e+00,-1.575000000000000355e+01,2.675000000000000711e+01,5.250000000000000000e+00,-1.750000000000000355e+01,-1.225000000000000178e+01,1.500000000000000355e+01,-1.050000000000000355e+01,-2.375000000000000711e+01,6.450000000000001421e+01,-8.000000000000000000e+00,-2.675000000000000711e+01,-1.450000000000000355e+01,3.975000000000001421e+01,-1.300000000000000355e+01,-5.525000000000001421e+01,9.750000000000000000e+00,4.125000000000000711e+01,2.750000000000000000e+00,-1.625000000000000355e+01,2.450000000000000355e+01,-4.000000000000000000e+00,1.500000000000000000e+00,-1.400000000000000355e+01,-1.200000000000000178e+01,1.575000000000000355e+01,-6.250000000000001776e+00,-1.550000000000000355e+01,1.800000000000000355e+01,1.275000000000000355e+01,-2.675000000000000711e+01,2.450000000000000711e+01,-3.225000000000000711e+01,-2.000000000000000000e+00,7.175000000000001421e+01,-5.025000000000001421e+01,-1.375000000000000355e+01,2.675000000000000711e+01,-1.350000000000000355e+01,2.500000000000000555e-01,0.000000000000000000e+00,2.500000000000000555e-01,-2.500000000000000555e-01,0.000000000000000000e+00,-2.500000000000000555e-01,-2.500000000000000555e-01,-1.725000000000000355e+01,3.450000000000000711e+01,-1.500000000000000355e+01,-1.750000000000000444e+00,2.500000000000000555e-01,-1.500000000000000222e+00,5.000000000000000000e-01,-9.500000000000001776e+00,7.000000000000000888e+00,-3.225000000000000711e+01,5.375000000000001421e+01,1.425000000000000355e+01,-3.250000000000000711e+01,-2.250000000000000355e+01,2.100000000000000355e+01,-1.050000000000000355e+01,1.075000000000000355e+01,-2.500000000000000888e+00,1.350000000000000355e+01,-3.500000000000000000e+00,1.350000000000000178e+01,-1.675000000000000355e+01,-7.500000000000004441e-01,-2.250000000000000444e+00,0.000000000000000000e+00,-7.250000000000001776e+00,-1.575000000000000178e+01,2.125000000000000355e+01,3.350000000000000711e+01,-3.150000000000000711e+01,-2.500000000000000555e-01,-1.500000000000000444e+00,-2.750000000000000711e+01,3.075000000000000711e+01,2.675000000000000711e+01,-2.825000000000000711e+01,-2.500000000000000555e-01,-2.500000000000000555e-01,5.000000000000001110e-01,-2.500000000000000555e-01,0.000000000000000000e+00,0.000000000000000000e+00,2.500000000000000555e-01,-5.000000000000001110e-01,2.500000000000000555e-01,0.000000000000000000e+00,-2.500000000000000555e-01,7.500000000000002220e-01,-7.500000000000002220e-01,0.000000000000000000e+00,5.000000000000001110e-01,-2.500000000000000555e-01,2.500000000000000555e-01,-7.500000000000002220e-01,1.000000000000000222e+00,-1.000000000000000222e+00,1.000000000000000222e+00,-7.500000000000002220e-01,2.500000000000000555e-01,-2.500000000000000555e-01,2.500000000000000555e-01,2.500000000000000555e-01,-2.500000000000000555e-01,0.000000000000000000e+00,0.000000000000000000e+00,0.000000000000000000e+00,0.000000000000000000e+00,2.500000000000000555e-01,-7.500000000000002220e-01,7.500000000000002220e-01,-1.800000000000000355e+01,7.500000000000001776e+00,2.300000000000000711e+01,-5.525000000000001421e+01,4.875000000000000711e+01,2.250000000000000711e+01,-4.750000000000001421e+01,1.800000000000000355e+01,-4.000000000000000888e+00,-1.475000000000000355e+01,2.625000000000000711e+01,-3.500000000000000888e+00,1.750000000000000000e+00,1.250000000000000888e+00,-3.925000000000000711e+01,2.675000000000000711e+01,2.975000000000000711e+01,-4.025000000000000711e+01,1.475000000000000355e+01,-1.550000000000000355e+01,3.650000000000000711e+01,-4.525000000000001421e+01,2.900000000000000711e+01,5.000000000000001776e+00,-2.950000000000000711e+01,3.575000000000000711e+01,-4.025000000000001421e+01,3.225000000000000711e+01,-1.050000000000000355e+01,1.925000000000000355e+01,-2.950000000000000711e+01,9.250000000000003553e+00,8.500000000000001776e+00,-1.900000000000000355e+01,2.275000000000000711e+01,-1.425000000000000355e+01,-3.750000000000000000e+00,2.125000000000000355e+01
