5.767362500000005099e+01,7.648612500000007230e+01,9.068925000000007230e+01,1.048923750000001007e+02,1.178455000000001007e+02,1.265017500000001007e+02,1.322830000000001007e+02,1.374705000000001007e+02,1.391111250000001007e+02,1.392517500000001007e+02,1.396423750000001007e+02,1.388142500000001007e+02,1.362361250000001007e+02,1.355798750000001007e+02,1.362048750000001007e+02,1.340330000000001007e+02,1.343455000000001007e+02,1.346892500000001007e+02,1.349548750000001007e+02,1.347361250000001007e+02,1.365173750000001007e+02,1.364548750000001007e+02,1.355955000000001007e+02,1.359392500000001007e+02,1.363142500000001007e+02,1.374392500000001007e+02,1.390642500000001007e+02,1.410798750000001007e+02,1.419080000000001007e+02,1.430955000000001007e+02,1.438923750000001007e+02,1.445955000000001007e+02,1.432673750000001007e+02,1.412048750000001007e+02,1.388455000000001007e+02,1.367361250000001007e+02,1.333767500000001007e+02,1.302517500000001007e+02,1.278611250000001007e+02,1.260955000000001007e+02,1.266423750000001007e+02,1.268767500000001007e+02,1.271736250000001007e+02,1.267205000000001007e+02,1.278767500000001007e+02,1.286736250000001007e+02,1.277986250000001007e+02,1.265486250000001007e+02,1.225330000000001007e+02,1.188298750000001007e+02,1.139861250000001007e+02,1.090330000000001007e+02,1.038923750000001007e+02,9.942362500000010073e+01,9.532987500000007230e+01,8.987675000000005809e+01,8.737675000000005809e+01,8.582987500000005809e+01,8.501737500000005809e+01,8.440800000000005809e+01,8.298612500000005809e+01,8.047050000000005809e+01,7.900175000000005809e+01,7.872050000000005809e+01,7.597050000000005809e+01,7.118925000000005809e+01,6.631425000000005809e+01,6.139237500000005809e+01,5.643925000000005809e+01,5.307987500000005809e+01,4.848612500000005099e+01,4.415800000000004388e+01,4.057987500000003678e+01,3.770487500000003678e+01,3.523612500000003678e+01,3.300175000000003678e+01,3.076737500000003678e+01,2.657987500000003678e+01,2.457987500000003678e+01,2.159550000000002967e+01,1.965800000000002612e+01,1.909550000000002612e+01,1.807987500000002612e+01,1.789237500000002612e+01,1.956425000000002967e+01,2.201737500000002967e+01,2.314237500000003678e+01,2.503300000000003678e+01,2.518925000000003678e+01,2.443925000000003678e+01,2.467362500000003678e+01,2.431425000000003678e+01,2.204862500000002967e+01,2.084550000000002967e+01,1.986112500000002967e+01,1.865800000000002612e+01,1.873612500000002612e+01,1.795487500000002612e+01,1.678300000000002612e+01,1.511112500000002612e+01,1.481425000000002612e+01,1.359550000000002434e+01,1.414237500000002434e+01,1.581425000000002612e+01,1.648612500000002612e+01,1.840800000000002612e+01,1.931425000000002967e+01,2.045487500000002967e+01,2.061112500000002967e+01,2.161112500000002967e+01,1.890800000000002967e+01,1.406425000000002612e+01,1.211112500000002257e+01,1.128300000000002079e+01,1.097050000000002079e+01,1.056425000000002079e+01,1.207987500000002257e+01,1.061112500000002257e+01,1.056425000000002257e+01,1.229862500000002434e+01,1.117362500000002257e+01,8.626750000000022567e+00,6.626750000000020790e+00,5.283000000000019014e+00,1.033000000000016350e+00,4.392500000000155724e-01,1.923625000000016794e+00,3.220500000000017238e+00,5.564250000000019014e+00,8.111125000000020790e+00,1.061112500000002079e+01,1.293925000000002257e+01,1.636112500000002612e+01,1.950175000000002612e+01,2.184550000000002967e+01,2.451737500000003322e+01,2.861112500000003678e+01,3.212675000000003678e+01,3.550175000000003678e+01,3.939237500000003678e+01,4.318925000000004388e+01,4.506425000000004388e+01,4.529862500000004388e+01,4.350175000000004388e+01,3.734550000000003678e+01,3.070487500000003678e+01,2.251737500000002967e+01,1.129862500000002257e+01,-9.357499999999849827e-01,-1.393574999999999164e+01,-2.721699999999999875e+01,-3.981075000000001296e+01,-4.718575000000001296e+01,-5.181075000000002717e+01,-5.217012500000002717e+01,-4.673262500000001296e+01,-3.609200000000000585e+01,-1.962324999999999520e+01,1.033000000000016350e+00,2.604862500000002967e+01,4.998612500000004388e+01,7.370487500000005809e+01,9.704862500000007230e+01,1.200798750000001007e+02,1.427986250000001007e+02,1.655642500000001291e+02,1.892517500000001576e+02,2.124861250000001860e+02,2.378142500000001860e+02,2.647673750000001860e+02,2.910017500000001860e+02,3.161580000000001860e+02,3.382830000000001860e+02,3.564392500000002428e+02,3.721267500000002428e+02,3.858455000000003565e+02,3.972048750000003565e+02,4.075955000000003565e+02,4.175173750000003565e+02,4.256267500000003565e+02,4.345798750000003565e+02,4.455330000000003565e+02,4.560330000000003565e+02,4.655955000000003565e+02,4.748767500000003565e+02,4.816267500000003565e+02,4.883923750000003565e+02,4.949392500000003565e+02,4.990330000000003565e+02,4.987205000000003565e+02,4.956736250000003565e+02,4.919080000000003565e+02,4.854080000000003565e+02,4.781580000000003565e+02,4.676111250000003565e+02,4.560642500000003565e+02,4.460955000000003565e+02,4.401892500000003565e+02,4.373455000000003565e+02,4.358923750000003565e+02,4.382673750000003565e+02,4.432830000000003565e+02,4.498298750000003565e+02,4.559705000000003565e+02,4.597673750000003565e+02,4.579392500000003565e+02,4.515330000000003565e+02,4.388611250000003565e+02,4.199861250000003565e+02,3.942673750000003565e+02,3.656111250000002997e+02,3.359705000000002428e+02,3.056111250000001860e+02,2.765486250000001860e+02,2.475173750000001860e+02,2.213455000000001860e+02,1.972673750000001860e+02,1.765798750000001291e+02,1.579080000000001007e+02,1.411111250000001007e+02,1.251423750000001007e+02,1.125017500000001007e+02,1.033611250000001007e+02,9.828300000000010073e+01,9.593925000000008652e+01,9.815800000000008652e+01,1.048142500000001007e+02,1.132986250000001007e+02,1.263455000000001007e+02,1.397830000000001007e+02,1.546423750000001007e+02,1.697361250000001291e+02,1.850017500000001860e+02,1.987205000000001860e+02,2.105173750000001860e+02,2.216111250000001860e+02,2.311736250000001860e+02,2.401736250000001860e+02,2.499080000000001860e+02,2.585798750000001860e+02,2.695486250000001860e+02,2.817986250000001860e+02,2.952205000000001860e+02,3.115955000000001860e+02,3.295017500000001860e+02,3.508142500000002428e+02,3.727986250000002428e+02,3.975330000000003565e+02,4.217048750000003565e+02,4.450955000000003565e+02,4.680955000000003565e+02,4.885486250000003565e+02,5.069392500000003565e+02,5.213298750000003565e+02,5.327673750000003565e+02,5.406892500000003565e+02,5.462048750000003565e+02,5.501267500000003565e+02,5.522205000000003565e+02,5.533142500000003565e+02,5.536736250000003565e+02,5.540017500000003565e+02,5.542048750000003565e+02,5.543611250000003565e+02,5.544392500000003565e+02,5.545017500000003565e+02,5.545798750000003565e+02,5.545955000000003565e+02,5.545955000000003565e+02,5.545486250000003565e+02,5.545173750000003565e+02,5.544548750000003565e+02,5.544080000000003565e+02,5.543455000000003565e+02,5.542673750000003565e+02,5.542205000000003565e+02,5.542205000000003565e+02,5.542361250000003565e+02,5.542517500000003565e+02,5.542830000000003565e+02,5.543142500000003565e+02,5.542830000000003565e+02,5.542517500000003565e+02,5.542205000000003565e+02,5.541267500000003565e+02,5.540173750000003565e+02,5.539080000000003565e+02,5.537986250000003565e+02,5.536736250000003565e+02,5.536423750000003565e+02,5.535798750000003565e+02,5.534861250000003565e+02,5.534080000000003565e+02,5.532830000000003565e+02,5.530330000000003565e+02,5.521267500000003565e+02,5.504861250000003565e+02,5.476736250000003565e+02,5.434548750000003565e+02,5.368611250000003565e+02,5.265173750000003565e+02,5.130486250000003565e+02,4.970330000000003565e+02,4.787673750000003565e+02,4.574705000000003565e+02,4.348767500000003565e+02,4.106736250000003565e+02,3.860955000000003565e+02,3.648455000000002428e+02,3.451423750000001860e+02,3.249392500000001860e+02,3.060642500000001860e+02,2.888455000000001860e+02,2.717048750000001860e+02,2.552830000000001860e+02,2.396267500000001860e+02,2.220642500000001860e+02,2.034548750000001860e+02,1.852361250000001860e+02,1.655955000000001291e+02,1.470173750000001007e+02,1.282986250000001007e+02,1.095330000000001007e+02,9.151737500000007230e+01,7.317362500000007230e+01,5.631425000000005809e+01,4.061112500000004388e+01,2.542362500000002967e+01,9.017375000000022567e+00,-7.373249999999988979e+00,-2.327949999999999875e+01,-4.102950000000001296e+01,-5.795137500000002717e+01,-7.565450000000004138e+01,-9.234200000000004138e+01,-1.078263750000000698e+02,-1.223107500000000698e+02,-1.358420000000000698e+02,-1.481388750000000698e+02,-1.578107500000000698e+02,-1.673732500000000698e+02,-1.763732500000000982e+02,-1.869513750000001266e+02,-1.973263750000001551e+02,-2.092170000000001551e+02,-2.205920000000001551e+02,-2.326701250000001551e+02,-2.463420000000001551e+02,-2.589201250000001551e+02,-2.725451250000001551e+02,-2.855607500000001551e+02,-2.983732500000001551e+02,-3.095295000000001551e+02,-3.205607500000001551e+02,-3.323888750000001551e+02,-3.433107500000001551e+02,-3.557638750000001551e+02,-3.667482500000001551e+02,-3.762326250000002119e+02,-3.866701250000003256e+02,-3.962638750000003256e+02,-4.062795000000003256e+02,-4.145607500000003256e+02,-4.218732500000003256e+02,-4.270607500000003256e+02,-4.312638750000003256e+02,-4.362482500000003256e+02,-4.394045000000003256e+02,-4.424357500000003256e+02,-4.441545000000003256e+02,-4.454357500000003256e+02,-4.466545000000003256e+02,-4.478263750000003256e+02,-4.489826250000003256e+02,-4.492795000000003256e+02,-4.495607500000003256e+02,-4.496545000000003256e+02,-4.497482500000003256e+02,-4.498732500000003256e+02,-4.498420000000003256e+02,-4.498107500000003256e+02,-4.497795000000003256e+02,-4.497638750000003256e+02,-4.497795000000003256e+02,-4.498107500000003256e+02,-4.498420000000003256e+02,-4.498263750000003256e+02,-4.498420000000003256e+02,-4.498732500000003256e+02,-4.499045000000003256e+02,-4.499045000000003256e+02,-4.498888750000003256e+02,-4.498732500000003256e+02,-4.498576250000003256e+02,-4.498888750000003256e+02,-4.499045000000003256e+02,-4.498732500000003256e+02,-4.498420000000003256e+02,-4.498263750000003256e+02,-4.498107500000003256e+02,-4.498107500000003256e+02,-4.498107500000003256e+02,-4.497951250000003256e+02,-4.497795000000003256e+02,-4.498107500000003256e+02,-4.498263750000003256e+02,-4.498420000000003256e+02,-4.498576250000003256e+02,-4.498420000000003256e+02,-4.498263750000003256e+02,-4.498107500000003256e+02,-4.497951250000003256e+02,-4.497638750000003256e+02,-4.496857500000003256e+02,-4.487482500000003256e+02,-4.469826250000003256e+02,-4.444357500000003256e+02,-4.413263750000003256e+02,-4.378263750000003256e+02,-4.330920000000003256e+02,-4.277482500000003256e+02,-4.216232500000003256e+02,-4.156076250000003256e+02,-4.099201250000003256e+02,-4.030451250000003256e+02,-3.950138750000003256e+02,-3.861388750000003256e+02,-3.768732500000002119e+02,-3.654826250000002119e+02,-3.527482500000001551e+02,-3.401701250000001551e+02,-3.257326250000001551e+02,-3.127482500000001551e+02,-3.011701250000001551e+02,-2.890451250000001551e+02,-2.773576250000001551e+02,-2.684357500000001551e+02,-2.604513750000001551e+02,-2.515138750000001551e+02,-2.454201250000001551e+02,-2.384982500000001551e+02,-2.297482500000001551e+02,-2.215295000000001551e+02,-2.142170000000001551e+02,-2.048107500000001551e+02,-1.965295000000001551e+02,-1.886076250000001266e+02,-1.779513750000000982e+02,-1.687326250000000698e+02,-1.605295000000000698e+02,-1.522951250000000698e+02,-1.435451250000000698e+02,-1.369201250000000698e+02,-1.288107500000000698e+02,-1.217170000000000698e+02,-1.166076250000000698e+02,-1.094045000000000698e+02,-1.031076250000000698e+02,-9.812325000000006980e+01,-9.348262500000005559e+01,-8.723262500000004138e+01,-8.179512500000002717e+01,-7.577950000000002717e+01,-6.971700000000002717e+01,-6.618575000000002717e+01,-6.160762500000002717e+01,-5.676387500000002717e+01,-5.034200000000002717e+01,-4.526387500000002007e+01,-4.151387500000001296e+01,-3.685762500000000585e+01,-3.101387500000000585e+01,-2.401387499999999875e+01,-1.876387499999999875e+01,-1.262324999999999342e+01,-7.951374999999990756e+00,-2.466999999999986759e+00,5.251750000000019014e+00,1.211112500000002257e+01,1.839237500000002612e+01,2.497050000000002967e+01,3.395487500000003678e+01,4.276737500000004388e+01,5.037675000000005099e+01,5.726737500000005809e+01,6.303300000000005809e+01,6.739237500000005809e+01,7.095487500000005809e+01,7.481425000000005809e+01,7.584550000000005809e+01,7.637675000000005809e+01,7.786112500000005809e+01,7.975175000000005809e+01,8.067362500000005809e+01,8.286112500000005809e+01,8.543925000000005809e+01,8.609550000000005809e+01,8.790800000000005809e+01,8.964237500000005809e+01,9.142362500000005809e+01,9.198612500000005809e+01,9.287675000000005809e+01,9.412675000000007230e+01,9.509550000000007230e+01,9.806425000000008652e+01,1.014861250000001007e+02,1.050798750000001007e+02,1.085330000000001007e+02,1.125798750000001007e+02,1.182048750000001007e+02,1.221423750000001007e+02,1.249861250000001007e+02,1.262986250000001007e+02,1.271736250000001007e+02,1.263767500000001007e+02,1.264392500000001007e+02,1.276111250000001007e+02,1.262361250000001007e+02,1.265017500000001007e+02,1.290486250000001007e+02,1.312361250000001007e+02,1.340486250000001007e+02,1.389392500000001007e+02,1.425173750000001007e+02,1.437361250000001007e+02,1.472986250000001007e+02,1.493455000000001007e+02,1.488142500000001007e+02,1.495642500000001007e+02,1.482048750000001007e+02,1.454705000000001007e+02,1.428455000000001007e+02,1.427517500000001007e+02,1.411580000000001007e+02,1.403455000000001007e+02,1.420017500000001007e+02,1.427517500000001007e+02,1.458923750000001007e+02,1.504392500000001007e+02,1.547673750000001007e+02,1.568298750000001007e+02,1.592673750000001007e+02,1.619236250000001007e+02,1.628767500000001007e+02,1.635486250000001007e+02,1.630486250000001007e+02,1.606111250000001007e+02,1.586736250000001007e+02,1.572048750000001007e+02,1.542517500000001007e+02,1.497205000000001007e+02,1.455642500000001007e+02,1.428455000000001007e+02,1.398142500000001007e+02,1.371267500000001007e+02,1.347048750000001007e+02,1.329705000000001007e+02,1.322048750000001007e+02,1.325486250000001007e+02,1.316423750000001007e+02,1.283455000000001007e+02,1.245173750000001007e+02,1.225017500000001007e+02,1.201736250000001007e+02,1.182048750000001007e+02,1.168142500000001007e+02,1.153611250000001007e+02,1.163767500000001007e+02,1.187986250000001007e+02,1.220017500000001007e+02,1.224861250000001007e+02,1.221111250000001007e+02,1.197517500000001007e+02,1.179861250000001007e+02,1.165173750000001007e+02,1.132830000000001007e+02,1.103923750000001007e+02,1.067830000000001007e+02,1.055642500000001007e+02,1.044236250000001007e+02,1.046736250000001007e+02,1.027517500000001007e+02,1.000017500000001007e+02,9.782987500000008652e+01,9.523612500000007230e+01,9.372050000000007230e+01,9.011112500000005809e+01,8.743925000000005809e+01,8.551737500000005809e+01,8.478300000000005809e+01,8.547050000000005809e+01,8.565800000000005809e+01,8.640800000000005809e+01,8.743925000000005809e+01,9.051737500000007230e+01,9.270487500000007230e+01,9.328300000000007230e+01,9.487675000000007230e+01,9.451737500000007230e+01,9.486112500000007230e+01,9.420487500000007230e+01,9.300175000000007230e+01,9.103300000000007230e+01,8.954862500000005809e+01,8.897050000000005809e+01,8.750175000000005809e+01,8.686112500000005809e+01,8.601737500000005809e+01,8.498612500000005809e+01,8.303300000000005809e+01,8.122050000000005809e+01,8.004862500000005809e+01,7.948612500000005809e+01,7.811112500000005809e+01,7.695487500000005809e+01,7.554862500000005809e+01,7.600175000000005809e+01,7.726737500000005809e+01,7.814237500000005809e+01,7.868925000000005809e+01,7.851737500000005809e+01,7.929862500000005809e+01,8.020487500000005809e+01,8.117362500000005809e+01,8.101737500000005809e+01,8.111112500000005809e+01,8.009550000000005809e+01,7.881425000000005809e+01,7.737675000000005809e+01,7.507987500000005809e+01,7.350175000000005809e+01,7.217362500000005809e+01,6.993925000000005809e+01,6.689237500000005809e+01,6.592362500000005809e+01,6.418925000000005809e+01,6.212675000000005809e+01,6.131425000000005809e+01,5.972050000000005809e+01,5.786112500000005809e+01,5.643925000000005809e+01,5.606425000000005809e+01,5.526737500000005809e+01,5.612675000000005809e+01,5.693925000000005809e+01,5.768925000000005809e+01,5.864237500000005809e+01,5.903300000000005809e+01,6.095487500000005809e+01,6.297050000000005809e+01,6.351737500000005809e+01,6.281425000000005809e+01,6.367362500000005809e+01,6.342362500000005809e+01,6.239237500000005809e+01,6.267362500000005809e+01,6.070487500000005809e+01,5.845487500000005809e+01,5.743925000000005809e+01,5.686112500000005809e+01,5.468925000000005809e+01,5.268925000000005809e+01,5.173612500000005809e+01,4.973612500000005809e+01,5.003300000000005809e+01,4.903300000000005099e+01,4.779862500000005099e+01,4.626737500000004388e+01,4.462675000000004388e+01,4.456425000000004388e+01,4.393925000000003678e+01,4.418925000000003678e+01,4.222050000000003678e+01,4.197050000000003678e+01,4.217362500000003678e+01,4.268925000000003678e+01,4.445487500000003678e+01,4.373612500000003678e+01,4.289237500000003678e+01,4.190800000000003678e+01,4.226737500000003678e+01,4.209550000000003678e+01,4.067362500000003678e+01,3.950175000000003678e+01,3.822050000000003678e+01,3.862675000000003678e+01,3.947050000000003678e+01,3.986112500000003678e+01,3.967362500000003678e+01,3.937675000000003678e+01,4.103300000000003678e+01,4.300175000000003678e+01,4.339237500000003678e+01,4.426737500000004388e+01,4.456425000000004388e+01,4.387675000000004388e+01,4.412675000000004388e+01,4.437675000000004388e+01,4.248612500000004388e+01,3.942362500000003678e+01,3.867362500000003678e+01,3.681425000000003678e+01,3.590800000000003678e+01,3.690800000000003678e+01,3.648612500000003678e+01,3.559550000000003678e+01,3.634550000000003678e+01,3.734550000000003678e+01,3.589237500000003678e+01,3.495487500000003678e+01,3.222050000000003678e+01,2.834550000000003678e+01,2.622050000000003678e+01,2.382987500000003678e+01,2.142362500000002967e+01,1.982987500000002612e+01,1.984550000000002612e+01,1.976737500000002612e+01,2.187675000000002967e+01,2.426737500000003678e+01,2.509550000000003678e+01,2.767362500000003678e+01,2.875175000000003678e+01,2.982987500000003678e+01,3.115800000000003678e+01,3.106425000000003678e+01,2.879862500000003678e+01,2.664237500000003678e+01,2.598612500000003678e+01,2.423612500000003322e+01,2.382987500000003322e+01,2.290800000000002967e+01,2.095487500000002612e+01,2.072050000000002612e+01,2.159550000000002612e+01,2.284550000000002967e+01,2.201737500000002967e+01,2.079862500000002967e+01,1.979862500000002967e+01,1.743925000000002612e+01,1.548612500000002612e+01,1.390800000000002434e+01,1.281425000000002434e+01,1.057987500000002257e+01,1.042362500000002257e+01,9.829875000000022567e+00,7.939250000000020790e+00,7.595500000000020790e+00,7.736125000000020790e+00,7.111125000000019902e+00,5.720500000000019014e+00,5.095500000000018126e+00,3.595500000000017682e+00,3.720500000000017682e+00,4.720500000000018126e+00,6.736125000000019014e+00,7.892375000000020790e+00,9.079875000000020790e+00,1.111112500000002257e+01,1.328300000000002434e+01,1.557987500000002612e+01,1.772050000000002612e+01,1.989237500000002612e+01,2.117362500000002967e+01,2.273612500000002967e+01,2.325175000000002967e+01,2.439237500000003678e+01,2.654862500000003678e+01,2.884550000000003678e+01,3.075175000000003678e+01,3.204862500000003678e+01,3.307987500000003678e+01,3.473612500000003678e+01,3.872050000000003678e+01,4.132987500000003678e+01,4.193925000000003678e+01,4.225175000000003678e+01,4.168925000000003678e+01,4.251737500000003678e+01,4.257987500000003678e+01,4.214237500000003678e+01,4.053300000000003678e+01,3.859550000000003678e+01,3.875175000000003678e+01,3.906425000000003678e+01,3.997050000000003678e+01,3.950175000000003678e+01,4.100175000000003678e+01,4.229862500000003678e+01,4.259550000000003678e+01,4.414237500000003678e+01,4.475175000000004388e+01,4.473612500000004388e+01,4.459550000000004388e+01,4.525175000000004388e+01,4.332987500000003678e+01,4.201737500000003678e+01,4.137675000000003678e+01,4.076737500000003678e+01,3.895487500000003678e+01,3.856425000000003678e+01,3.886112500000003678e+01,3.901737500000003678e+01,4.128300000000003678e+01,4.392362500000004388e+01,4.654862500000004388e+01,4.657987500000004388e+01,4.729862500000005099e+01,4.561112500000004388e+01,4.434550000000004388e+01,4.292362500000004388e+01,4.054862500000003678e+01,3.764237500000003678e+01,3.522050000000003678e+01,3.603300000000003678e+01,3.853300000000003678e+01,4.343925000000004388e+01,4.757987500000005099e+01,5.236112500000005809e+01,5.850175000000005809e+01,6.431425000000005809e+01,7.101737500000005809e+01,7.606425000000005809e+01,8.003300000000005809e+01,8.512675000000005809e+01,8.884550000000005809e+01,8.998612500000005809e+01,8.828300000000005809e+01,8.481425000000005809e+01,7.909550000000005809e+01,7.368925000000005809e+01,6.551737500000005809e+01,5.089237500000005099e+01,3.622050000000004388e+01,2.286112500000002967e+01,7.861125000000019902e+00,-7.904499999999990756e+00,-2.677949999999999875e+01,-5.021700000000001296e+01,-7.437325000000002717e+01,-9.735762500000004138e+01,-1.219357500000000698e+02,-1.491545000000000982e+02,-1.734982500000000982e+02,-1.949357500000001551e+02,-2.120920000000001551e+02,-2.230295000000001551e+02,-2.303732500000001551e+02,-2.318263750000001551e+02,-2.290138750000001551e+02,-2.227326250000001551e+02,-2.142013750000001551e+02,-2.060607500000001551e+02,-1.984982500000001551e+02,-1.942638750000001551e+02,-1.911545000000001266e+02,-1.924826250000001266e+02,-1.959982500000001551e+02,-1.986076250000001551e+02,-2.047326250000001551e+02,-2.132795000000001551e+02,-2.226857500000001551e+02,-2.307013750000001551e+02,-2.406388750000001551e+02,-2.518263750000001551e+02,-2.629201250000001551e+02,-2.757482500000001551e+02,-2.856701250000001551e+02,-2.908888750000001551e+02,-2.922638750000001551e+02,-2.929045000000001551e+02,-2.899357500000001551e+02,-2.831388750000001551e+02,-2.776701250000001551e+02,-2.752326250000001551e+02,-2.773888750000001551e+02,-2.844670000000001551e+02,-2.961857500000001551e+02,-3.094201250000001551e+02,-3.248263750000001551e+02,-3.403888750000001551e+02,-3.539201250000001551e+02,-3.633263750000001551e+02,-3.669982500000001551e+02,-3.687638750000001551e+02,-3.702326250000001551e+02,-3.714357500000001551e+02,-3.722326250000001551e+02,-3.750763750000001551e+02,-3.784982500000002119e+02,-3.843107500000003256e+02,-3.955763750000003256e+02,-4.059826250000003256e+02,-4.145295000000003256e+02,-4.230451250000003256e+02,-4.307951250000003256e+02,-4.359826250000003256e+02,-4.404670000000003256e+02,-4.431545000000003256e+02,-4.426857500000003256e+02,-4.422326250000003256e+02,-4.417326250000003256e+02,-4.403263750000003256e+02,-4.382638750000003256e+02,-4.375451250000003256e+02,-4.338576250000003256e+02,-4.281232500000003256e+02,-4.223888750000003256e+02,-4.166232500000003256e+02,-4.095763750000003256e+02,-4.012326250000003256e+02,-3.920920000000003256e+02,-3.813732500000002688e+02,-3.743263750000002119e+02,-3.693888750000001551e+02,-3.628888750000001551e+02,-3.560763750000001551e+02,-3.518732500000001551e+02,-3.505607500000001551e+02,-3.529982500000001551e+02,-3.591388750000001551e+02,-3.667795000000001551e+02,-3.744045000000002119e+02,-3.831545000000003256e+02,-3.925451250000003256e+02,-4.008107500000003256e+02,-4.075763750000003256e+02,-4.119982500000003256e+02,-4.121857500000003256e+02,-4.089201250000003256e+02,-4.074670000000003256e+02,-4.084513750000003256e+02,-4.091388750000003256e+02,-4.096701250000003256e+02,-4.102013750000003256e+02,-4.109201250000003256e+02,-4.154513750000003256e+02,-4.231232500000003256e+02,-4.289513750000003256e+02,-4.327795000000003256e+02,-4.365920000000003256e+02,-4.404357500000003256e+02,-4.442638750000003256e+02,-4.480138750000003256e+02,-4.498576250000003256e+02,-4.498888750000003256e+02,-4.498732500000003256e+02,-4.498576250000003256e+02,-4.498576250000003256e+02,-4.498263750000003256e+02,-4.498420000000003256e+02,-4.498107500000003256e+02,-4.497951250000003256e+02,-4.498107500000003256e+02,-4.498420000000003256e+02,-4.498576250000003256e+02,-4.498263750000003256e+02,-4.498263750000003256e+02,-4.497795000000003256e+02,-4.497795000000003256e+02,-4.497482500000003256e+02,-4.497013750000003256e+02,-4.496545000000003256e+02,-4.496545000000003256e+02,-4.496857500000003256e+02,-4.497013750000003256e+02,-4.486232500000003256e+02,-4.457795000000003256e+02,-4.419982500000003256e+02,-4.346076250000003256e+02,-4.239982500000003256e+02,-4.119201250000003256e+02,-3.972638750000003256e+02,-3.799670000000003256e+02,-3.619513750000002119e+02,-3.432795000000001551e+02,-3.227795000000001551e+02,-3.059670000000001551e+02,-2.923732500000001551e+02,-2.788107500000001551e+02,-2.655295000000001551e+02,-2.522482500000001551e+02,-2.399201250000001551e+02,-2.292951250000001551e+02,-2.202013750000001551e+02,-2.084826250000001551e+02,-1.950920000000001551e+02,-1.794045000000000982e+02,-1.645451250000000982e+02,-1.517326250000000698e+02,-1.363732500000000698e+02,-1.202170000000000698e+02,-1.022951250000000556e+02,-8.435762500000004138e+01,-6.377950000000002717e+01,-4.557637500000001296e+01,-2.668574999999999875e+01,-4.826374999999988091e+00,1.598612500000002612e+01,3.743925000000003678e+01
1.392187500000001066e+01,1.423437500000001066e+01,1.290625000000000888e+01,8.140625000000005329e+00,7.687500000000005329e+00,9.718750000000007105e+00,1.018750000000000711e+01,1.143750000000000711e+01,9.609375000000007105e+00,3.593750000000002220e+00,9.531250000000004441e-01,2.187500000000001110e-01,-2.765625000000001776e+00,-4.843750000000000000e-01,-1.296875000000000000e+00,-5.750000000000003553e+00,-5.062500000000003553e+00,-5.406250000000003553e+00,-5.468750000000008882e-01,5.796875000000004441e+00,8.828125000000007105e+00,8.640625000000007105e+00,5.000000000000013323e-01,-6.343750000000003553e+00,-1.021875000000000711e+01,-1.109375000000000711e+01,-3.281250000000001776e+00,2.953125000000001776e+00,5.812500000000003553e+00,8.875000000000005329e+00,4.703125000000002665e+00,2.062500000000001332e+00,2.828125000000001776e+00,8.906250000000006661e-01,3.750000000000002665e+00,4.296875000000002665e+00,-2.187499999999998890e-01,-1.593750000000000666e+00,-6.265625000000003553e+00,-7.875000000000003553e+00,-5.546875000000003553e+00,-5.281250000000003553e+00,-1.515625000000000888e+00,1.875000000000000000e-01,3.343750000000002220e+00,6.984375000000005329e+00,7.984375000000005329e+00,8.296875000000005329e+00,5.437500000000003553e+00,2.953125000000001776e+00,-1.562500000000000000e-02,5.625000000000002220e-01,-9.218750000000008882e-01,-3.328125000000002665e+00,-3.109375000000002665e+00,-7.781250000000004441e+00,-5.718750000000002665e+00,-2.109375000000001332e+00,-2.109375000000001332e+00,1.312500000000000888e+00,2.343750000000002220e-01,-6.875000000000005551e-01,3.031250000000001776e+00,5.375000000000002665e+00,7.875000000000003553e+00,7.406250000000003553e+00,2.718750000000001332e+00,-4.218750000000003886e-01,-3.468750000000002220e+00,-5.296875000000003553e+00,-3.328125000000002220e+00,-4.625000000000003553e+00,-4.609375000000003553e+00,4.531250000000002220e-01,-6.406250000000006661e-01,3.593750000000001332e+00,6.640625000000003553e+00,1.406250000000000000e-01,2.015625000000000888e+00,-2.312500000000000888e+00,-7.375000000000004441e+00,-4.375000000000003553e+00,-7.546875000000005329e+00,-6.671875000000004441e+00,-2.906250000000001776e+00,-1.796875000000001110e+00,1.515625000000001110e+00,4.812500000000003553e+00,7.468750000000005329e+00,8.468750000000005329e+00,8.046875000000005329e+00,4.906250000000003553e+00,-3.265625000000001776e+00,-9.125000000000005329e+00,-1.126562500000000711e+01,-9.687500000000007105e+00,-7.656250000000013323e-01,9.078125000000005329e+00,1.275000000000000888e+01,1.235937500000000888e+01,5.406250000000003553e+00,-7.562500000000006217e+00,-1.467187500000001066e+01,-1.928125000000001421e+01,-1.564062500000001066e+01,-3.125000000000001776e+00,8.781250000000007105e+00,2.226562500000001421e+01,2.342187500000001421e+01,1.542187500000000888e+01,2.687500000000000888e+00,-1.421875000000001066e+01,-1.857812500000001421e+01,-1.418750000000001066e+01,-6.625000000000005329e+00,3.281250000000002220e+00,5.265625000000003553e+00,3.296875000000002220e+00,3.031250000000002220e+00,2.421875000000001776e+00,8.921875000000005329e+00,8.906250000000005329e+00,4.093750000000001776e+00,6.250000000000000000e-01,-1.387500000000000888e+01,-1.490625000000001066e+01,-1.045312500000000711e+01,-8.625000000000007105e+00,4.156250000000001776e+00,5.046875000000002665e+00,3.421875000000002665e+00,4.843750000000003553e+00,-7.031250000000003331e-01,1.093750000000000444e+00,1.062500000000000222e+00,-2.921875000000001776e+00,-4.203125000000002665e+00,-8.468750000000005329e+00,-7.968750000000004441e+00,-2.296875000000001776e+00,6.781250000000005329e+00,1.553125000000001066e+01,1.873437500000001421e+01,1.828125000000001421e+01,1.106250000000000711e+01,4.703125000000003553e+00,3.078125000000001776e+00,2.046875000000000444e+00,3.531250000000001776e+00,5.343750000000003553e+00,2.062500000000000888e+00,-3.468750000000001776e+00,-1.015625000000000711e+01,-2.215625000000001421e+01,-3.198437500000002132e+01,-3.929687500000002132e+01,-4.056250000000002132e+01,-3.109375000000001776e+01,-1.625000000000001066e+01,2.359375000000001776e+00,1.629687500000001066e+01,2.320312500000001421e+01,2.167187500000001421e+01,1.332812500000000888e+01,1.234375000000000444e+00,-1.384375000000000888e+01,-2.328125000000001421e+01,-2.739062500000001776e+01,-2.096875000000001421e+01,-2.859375000000001776e+00,1.534375000000000711e+01,3.018750000000001421e+01,3.525000000000002132e+01,2.709375000000001421e+01,1.321875000000000711e+01,1.000000000000000888e+00,-7.984375000000007105e+00,-1.081250000000000711e+01,-6.046875000000003553e+00,-2.281250000000001776e+00,2.265625000000001776e+00,7.750000000000005329e+00,5.750000000000003553e+00,3.375000000000002665e+00,5.312500000000004441e-01,-2.843750000000001776e+00,7.031250000000004441e-01,6.156250000000003553e+00,1.281250000000000711e+01,1.693750000000001066e+01,1.792187500000001066e+01,1.668750000000001066e+01,1.162500000000000888e+01,6.625000000000005329e+00,-1.203125000000000888e+00,-6.718750000000005329e+00,-1.037500000000000711e+01,-1.278125000000000888e+01,-1.331250000000000888e+01,-1.892187500000001421e+01,-2.235937500000001421e+01,-2.212500000000001421e+01,-1.492187500000001066e+01,4.312500000000001776e+00,2.576562500000001421e+01,4.546875000000002842e+01,5.393750000000004263e+01,4.748437500000002842e+01,3.210937500000001421e+01,9.515625000000003553e+00,-5.328125000000003553e+00,-1.350000000000000888e+01,-1.539062500000001066e+01,-1.045312500000000711e+01,-1.110937500000000888e+01,-8.750000000000007105e+00,-7.359375000000004441e+00,-6.359375000000003553e+00,-9.375000000000004441e-01,-3.390625000000002665e+00,-6.109375000000005329e+00,-1.271875000000000888e+01,-2.207812500000001421e+01,-2.187500000000001421e+01,-2.334375000000001421e+01,-1.793750000000001421e+01,-1.090625000000000711e+01,-1.070312500000000711e+01,-6.812500000000003553e+00,-7.375000000000003553e+00,-4.484375000000001776e+00,1.859375000000001776e+00,8.718750000000005329e+00,1.537500000000001066e+01,1.382812500000000711e+01,1.154687500000000533e+01,1.859375000000000000e+00,-5.890625000000003553e+00,-6.687500000000003553e+00,-1.004687500000000711e+01,-4.640625000000002665e+00,-3.765625000000001776e+00,-6.375000000000003553e+00,-7.500000000000003553e+00,-1.415625000000000711e+01,-1.396875000000001066e+01,-1.282812500000001066e+01,-7.875000000000006217e+00,7.031249999999994449e-01,6.437500000000003553e+00,1.431250000000000711e+01,1.817187500000001066e+01,1.971875000000001066e+01,1.914062500000001066e+01,1.482812500000001066e+01,1.040625000000000711e+01,5.828125000000003553e+00,2.718750000000002220e+00,1.250000000000000888e+00,5.312500000000003331e-01,4.218750000000003331e-01,3.437500000000002220e-01,1.406250000000000833e-01,1.093750000000000694e-01,3.125000000000002776e-02,-3.125000000000002082e-02,7.812500000000005551e-02,6.250000000000004163e-02,1.250000000000000833e-01,1.718750000000001110e-01,1.406250000000001110e-01,1.406250000000001110e-01,6.250000000000005551e-02,-6.250000000000002776e-02,-1.718750000000001110e-01,-2.500000000000001665e-01,-2.500000000000001665e-01,-1.406250000000001110e-01,-3.125000000000002082e-02,6.250000000000004163e-02,1.562500000000001110e-01,1.875000000000001388e-01,2.187500000000001665e-01,2.500000000000001665e-01,2.187500000000001665e-01,7.812500000000006939e-02,-6.250000000000002776e-02,-2.031250000000001110e-01,-3.281250000000002220e-01,-2.343750000000001665e-01,-1.093750000000000833e-01,4.687500000000001388e-02,2.500000000000001665e-01,3.750000000000002220e-01,5.000000000000003331e-01,1.156250000000000888e+00,2.484375000000001776e+00,4.734375000000003553e+00,8.140625000000005329e+00,1.154687500000000711e+01,1.582812500000001066e+01,1.917187500000001066e+01,2.006250000000001066e+01,1.857812500000001066e+01,1.093750000000000711e+01,4.687500000000000000e-01,-8.328125000000007105e+00,-1.412500000000001066e+01,-1.412500000000000888e+01,-8.546875000000005329e+00,-4.031250000000003553e+00,-2.968750000000001776e+00,6.875000000000000000e-01,3.281249999999995559e-01,3.124999999999995559e-01,6.468750000000004441e+00,3.531250000000003109e+00,2.703125000000003109e+00,3.796875000000003553e+00,-2.375000000000001776e+00,5.156249999999995559e-01,1.171874999999999556e+00,-2.250000000000001776e+00,-1.671875000000001332e+00,-5.765625000000002665e+00,-8.218750000000003553e+00,-6.078125000000003553e+00,-2.265625000000000888e+00,1.328125000000000444e+00,6.968750000000005329e+00,9.375000000000007105e+00,6.562500000000004441e+00,5.921875000000003553e+00,-1.125000000000002665e+00,-7.500000000000005329e+00,-1.051562500000000711e+01,-1.578125000000001066e+01,-1.281250000000000711e+01,-7.640625000000005329e+00,-2.343750000000001776e+00,6.343750000000003553e+00,7.093750000000003553e+00,5.796875000000003553e+00,4.734375000000003553e+00,-1.249999999999996669e-01,2.312500000000001776e+00,2.953125000000002665e+00,2.375000000000001776e+00,1.765625000000000888e+00,-3.984375000000002665e+00,-4.531250000000003553e+00,-6.468750000000003553e+00,-2.500000000000001332e+00,1.718750000000000444e+00,4.687499999999944489e-02,3.468750000000001776e+00,-1.140625000000001332e+00,-1.281250000000000444e+00,1.453125000000001332e+00,-2.046875000000001332e+00,-9.531250000000006661e-01,-5.812500000000003553e+00,-8.468750000000005329e+00,-7.531250000000005329e+00,-6.656250000000004441e+00,-1.640625000000001110e+00,-1.156250000000000666e+00,-5.625000000000002220e-01,-1.156250000000000888e+00,-3.000000000000001776e+00,-1.718750000000001332e+00,-1.625000000000001332e+00,-1.015625000000000666e+00,-4.218750000000002776e-01,-7.500000000000004441e-01,-5.312500000000003331e-01,-3.750000000000002220e-01,-2.187500000000001110e-01,-3.125000000000002776e-02,6.250000000000005551e-02,9.375000000000008327e-02,1.250000000000000833e-01,1.093750000000000833e-01,6.250000000000004163e-02,3.125000000000002082e-02,0.000000000000000000e+00,-1.562500000000001041e-02,-6.250000000000005551e-02,-9.375000000000008327e-02,-1.250000000000000833e-01,-6.250000000000004163e-02,4.687500000000004163e-02,9.375000000000005551e-02,1.406250000000000833e-01,4.687500000000001388e-02,-6.250000000000005551e-02,-9.375000000000006939e-02,-1.250000000000000833e-01,-7.812500000000005551e-02,-3.125000000000002082e-02,3.125000000000002776e-02,9.375000000000008327e-02,1.406250000000001110e-01,1.875000000000001665e-01,9.375000000000008327e-02,-1.562500000000000347e-02,-1.250000000000000833e-01,-2.343750000000001665e-01,-1.875000000000001110e-01,-7.812500000000004163e-02,3.125000000000004163e-02,1.406250000000001110e-01,1.718750000000001388e-01,3.125000000000002776e-02,-9.687500000000006661e-01,-2.796875000000001776e+00,-5.406250000000003553e+00,-8.203125000000005329e+00,-7.953125000000005329e+00,-5.625000000000003553e+00,-7.187500000000000000e-01,5.031250000000003553e+00,5.578125000000003553e+00,4.765625000000002665e+00,-1.171875000000001332e+00,-8.765625000000005329e+00,-1.045312500000000711e+01,-1.378125000000000888e+01,-9.796875000000007105e+00,-3.156250000000002665e+00,-1.171875000000001110e+00,4.703125000000002665e+00,5.593750000000003553e+00,5.765625000000003553e+00,7.640625000000005329e+00,7.140625000000004441e+00,7.031250000000004441e+00,2.484375000000001776e+00,-5.156250000000007772e-01,-2.546875000000001776e+00,-5.281250000000003553e+00,-7.187499999999995559e-01,9.375000000000009992e-01,-1.312500000000000888e+00,-2.187500000000005274e-01,-3.562500000000003109e+00,-4.296875000000003553e+00,1.093749999999998890e-01,3.328125000000002220e+00,5.062500000000003553e+00,4.265625000000002665e+00,2.953125000000002220e+00,-2.171875000000000888e+00,-2.281250000000000888e+00,1.500000000000000888e+00,1.453125000000000666e+00,5.312500000000003553e+00,5.515625000000003553e+00,-2.812500000000000000e-01,-2.046875000000000888e+00,-3.109375000000001776e+00,-4.359375000000002665e+00,3.125000000000000000e-01,2.000000000000001332e+00,2.031250000000001332e+00,4.328125000000003553e+00,2.984375000000002665e+00,2.437500000000001776e+00,-8.281250000000002220e-01,-4.203125000000002665e+00,-7.171875000000004441e+00,-6.828125000000003553e+00,-7.031249999999997780e-01,1.421875000000001776e+00,7.031250000000006217e+00,7.484375000000006217e+00,1.937500000000001332e+00,9.375000000000022204e-02,-7.390625000000005329e+00,-1.142187500000000711e+01,-9.062500000000005329e+00,-6.296875000000005329e+00,1.828125000000000444e+00,9.718750000000005329e+00,1.132812500000000711e+01,1.212500000000000711e+01,9.765625000000007105e+00,3.390625000000002665e+00,1.156250000000000666e+00,-1.687500000000001110e+00,-5.718750000000004441e+00,-2.828125000000002665e+00,-1.031250000000001110e+00,-7.656250000000007772e-01,4.171875000000002665e+00,1.593750000000001110e+00,-5.000000000000004441e-01,8.125000000000005551e-01,-2.921875000000001332e+00,1.234375000000000888e+00,2.484375000000001776e+00,1.406250000000000666e+00,3.968750000000002665e+00,-1.750000000000001554e+00,-4.656250000000003553e+00,-7.265625000000005329e+00,-1.148437500000000711e+01,-7.500000000000003553e+00,-1.609375000000000888e+00,5.015625000000003553e+00,1.289062500000000711e+01,1.373437500000000888e+01,8.671875000000005329e+00,4.984375000000003553e+00,-1.468750000000001110e+00,-4.968750000000003553e+00,-3.328125000000002665e+00,-5.078125000000003553e+00,-5.843750000000003553e+00,-4.953125000000003553e+00,-4.328125000000002665e+00,-3.578125000000002665e+00,8.437500000000000000e-01,4.015625000000001776e+00,3.109375000000001776e+00,6.796875000000003553e+00,6.187500000000003553e+00,4.093750000000002665e+00,4.781250000000003553e+00,2.328125000000001332e+00,1.062500000000000666e+00,6.249999999999983347e-02,-3.125000000000027756e-02,-3.500000000000002665e+00,-7.062500000000005329e+00,-9.343750000000007105e+00,-1.153125000000000888e+01,-7.109375000000004441e+00,-2.156250000000001776e+00,5.015625000000002665e+00,9.015625000000005329e+00,9.078125000000005329e+00,9.984375000000005329e+00,3.968750000000002220e+00,8.593750000000005551e-01,-1.453125000000000666e+00,-5.015625000000003553e+00,-6.406250000000004441e-01,2.328125000000001332e+00,6.406250000000003553e+00,9.625000000000005329e+00,6.218750000000003553e+00,2.500000000000001332e+00,-5.718750000000003553e+00,-1.253125000000000711e+01,-1.404687500000000888e+01,-1.181250000000000711e+01,-1.796875000000001332e+00,7.421875000000003553e+00,1.407812500000000711e+01,1.587500000000001066e+01,9.390625000000005329e+00,3.156250000000001332e+00,-5.703125000000004441e+00,-1.442187500000001066e+01,-1.696875000000001066e+01,-1.664062500000001066e+01,-1.034375000000000711e+01,2.234375000000003109e+00,1.165625000000001066e+01,1.585937500000001243e+01,1.685937500000001421e+01,9.593750000000007105e+00,2.859375000000001776e+00,-1.984375000000001776e+00,-8.812500000000005329e+00,-1.110937500000000711e+01,-1.018750000000000711e+01,-6.906250000000004441e+00,7.968750000000008882e-01,8.984375000000005329e+00,1.034375000000000533e+01,1.040625000000000711e+01,4.953125000000003553e+00,-3.140625000000001776e+00,-5.500000000000003553e+00,-9.578125000000007105e+00,-6.906250000000005329e+00,-2.421875000000001776e+00,5.625000000000000000e-01,3.500000000000001776e+00,2.499999999999997780e-01,-2.625000000000002220e+00,-7.218750000000005329e+00,-7.109375000000005329e+00,-2.421875000000001776e+00,1.687500000000000222e+00,9.093750000000005329e+00,1.176562500000000711e+01,9.484375000000005329e+00,5.203125000000002665e+00,-1.656250000000001110e+00,-8.937500000000005329e+00,-9.078125000000005329e+00,-5.937500000000003553e+00,-2.156250000000001776e+00,6.796875000000003553e+00,6.890625000000003553e+00,5.421875000000003553e+00,4.937500000000002665e+00,-3.187500000000002665e+00,-2.265625000000001776e+00,-3.390625000000002665e+00,-7.265625000000005329e+00,-1.796875000000001332e+00,-3.828125000000003109e+00,-6.562500000000008882e-01,5.515625000000004441e+00,1.328125000000001332e+00,2.281250000000002220e+00,-1.296875000000000444e+00,-6.640625000000003553e+00,-1.734375000000001110e+00,-7.812500000000044409e-02,3.265625000000001776e+00,7.984375000000005329e+00,4.312500000000002665e+00,2.718750000000001776e+00,9.062500000000004441e-01,-1.484375000000000888e+00,-4.062500000000003331e-01,-1.078125000000000888e+00,-1.281250000000000888e+00,-2.859375000000002220e+00,-2.515625000000001776e+00,7.812500000000002220e-01,2.031250000000000888e+00,4.593750000000003553e+00,4.062500000000002665e+00,-2.140625000000001332e+00,-4.906250000000003553e+00,-6.656250000000003553e+00,-7.359375000000004441e+00,-1.093750000000000888e+00,1.593750000000000888e+00,1.843750000000000888e+00,2.828125000000001776e+00,-3.124999999999998890e-01,-1.796875000000000888e+00,-6.875000000000002220e-01,2.031250000000002776e-01,8.437500000000006661e-01,3.296875000000002220e+00,4.359375000000002665e+00,2.765625000000001776e+00,2.546875000000001776e+00,8.906250000000003331e-01,-2.609375000000001776e+00,-1.906250000000001110e+00,-2.656250000000003886e-01,-2.031250000000001776e+00,1.656250000000000888e+00,1.796875000000001110e+00,-7.031250000000005551e-01,1.812500000000001332e+00,-2.812500000000001776e+00,-3.453125000000001776e+00,-1.984375000000001110e+00,-8.437500000000002220e-01,4.781250000000002665e+00,5.031250000000003553e+00,3.281250000000001776e+00,-3.125000000000002220e+00,-8.625000000000005329e+00,-8.703125000000005329e+00,-5.156250000000002665e+00,2.453125000000002220e+00,8.109375000000005329e+00,9.890625000000007105e+00,6.312500000000005329e+00,2.640625000000001776e+00,-4.187500000000001776e+00,-8.140625000000003553e+00,-5.843750000000003553e+00,-5.875000000000003553e+00,2.093750000000001332e+00,5.375000000000002665e+00,2.609375000000001776e+00,3.609375000000002220e+00,-4.218750000000002665e+00,-5.375000000000003553e+00,-2.156250000000001776e+00,-3.609375000000002665e+00,2.203125000000001332e+00,3.406250000000002220e+00,3.968750000000002665e+00,6.593750000000004441e+00,4.593750000000003553e+00,4.171875000000002665e+00,-4.531250000000004441e-01,-3.390625000000002665e+00,-3.718750000000002665e+00,-7.250000000000005329e+00,-5.000000000000003553e+00,-3.078125000000002220e+00,-3.500000000000002665e+00,3.312500000000001776e+00,7.500000000000005329e+00,7.953125000000005329e+00,1.014062500000000711e+01,5.187500000000003553e+00,-5.625000000000003331e-01,-3.750000000000002665e+00,-6.296875000000004441e+00,-7.015625000000005329e+00,-6.859375000000004441e+00,-3.750000000000002665e+00,-4.609375000000003553e+00,-2.406250000000001776e+00,1.328125000000000888e+00,-3.750000000000002220e-01,3.546875000000002665e+00,5.406250000000003553e+00,3.078125000000001776e+00,3.687500000000002665e+00,2.031250000000001332e+00,-1.578125000000000888e+00,1.265625000000000444e+00,4.234375000000001776e+00,2.609375000000000888e+00,2.765625000000001332e+00,-5.062500000000004441e+00,-1.229687500000000711e+01,-1.056250000000000711e+01,-6.687500000000005329e+00,5.187500000000003553e+00,1.426562500000001066e+01,1.492187500000001066e+01,1.017187500000000711e+01,3.124999999999955591e-02,-8.640625000000007105e+00,-1.231250000000000888e+01,-8.468750000000005329e+00,-3.796875000000002220e+00,1.546875000000001332e+00,6.890625000000005329e+00,4.656250000000003553e+00,3.687500000000002220e+00,3.171875000000002220e+00,-2.828125000000002220e+00,-3.500000000000002665e+00,-4.062500000000002665e+00,-6.437500000000004441e+00,-5.625000000000004441e-01,1.125000000000000444e+00,2.968750000000000000e-01,1.265625000000000888e+00,-4.796875000000003553e+00,-6.140625000000004441e+00,-1.437500000000000888e+00,5.156250000000001110e-01,6.875000000000005329e+00,8.765625000000007105e+00,1.234375000000001110e+00,-1.765625000000000444e+00,-5.843750000000002665e+00,-7.109375000000003553e+00,1.484375000000000888e+00,4.062500000000002665e+00,2.843750000000001776e+00,2.296875000000001332e+00,-5.359375000000003553e+00,-6.140625000000003553e+00,-3.125000000000003886e-01,8.906250000000004441e-01,6.906250000000005329e+00,6.593750000000005329e+00,2.781250000000001776e+00,4.015625000000003553e+00,-2.343750000000000000e-01,5.781250000000000000e-01,-1.125000000000001332e+00,-3.812500000000003109e+00,-1.968750000000001554e+00,-4.781250000000003553e+00,-1.125000000000000888e+00,-1.218750000000000888e+00,-1.906250000000001332e+00,2.671875000000001776e+00,1.874999999999997780e-01,2.515625000000001332e+00,4.281250000000002665e+00,2.343749999999998335e-01,1.375000000000000888e+00,-2.812500000000000000e-01,-1.484375000000000888e+00,2.015625000000001332e+00,2.281250000000001776e+00,3.640625000000002220e+00,1.640625000000000888e+00,-3.531250000000002665e+00,-6.640625000000004441e+00,-9.734375000000007105e+00,-8.500000000000005329e+00,-3.765625000000001776e+00,7.968750000000009992e-01,6.515625000000004441e+00,1.167187500000000711e+01,1.473437500000001066e+01,1.493750000000001066e+01,7.921875000000004441e+00,-2.078125000000002665e+00,-1.604687500000001066e+01,-2.375000000000001421e+01,-1.912500000000001066e+01,-1.225000000000000711e+01,3.593750000000002665e+00,1.107812500000000711e+01,7.109375000000003553e+00,4.593750000000002665e+00,-6.218750000000005329e+00,-9.484375000000007105e+00,-2.468750000000001332e+00,1.500000000000001332e+00,8.906250000000007105e+00,1.350000000000001066e+01,7.609375000000006217e+00,5.687500000000003553e+00,9.531250000000007105e+00,1.006250000000000711e+01,1.746875000000001066e+01,1.814062500000001421e+01,5.640625000000002665e+00,-5.000000000000009992e-01,-8.015625000000005329e+00,-7.078125000000004441e+00,4.062500000000003553e+00,1.106250000000000888e+01,2.081250000000001421e+01,2.059375000000001421e+01,1.689062500000001066e+01,1.053125000000000533e+01,-7.750000000000005329e+00,-1.721875000000001066e+01,-2.971875000000001421e+01,-3.712500000000002132e+01,-3.037500000000002132e+01,-2.840625000000001776e+01,-1.814062500000001066e+01,-9.515625000000007105e+00,-5.671875000000003553e+00,9.843750000000005551e-01,3.343750000000001776e+00,8.718750000000007105e+00,1.354687500000001066e+01,1.956250000000001421e+01,2.364062500000001421e+01,2.009375000000001066e+01,1.139062500000000711e+01,-3.484375000000002220e+00,-1.625000000000000711e+01,-1.971875000000001421e+01,-8.578125000000005329e+00,9.734375000000005329e+00,2.660937500000001421e+01,3.289062500000002132e+01,1.871875000000001066e+01,-6.859375000000006217e+00,-3.645312500000002842e+01,-5.695312500000004263e+01,-5.675000000000004263e+01,-3.678125000000002842e+01,-5.156250000000017764e-01,3.707812500000002132e+01,5.995312500000003553e+01,6.360937500000004263e+01,4.656250000000002842e+01,1.590625000000001066e+01,-1.129687500000000711e+01,-3.045312500000001776e+01,-3.801562500000002132e+01,-2.967187500000001421e+01,-1.764062500000001066e+01,-7.968750000000006217e+00,1.921875000000001554e+00,2.015625000000001776e+00,7.812500000000006661e-01,9.453125000000007105e+00,1.210937500000000711e+01,1.759375000000001066e+01,2.084375000000001421e+01,7.171875000000004441e+00,-1.546875000000001332e+00,-9.437500000000005329e+00,-1.660937500000001066e+01,-1.192187500000000711e+01,-9.921875000000007105e+00,-8.812500000000005329e+00,-6.250000000000003553e+00,-6.656250000000004441e+00,-2.359375000000001776e+00,2.390625000000001332e+00,6.171875000000003553e+00,8.921875000000005329e+00,3.703125000000002220e+00,-5.109375000000003553e+00,-1.546875000000001066e+01,-2.264062500000001421e+01,-2.128125000000001066e+01,-8.578125000000003553e+00,1.007812500000000711e+01,2.193750000000001421e+01,2.453125000000001776e+01,1.129687500000000533e+01,-9.640625000000008882e+00,-2.014062500000001421e+01,-1.782812500000001421e+01,-1.218750000000002665e+00,2.221875000000001421e+01,3.765625000000002132e+01,3.948437500000002842e+01,2.850000000000002132e+01,7.875000000000005329e+00,-1.512500000000001066e+01,-3.079687500000002132e+01,-3.665625000000002132e+01,-2.864062500000001776e+01,-8.718750000000007105e+00,8.343750000000005329e+00,1.889062500000001421e+01,1.612500000000001066e+01,1.718750000000008882e-01,-8.578125000000005329e+00,-8.484375000000005329e+00,-7.656250000000000000e-01,1.439062500000001066e+01,1.817187500000001421e+01,1.078125000000000711e+01,1.421875000000001332e+00,-9.562500000000007105e+00,-1.293750000000000888e+01,-9.218750000000007105e+00,-5.515625000000003553e+00,-1.890625000000001332e+00,-1.718750000000001110e-01,-2.031250000000001665e-01,-9.375000000000008327e-02,-4.687500000000004163e-02,1.562500000000000000e-02,1.093750000000000833e-01,6.250000000000005551e-02,9.375000000000006939e-02,7.812500000000005551e-02,3.125000000000002082e-02,0.000000000000000000e+00,-4.687500000000002776e-02,-7.812500000000005551e-02,-1.406250000000000833e-01,-1.250000000000000833e-01,-1.250000000000000833e-01,-3.125000000000000694e-02,1.093750000000000833e-01,1.875000000000001110e-01,2.500000000000001665e-01,1.562500000000001110e-01,4.687500000000004163e-02,-1.156250000000000666e+00,-4.125000000000001776e+00,-7.906250000000003553e+00,-1.529687500000000711e+01,-2.146875000000001421e+01,-2.198437500000001421e+01,-2.139062500000001421e+01,-9.000000000000007105e+00,6.671875000000003553e+00,1.331250000000000711e+01,2.093750000000001421e+01,1.393750000000001243e+01,5.937500000000018874e-01,-4.687499999999987788e-01,-3.250000000000001332e+00,1.406250000000000888e+00,9.265625000000005329e+00,2.578125000000001332e+00,-2.515625000000002220e+00,-6.796875000000005329e+00,-1.150000000000000711e+01,-5.062500000000003553e+00,-2.046875000000001776e+00,-7.968750000000006661e-01,-1.562500000000002220e-01,-1.750000000000000888e+00,1.562499999999994449e-02,-2.234375000000001776e+00,-2.062500000000002665e+00,-6.890625000000006217e+00,-1.134375000000000888e+01,-6.890625000000004441e+00,-2.890625000000001332e+00,7.156250000000004441e+00
3.031250000000001421e+01,1.793750000000000711e+01,-1.843750000000000711e+01,-1.362500000000000533e+01,1.662500000000000711e+01,8.437500000000005329e+00,-9.812500000000003553e+00,7.250000000000000888e+00,1.368750000000000355e+01,-4.187500000000001776e+00,-3.187500000000001332e+00,-1.125000000000000444e+00,-8.312500000000003553e+00,6.562500000000003553e+00,1.125000000000000533e+01,-9.125000000000003553e+00,-7.125000000000001776e+00,3.875000000000001776e+00,-7.750000000000002665e+00,-8.875000000000003553e+00,1.681250000000000711e+01,2.056250000000000711e+01,-5.687500000000001776e+00,-1.218750000000000533e+01,-4.687500000000002665e+00,-8.437500000000003553e+00,-4.625000000000001776e+00,8.125000000000003553e+00,1.168750000000000533e+01,1.937500000000000888e+00,-7.687500000000003553e+00,1.250000000000000888e+00,7.062500000000003553e+00,-5.187500000000003553e+00,-5.437500000000003553e+00,5.625000000000001776e+00,9.750000000000003553e+00,5.250000000000002665e+00,-1.193750000000000711e+01,-1.806250000000001066e+01,3.062500000000001776e+00,1.706250000000000711e+01,7.500000000000000000e-01,-1.800000000000000711e+01,-5.562500000000003553e+00,1.550000000000000711e+01,1.137500000000000533e+01,-3.437500000000001332e+00,-4.812500000000001776e+00,3.625000000000001776e+00,4.437500000000001776e+00,-4.687500000000002665e+00,-7.062500000000003553e+00,7.062500000000002665e+00,9.437500000000003553e+00,-8.937500000000003553e+00,-1.200000000000000533e+01,-4.812500000000001776e+00,2.750000000000001776e+00,1.818750000000001066e+01,7.437500000000004441e+00,-2.362500000000001066e+01,-1.612500000000000711e+01,1.881250000000000711e+01,2.181250000000000711e+01,-4.187500000000001776e+00,-1.087500000000000355e+01,1.687500000000000888e+00,1.187500000000000888e+00,-3.625000000000001332e+00,2.500000000000000000e-01,6.250000000000001110e-01,-3.125000000000000000e-01,-4.500000000000001776e+00,-7.437500000000003553e+00,8.562500000000003553e+00,1.100000000000000533e+01,-4.312500000000002665e+00,-9.375000000000008882e-01,-2.375000000000000888e+00,-5.625000000000002665e+00,6.187500000000003553e+00,-3.750000000000000000e-01,-1.106250000000000533e+01,-1.500000000000000000e+00,3.437500000000001776e+00,1.500000000000000444e+00,3.562500000000001332e+00,-1.500000000000000888e+00,-4.000000000000001776e+00,9.437500000000005329e+00,1.118750000000000711e+01,-3.375000000000001776e+00,-4.562500000000002665e+00,-6.437500000000002665e+00,-1.681250000000000711e+01,-3.312500000000000888e+00,1.737500000000000711e+01,1.087500000000000533e+01,-3.125000000000005551e-01,2.437500000000000888e+00,5.125000000000001776e+00,-4.312500000000002665e+00,-2.187500000000001066e+01,-1.593750000000000711e+01,1.037500000000000355e+01,1.031250000000000355e+01,-7.562500000000003553e+00,6.625000000000003553e+00,3.787500000000002132e+01,1.481250000000001066e+01,-3.668750000000001421e+01,-3.062500000000001421e+01,1.062500000000000000e+00,7.562500000000003553e+00,1.506250000000000888e+01,1.331250000000000711e+01,-1.450000000000000711e+01,-1.743750000000000711e+01,1.318750000000000711e+01,1.131250000000000533e+01,-1.387500000000000711e+01,1.068750000000000178e+01,2.900000000000001066e+01,-1.850000000000001066e+01,-3.537500000000001421e+01,-1.562500000000000000e+00,1.231250000000000533e+01,7.687500000000002665e+00,1.250000000000000222e+00,1.250000000000002220e-01,-8.750000000000004441e-01,-5.250000000000002665e+00,2.312500000000001332e+00,4.750000000000002665e+00,-1.937500000000001332e+00,1.500000000000000888e+00,5.000000000000008882e-01,-9.375000000000003553e+00,-1.043750000000000533e+01,-2.062500000000000888e+00,1.031250000000000355e+01,2.187500000000001066e+01,1.212500000000000711e+01,-1.200000000000000355e+01,-7.000000000000000888e+00,9.312500000000005329e+00,-2.437500000000000888e+00,-6.437500000000003553e+00,1.175000000000000355e+01,8.312500000000003553e+00,-8.312500000000003553e+00,-5.750000000000002665e+00,8.750000000000006661e-01,-2.187500000000001332e+00,-1.206250000000000533e+01,-2.418750000000001066e+01,-2.412500000000001066e+01,-3.375000000000000000e+00,1.650000000000000711e+01,1.087500000000000533e+01,1.750000000000000444e+00,1.068750000000000355e+01,1.200000000000000533e+01,-5.125000000000001776e+00,-7.562500000000003553e+00,2.937500000000001332e+00,-1.193750000000000533e+01,-2.968750000000001421e+01,-1.200000000000000711e+01,1.781250000000000711e+01,2.831250000000001421e+01,1.637500000000000711e+01,2.625000000000001332e+00,4.812500000000001776e+00,3.125000000000000000e-01,-1.806250000000000711e+01,-9.875000000000005329e+00,1.293750000000000533e+01,2.812500000000000000e+00,-1.093750000000000533e+01,8.750000000000008882e-01,9.375000000000003553e+00,9.687500000000003553e+00,3.500000000000001776e+00,-1.437500000000000711e+01,-1.643750000000001066e+01,6.562500000000000888e+00,2.031250000000000711e+01,9.000000000000005329e+00,-3.187500000000001776e+00,-2.937500000000001332e+00,4.375000000000001776e+00,1.362500000000000533e+01,8.500000000000003553e+00,-1.268750000000000533e+01,-2.131250000000000711e+01,-1.750000000000000000e+00,1.512500000000000711e+01,4.687500000000001776e+00,-1.250000000000000533e+01,-2.225000000000000711e+01,-1.725000000000000711e+01,4.875000000000001776e+00,1.537500000000000711e+01,8.500000000000003553e+00,1.718750000000000711e+01,3.831250000000001421e+01,2.356250000000000711e+01,-1.962500000000000711e+01,-2.587500000000001066e+01,-3.125000000000017764e-01,6.437500000000001776e+00,-4.687500000000001776e+00,-3.250000000000001332e+00,6.812500000000001776e+00,-7.250000000000001776e+00,-2.006250000000000711e+01,4.187500000000001776e+00,2.343750000000000711e+01,3.875000000000000000e+00,-2.137500000000001066e+01,-1.212500000000000711e+01,4.750000000000001776e+00,-8.687500000000003553e+00,-1.531250000000000711e+01,-5.000000000000000000e-01,7.312500000000003553e+00,5.375000000000002665e+00,-6.750000000000002665e+00,-1.525000000000000711e+01,-3.187500000000001776e+00,1.218750000000000533e+01,9.812500000000003553e+00,3.812500000000001332e+00,7.000000000000003553e+00,2.125000000000001776e+00,-5.875000000000002665e+00,-9.562500000000005329e+00,-8.375000000000003553e+00,5.500000000000002665e+00,7.375000000000003553e+00,-3.687500000000001776e+00,-2.937500000000001776e+00,-6.875000000000001110e-01,-8.187500000000003553e+00,-1.306250000000000533e+01,-7.500000000000008882e-01,9.000000000000003553e+00,6.249999999999991118e-01,-2.500000000000001776e+00,6.187500000000002665e+00,1.175000000000000711e+01,8.437500000000003553e+00,2.312500000000000888e+00,6.250000000000001388e-02,1.250000000000000278e-01,3.125000000000001110e-01,4.375000000000002220e-01,6.250000000000005551e-02,-1.875000000000000833e-01,6.250000000000002776e-02,3.125000000000001665e-01,1.875000000000001110e-01,-3.125000000000001665e-01,-3.125000000000001665e-01,2.500000000000001110e-01,2.500000000000001110e-01,-6.250000000000002776e-02,-6.250000000000002776e-02,0.000000000000000000e+00,6.250000000000002776e-02,1.875000000000000833e-01,1.250000000000000555e-01,-1.875000000000001110e-01,-3.125000000000001665e-01,-6.250000000000002776e-02,6.250000000000002776e-02,-6.250000000000002776e-02,6.250000000000002776e-02,1.875000000000000833e-01,-6.250000000000002776e-02,-6.250000000000002776e-02,1.875000000000000833e-01,6.250000000000002776e-02,6.250000000000005551e-02,3.125000000000002220e-01,-1.875000000000001110e-01,-6.875000000000004441e-01,0.000000000000000000e+00,4.375000000000002220e-01,-1.250000000000000555e-01,-2.500000000000001110e-01,2.500000000000001110e-01,3.750000000000001665e-01,1.250000000000000555e-01,-6.250000000000002776e-02,1.387778780781445676e-17,5.625000000000002220e-01,3.000000000000000888e+00,6.812500000000002665e+00,6.187500000000002665e+00,1.812500000000000888e+00,3.312500000000001776e+00,1.300000000000000711e+01,1.431250000000000711e+01,-1.043750000000000355e+01,-3.056250000000001421e+01,-6.562500000000003553e+00,1.881250000000000711e+01,1.750000000000000000e+00,-8.937500000000003553e+00,4.625000000000001776e+00,-3.375000000000001776e+00,-8.437500000000003553e+00,1.056250000000000355e+01,8.312500000000003553e+00,-3.750000000000000888e+00,-1.625000000000000444e+00,-6.250000000000088818e-02,-1.250000000000009159e-01,-5.312500000000001776e+00,6.250000000000008882e-01,1.656250000000000711e+01,-1.500000000000001776e+00,-2.568750000000001066e+01,-4.625000000000001776e+00,1.800000000000000711e+01,2.062500000000000000e+00,-1.168750000000000711e+01,5.624999999999991118e-01,1.587500000000000533e+01,1.068750000000000355e+01,-1.181250000000000533e+01,-1.225000000000000533e+01,7.000000000000003553e+00,4.250000000000001776e+00,-1.343750000000000711e+01,-1.681250000000000711e+01,1.062500000000000000e+00,1.693750000000000711e+01,8.937500000000003553e+00,-2.187500000000000444e+00,-4.750000000000001776e+00,-4.500000000000002665e+00,2.937500000000000888e+00,3.375000000000001776e+00,-1.125000000000000222e+00,4.812500000000002665e+00,6.187500000000002665e+00,-7.500000000000003553e+00,-1.550000000000000711e+01,-8.124999999999991118e-01,1.050000000000000533e+01,7.500000000000003553e+00,1.500000000000000888e+00,-9.937500000000003553e+00,-6.312500000000002665e+00,5.687500000000002665e+00,3.625000000000001776e+00,3.125000000000001332e+00,1.750000000000000666e+00,-8.562500000000003553e+00,-1.318750000000000711e+01,-1.125000000000000888e+00,1.081250000000000533e+01,3.812500000000002665e+00,-4.875000000000001776e+00,-4.000000000000001776e+00,-9.375000000000002220e-01,1.562500000000000666e+00,6.875000000000002220e-01,-1.000000000000000444e+00,-4.375000000000002220e-01,-6.250000000000002776e-02,-2.500000000000001110e-01,-6.250000000000002776e-02,1.250000000000000555e-01,6.250000000000002776e-02,-6.250000000000002776e-02,-1.250000000000000555e-01,6.250000000000002776e-02,3.125000000000001665e-01,1.250000000000000833e-01,-3.125000000000001110e-01,-2.500000000000001110e-01,2.500000000000001110e-01,3.125000000000001110e-01,-1.250000000000000833e-01,-3.125000000000001665e-01,-1.250000000000000555e-01,0.000000000000000000e+00,1.875000000000001110e-01,3.750000000000002220e-01,0.000000000000000000e+00,-3.750000000000002220e-01,-1.250000000000000833e-01,1.250000000000000555e-01,6.250000000000002776e-02,0.000000000000000000e+00,-6.250000000000002776e-02,-1.250000000000000555e-01,6.250000000000002776e-02,2.500000000000001110e-01,1.250000000000000555e-01,0.000000000000000000e+00,-1.250000000000000555e-01,-2.500000000000001110e-01,-6.250000000000002776e-02,6.250000000000002776e-02,-6.250000000000002776e-02,6.250000000000002776e-02,2.500000000000001110e-01,6.250000000000002776e-02,-1.250000000000000555e-01,-6.250000000000002776e-02,0.000000000000000000e+00,-3.125000000000001110e-01,-4.062500000000001776e+00,-9.875000000000005329e+00,-5.125000000000002665e+00,8.750000000000003553e+00,1.318750000000000533e+01,3.062500000000000888e+00,-8.625000000000003553e+00,-4.812500000000002665e+00,2.250000000000001332e+00,-5.187500000000001776e+00,-9.562500000000005329e+00,-6.437500000000003553e+00,4.250000000000001776e+00,1.793750000000000711e+01,8.125000000000000000e-01,-2.018750000000000711e+01,2.562500000000003553e+00,2.287500000000001066e+01,-1.875000000000017764e-01,-1.262500000000000711e+01,8.437500000000003553e+00,4.625000000000001776e+00,-1.556250000000000711e+01,-4.125000000000000888e+00,7.750000000000003553e+00,6.187500000000001776e+00,7.687500000000003553e+00,-8.750000000000003553e+00,-1.968750000000000711e+01,4.500000000000000000e+00,1.631250000000000711e+01,-3.750000000000000000e-01,-2.812500000000001776e+00,3.750000000000001776e+00,-2.250000000000000888e+00,-1.750000000000000888e+00,-2.625000000000001776e+00,-6.687500000000003553e+00,1.025000000000000711e+01,1.350000000000000711e+01,-7.437500000000003553e+00,-4.812500000000001776e+00,2.250000000000001776e+00,-1.118750000000000355e+01,-3.875000000000001776e+00,1.812500000000000711e+01,9.062500000000005329e+00,-1.706250000000000711e+01,-1.331250000000000711e+01,1.706250000000000711e+01,2.025000000000000711e+01,-9.875000000000005329e+00,-2.156250000000001066e+01,-3.000000000000000888e+00,5.625000000000002665e+00,3.250000000000000888e+00,1.050000000000000355e+01,1.250000000000000000e-01,-1.256250000000000711e+01,7.562500000000004441e+00,1.443750000000000711e+01,-1.106250000000000711e+01,-2.225000000000001066e+01,-4.500000000000000888e+00,1.256250000000000711e+01,8.312500000000003553e+00,1.812500000000000888e+00,5.250000000000002665e+00,-7.500000000000000000e-01,-2.937500000000000888e+00,9.437500000000003553e+00,0.000000000000000000e+00,-1.400000000000000711e+01,1.875000000000000000e+00,5.187500000000002665e+00,-7.750000000000002665e+00,3.375000000000001776e+00,1.137500000000000533e+01,-2.187500000000000888e+00,-9.562500000000003553e+00,-1.562500000000000444e+00,5.500000000000002665e+00,-1.312500000000000444e+00,8.750000000000000000e-01,8.312500000000003553e+00,-4.687500000000001776e+00,-7.000000000000002665e+00,6.687500000000003553e+00,8.125000000000000000e-01,-1.462500000000000711e+01,-1.181250000000000355e+01,7.187500000000003553e+00,1.612500000000000711e+01,6.937500000000003553e+00,3.687500000000001332e+00,1.000000000000000444e+00,-1.350000000000000355e+01,-4.812500000000000888e+00,1.387500000000000711e+01,-1.750000000000000000e+00,-1.125000000000000355e+01,5.062500000000002665e+00,-1.250000000000000000e+00,-1.181250000000000533e+01,7.125000000000003553e+00,8.875000000000003553e+00,-7.187500000000002665e+00,2.562500000000001776e+00,5.625000000000001776e+00,-5.250000000000003553e+00,5.812500000000001776e+00,9.125000000000003553e+00,-1.062500000000000355e+01,-7.750000000000001776e+00,1.143750000000000533e+01,4.000000000000001776e+00,-6.625000000000002665e+00,-5.000000000000002220e-01,-5.562500000000002665e+00,-1.412500000000000711e+01,-1.375000000000001776e+00,1.387500000000000533e+01,7.812500000000003553e+00,-1.187500000000000444e+00,-2.750000000000001332e+00,-1.437500000000000444e+00,1.125000000000000355e+01,7.812500000000001776e+00,-1.843750000000000711e+01,-1.587500000000000711e+01,1.287500000000000711e+01,1.775000000000001066e+01,-3.187500000000000888e+00,-8.125000000000003553e+00,7.312500000000002665e+00,7.312500000000003553e+00,-4.687500000000001776e+00,-1.075000000000000533e+01,-1.525000000000000711e+01,-9.000000000000003553e+00,1.293750000000000711e+01,2.318750000000001421e+01,3.937500000000002665e+00,-1.025000000000000533e+01,2.000000000000000000e+00,4.937500000000001776e+00,-4.625000000000001776e+00,-4.437500000000001776e+00,-9.562500000000003553e+00,-1.687500000000000711e+01,-3.625000000000000888e+00,1.675000000000001066e+01,2.181250000000001066e+01,5.687500000000001776e+00,-1.368750000000000533e+01,-4.687500000000001776e+00,1.137500000000000533e+01,1.937500000000001776e+00,-8.625000000000003553e+00,-7.687500000000003553e+00,-8.750000000000003553e+00,-3.062500000000000444e+00,1.050000000000000533e+01,1.456250000000000711e+01,6.000000000000002665e+00,-7.875000000000003553e+00,-7.437500000000003553e+00,5.437500000000002665e+00,2.125000000000001332e+00,-9.875000000000005329e+00,-1.093750000000000533e+01,1.812500000000001776e+00,1.643750000000000711e+01,1.050000000000000355e+01,-1.087500000000000355e+01,-1.656250000000000711e+01,5.000000000000000000e-01,6.875000000000003553e+00,-2.062500000000000888e+00,-8.125000000000004441e-01,3.875000000000001776e+00,8.062500000000003553e+00,1.250000000000000711e+01,-1.937500000000000000e+00,-1.843750000000000711e+01,-6.312500000000003553e+00,6.125000000000002665e+00,-1.187500000000000888e+00,-3.500000000000001776e+00,6.000000000000003553e+00,1.475000000000000711e+01,1.687500000000000000e+00,-1.687500000000000711e+01,-4.125000000000000888e+00,8.562500000000003553e+00,3.312500000000001332e+00,-1.250000000000000444e+00,-1.031250000000000355e+01,-7.187500000000002665e+00,7.125000000000002665e+00,1.168750000000000355e+01,8.937500000000003553e+00,-9.812500000000005329e+00,-1.850000000000001066e+01,4.437500000000000888e+00,1.131250000000000355e+01,-3.625000000000001332e+00,-3.687500000000001332e+00,8.500000000000003553e+00,1.162500000000000533e+01,-7.125000000000001776e+00,-1.918750000000000711e+01,4.812500000000003553e+00,2.131250000000001066e+01,-3.250000000000001776e+00,-1.887500000000000711e+01,2.500000000000000000e+00,8.437500000000003553e+00,-7.750000000000003553e+00,2.000000000000000000e+00,1.412500000000000533e+01,-1.312500000000000888e+00,-8.625000000000003553e+00,-3.250000000000000888e+00,-5.500000000000001776e+00,-4.125000000000001776e+00,5.375000000000002665e+00,1.262500000000000711e+01,2.437500000000001776e+00,-1.581250000000000533e+01,-5.000000000000000888e+00,1.462500000000000711e+01,6.875000000000000000e-01,-1.125000000000000533e+01,4.937500000000001776e+00,5.125000000000001776e+00,-5.500000000000003553e+00,7.687500000000003553e+00,7.812500000000004441e+00,-1.368750000000000711e+01,-7.625000000000003553e+00,9.562500000000003553e+00,4.250000000000000888e+00,-2.437500000000000888e+00,-4.625000000000001776e+00,-1.625000000000000888e+00,7.562500000000003553e+00,3.187500000000001776e+00,-4.687500000000001776e+00,-5.625000000000001776e+00,-5.125000000000001776e+00,1.062500000000000444e+00,9.187500000000005329e+00,1.043750000000000533e+01,1.812500000000000888e+00,-9.687500000000003553e+00,-1.706250000000000711e+01,-9.375000000000003553e+00,1.325000000000000711e+01,1.831250000000001066e+01,-1.875000000000000888e+00,-9.312500000000005329e+00,4.250000000000002665e+00,7.000000000000003553e+00,-2.125000000000000888e+00,-1.075000000000000533e+01,-1.218750000000000533e+01,3.187500000000001776e+00,1.381250000000000711e+01,9.687500000000005329e+00,-1.375000000000000444e+00,-1.350000000000000533e+01,-5.000000000000001776e+00,4.312500000000001776e+00,-3.750000000000001110e-01,4.937500000000002665e+00,1.687500000000000888e+00,-9.937500000000003553e+00,2.437500000000001776e+00,1.518750000000000711e+01,2.500000000000000000e-01,-9.312500000000003553e+00,4.375000000000002665e+00,-6.875000000000000000e-01,-1.375000000000000711e+01,6.000000000000003553e+00,1.175000000000000711e+01,-1.268750000000000711e+01,-1.125000000000000711e+01,6.812500000000001776e+00,1.281250000000000355e+01,1.156250000000000355e+01,-3.750000000000001776e+00,-1.237500000000000533e+01,3.187500000000001776e+00,6.125000000000003553e+00,-9.500000000000003553e+00,-5.562500000000002665e+00,6.062500000000002665e+00,-1.750000000000000000e+00,-4.312500000000001776e+00,8.125000000000003331e-01,6.875000000000003331e-01,4.937500000000001776e+00,-1.250000000000000000e+00,-6.750000000000002665e+00,1.056250000000000533e+01,1.006250000000000355e+01,-1.156250000000000711e+01,-8.000000000000003553e+00,1.937500000000000888e+00,1.812500000000000666e+00,1.431250000000000711e+01,1.231250000000000711e+01,-1.625000000000000711e+01,-2.775000000000001066e+01,-6.000000000000000888e+00,1.762500000000000711e+01,1.312500000000000355e+01,2.687500000000001332e+00,7.437500000000003553e+00,2.937500000000000888e+00,-1.118750000000000533e+01,-1.093750000000000533e+01,-5.687500000000001776e+00,-2.125000000000000444e+00,1.243750000000000533e+01,1.043750000000000533e+01,-1.218750000000000533e+01,-3.375000000000001776e+00,1.425000000000000711e+01,-2.125000000000000000e+00,-9.312500000000003553e+00,3.875000000000001776e+00,7.500000000000000000e-01,-1.100000000000000355e+01,-5.937500000000001776e+00,1.637500000000000711e+01,1.650000000000000711e+01,-1.512500000000000711e+01,-1.956250000000000711e+01,3.562500000000002220e+00,7.312500000000003553e+00,2.812500000000001332e+00,3.500000000000001776e+00,5.750000000000002665e+00,5.937500000000002665e+00,-1.150000000000000711e+01,-1.937500000000001066e+01,1.625000000000000000e+00,1.350000000000000711e+01,1.331250000000000711e+01,6.562500000000002665e+00,-1.681250000000000711e+01,-1.943750000000000711e+01,3.750000000000001776e+00,1.293750000000000711e+01,9.562500000000003553e+00,5.625000000000000000e-01,-8.062500000000003553e+00,-5.125000000000001776e+00,4.312500000000001776e+00,1.118750000000000533e+01,2.500000000000000000e-01,-1.312500000000000711e+01,-5.125000000000002665e+00,7.625000000000003553e+00,5.312500000000002665e+00,-6.625000000000003553e+00,-3.687500000000002220e+00,2.937500000000001776e+00,-1.375000000000000444e+00,5.750000000000002665e+00,3.875000000000001776e+00,-1.106250000000000533e+01,2.937500000000001776e+00,1.468750000000000711e+01,-8.687500000000005329e+00,-1.737500000000000711e+01,8.500000000000005329e+00,1.875000000000001066e+01,-3.437500000000000888e+00,-1.037500000000000355e+01,3.687500000000000888e+00,-1.625000000000001776e+00,-1.287500000000000711e+01,-3.000000000000001776e+00,8.062500000000003553e+00,5.562500000000001776e+00,-3.125000000000000000e-01,-2.437500000000000888e+00,3.875000000000001332e+00,1.606250000000000711e+01,1.368750000000000533e+01,-9.937500000000003553e+00,-2.506250000000001421e+01,-2.075000000000001066e+01,-5.375000000000001776e+00,1.662500000000000711e+01,1.825000000000000711e+01,5.187500000000001776e+00,-3.187500000000001776e+00,-1.318750000000000533e+01,-5.875000000000001776e+00,4.312500000000001776e+00,-6.625000000000003553e+00,-3.750000000000000000e-01,1.831250000000000711e+01,1.331250000000000711e+01,-8.125000000000000000e-01,-1.943750000000000711e+01,-2.025000000000000711e+01,2.550000000000001421e+01,4.200000000000002132e+01,-1.250000000000017764e-01,-2.131250000000001066e+01,-1.818750000000000711e+01,-1.237500000000000355e+01,1.350000000000000711e+01,2.762500000000001066e+01,-1.937500000000001776e+00,-2.131250000000000711e+01,1.587500000000000355e+01,3.456250000000001421e+01,-4.437500000000001776e+00,-2.612500000000001421e+01,-1.568750000000000711e+01,-3.125000000000001332e+00,-3.187500000000001332e+00,-1.656250000000000711e+01,-1.012500000000000355e+01,6.437500000000003553e+00,5.312500000000002665e+00,-1.375000000000000888e+00,-4.625000000000001776e+00,-1.812500000000000222e+00,7.625000000000004441e+00,1.025000000000000533e+01,-5.000000000000004441e-01,3.812500000000001776e+00,2.362500000000001066e+01,1.012500000000000533e+01,-2.281250000000000711e+01,-2.218750000000001066e+01,-1.056250000000000355e+01,-1.143750000000000355e+01,2.012500000000001066e+01,5.568750000000002842e+01,1.618750000000000711e+01,-3.656250000000001421e+01,-1.400000000000000178e+01,1.162500000000000711e+01,-3.618750000000002132e+01,-6.587500000000002842e+01,-1.937500000000000000e+00,5.650000000000002842e+01,3.768750000000001421e+01,1.218750000000000355e+01,1.756250000000000711e+01,1.243750000000000711e+01,-1.262500000000000533e+01,-2.856250000000001421e+01,-1.743750000000000711e+01,-2.000000000000001332e+00,-7.625000000000003553e+00,-4.375000000000001776e+00,1.600000000000000711e+01,1.262500000000000711e+01,-6.437500000000002665e+00,-1.956250000000000711e+01,-1.462500000000000533e+01,3.006250000000001421e+01,4.387500000000002132e+01,-1.118750000000000178e+01,-2.956250000000001066e+01,3.750000000000008882e-01,3.312500000000001776e+00,-6.375000000000003553e+00,-2.937500000000001776e+00,1.875000000000001110e-01,-1.875000000000001110e-01,-5.000000000000002220e-01,-5.000000000000001776e+00,-9.250000000000003553e+00,4.562500000000001776e+00,1.900000000000000711e+01,6.000000000000001776e+00,-9.125000000000003553e+00,-6.500000000000002665e+00,-4.312500000000002665e+00,-8.437500000000003553e+00,-1.518750000000000711e+01,-1.768750000000000711e+01,1.356250000000000711e+01,5.625000000000002842e+01,2.893750000000001066e+01,-3.831250000000001421e+01,-4.431250000000001421e+01,-6.937500000000002665e+00,9.750000000000003553e+00,1.175000000000000533e+01,1.700000000000000711e+01,2.031250000000000711e+01,1.693750000000000711e+01,3.187500000000003553e+00,-1.381250000000000711e+01,-1.675000000000000711e+01,-1.012500000000000533e+01,-1.362500000000000533e+01,-2.187500000000000711e+01,-1.250000000000001776e+00,3.993750000000001421e+01,3.600000000000001421e+01,-9.062500000000003553e+00,-3.187500000000001421e+01,-3.018750000000001421e+01,-5.375000000000003553e+00,3.793750000000001421e+01,3.568750000000001421e+01,-8.250000000000003553e+00,-2.206250000000001066e+01,-7.250000000000003553e+00,1.875000000000000833e-01,6.250000000000002776e-02,-6.250000000000002776e-02,6.250000000000002776e-02,-6.250000000000002776e-02,-2.500000000000001110e-01,-1.250000000000000555e-01,6.250000000000002776e-02,2.500000000000001110e-01,1.250000000000000833e-01,-3.125000000000001110e-01,-1.250000000000000555e-01,3.750000000000001665e-01,1.875000000000000833e-01,-2.500000000000001110e-01,-1.875000000000001110e-01,6.250000000000002776e-02,1.250000000000000555e-01,6.250000000000002776e-02,-1.875000000000001110e-01,-3.125000000000001665e-01,0.000000000000000000e+00,3.750000000000001665e-01,3.125000000000001110e-01,-6.250000000000002776e-02,-1.875000000000000833e-01,-6.250000000000002776e-02,6.250000000000002776e-02,6.250000000000002776e-02,-1.875000000000001110e-01,-4.625000000000001776e+00,-1.568750000000000533e+01,-1.318750000000000533e+01,2.624999999999999556e+00,-5.562500000000002665e+00,-3.625000000000000000e+00,3.425000000000001421e+01,2.568750000000001421e+01,-1.956250000000000711e+01,-2.256250000000001066e+01,-8.062500000000003553e+00,3.750000000000002665e+00,2.056250000000001066e+01,1.937500000000000711e+01,-2.875000000000001776e+00,-2.981250000000001066e+01,-2.300000000000000711e+01,2.087500000000001066e+01,2.500000000000001066e+01,-1.306250000000000711e+01,-1.706250000000000711e+01,6.625000000000003553e+00,4.937500000000001776e+00,-5.000000000000002665e+00,5.000000000000002665e+00,4.625000000000003553e+00,-6.312500000000001776e+00,-1.087500000000000711e+01,-1.568750000000001066e+01,1.562500000000000000e+00
1.250000000000000000e+00,3.050000000000000711e+01,-3.200000000000000711e+01,-4.250000000000001776e+00,1.200000000000000355e+01,2.050000000000000355e+01,-3.850000000000000711e+01,2.100000000000000355e+01,1.375000000000000355e+01,-1.850000000000000355e+01,7.500000000000000000e-01,1.525000000000000355e+01,-1.800000000000000355e+01,-8.500000000000001776e+00,4.700000000000001421e+01,-5.400000000000001421e+01,3.100000000000000711e+01,-1.600000000000000355e+01,1.850000000000000355e+01,-3.250000000000000711e+01,2.100000000000000355e+01,1.750000000000000355e+01,-1.725000000000000355e+01,-5.250000000000000888e+00,1.075000000000000178e+01,-8.750000000000001776e+00,-1.000000000000000355e+01,2.100000000000000711e+01,-1.825000000000000355e+01,2.825000000000000711e+01,-3.075000000000000711e+01,1.325000000000000355e+01,6.000000000000001776e+00,-3.750000000000001332e+00,-1.500000000000000355e+01,2.450000000000000711e+01,-2.075000000000000711e+01,2.225000000000000711e+01,-8.500000000000003553e+00,-2.000000000000000355e+01,1.500000000000000355e+01,-5.000000000000001110e-01,1.275000000000000355e+01,-1.975000000000000711e+01,-7.500000000000001776e+00,2.600000000000000711e+01,-1.500000000000000355e+01,1.575000000000000355e+01,-2.400000000000000711e+01,2.175000000000000711e+01,-1.025000000000000178e+01,5.250000000000000888e+00,-4.750000000000000888e+00,-1.200000000000000355e+01,3.750000000000001421e+01,-3.600000000000000711e+01,9.500000000000001776e+00,4.250000000000000888e+00,-1.550000000000000355e+01,1.525000000000000355e+01,1.650000000000000355e+01,-2.700000000000000711e+01,-6.750000000000001776e+00,1.325000000000000355e+01,1.450000000000000355e+01,-8.250000000000003553e+00,-1.300000000000000355e+01,1.350000000000000355e+01,-1.000000000000000000e+00,-1.000000000000000178e+01,9.750000000000001776e+00,-3.000000000000000444e+00,-4.500000000000001776e+00,9.500000000000003553e+00,-1.000000000000000355e+01,-1.400000000000000355e+01,5.275000000000001421e+01,-6.225000000000001421e+01,4.250000000000001421e+01,-1.075000000000000355e+01,-1.950000000000000355e+01,2.525000000000000711e+01,-6.000000000000000888e+00,-1.400000000000000355e+01,9.000000000000001776e+00,2.500000000000000444e+00,-8.000000000000001776e+00,8.750000000000001776e+00,0.000000000000000000e+00,-8.750000000000001776e+00,2.000000000000000888e+00,1.975000000000000355e+01,-1.825000000000000355e+01,0.000000000000000000e+00,1.500000000000000355e+01,-2.500000000000000711e+01,2.500000000000001776e+00,1.275000000000000178e+01,5.750000000000001776e+00,-1.500000000000000355e+01,1.550000000000000355e+01,-9.000000000000001776e+00,7.000000000000001776e+00,-5.000000000000000000e-01,-3.675000000000000711e+01,4.350000000000001421e+01,-2.225000000000000711e+01,1.700000000000000355e+01,-3.050000000000000711e+01,3.525000000000000711e+01,2.275000000000000355e+01,-4.600000000000000711e+01,-3.750000000000001776e+00,1.800000000000000355e+01,-1.075000000000000355e+01,2.500000000000000000e-01,2.550000000000000711e+01,-1.825000000000000355e+01,-1.700000000000000355e+01,1.725000000000000355e+01,1.075000000000000178e+01,-7.500000000000000888e+00,-4.125000000000000711e+01,9.425000000000002842e+01,-6.750000000000001421e+01,-7.000000000000001776e+00,2.325000000000000355e+01,-1.675000000000000355e+01,1.675000000000000355e+01,-3.250000000000000444e+00,-1.300000000000000178e+01,2.625000000000000711e+01,-3.025000000000000711e+01,1.525000000000000355e+01,7.500000000000001776e+00,-1.750000000000000355e+01,1.325000000000000355e+01,-1.000000000000000000e+00,-7.000000000000001776e+00,5.000000000000000000e-01,-6.750000000000000888e+00,1.125000000000000178e+01,-7.750000000000001776e+00,3.125000000000000711e+01,-2.925000000000000711e+01,-2.250000000000000888e+00,1.925000000000000711e+01,-5.750000000000001776e+00,-1.700000000000000355e+01,1.800000000000000355e+01,8.000000000000001776e+00,-1.925000000000000355e+01,7.250000000000001776e+00,3.250000000000000888e+00,-1.050000000000000355e+01,1.625000000000000355e+01,-3.100000000000000711e+01,1.700000000000000355e+01,-3.325000000000000711e+01,4.225000000000000711e+01,-2.000000000000000711e+01,8.500000000000003553e+00,-6.250000000000000888e+00,1.875000000000000355e+01,-8.750000000000001776e+00,-1.300000000000000355e+01,1.525000000000000355e+01,3.000000000000000444e+00,-3.100000000000000711e+01,1.025000000000000355e+01,-1.000000000000000000e+00,1.550000000000000355e+01,5.250000000000000888e+00,-7.000000000000001776e+00,1.000000000000000444e+00,1.200000000000000178e+01,-1.200000000000000178e+01,-1.975000000000000355e+01,2.975000000000000711e+01,-4.000000000000000888e+00,-1.975000000000000355e+01,1.500000000000000355e+01,1.000000000000000222e+00,-7.500000000000001776e+00,2.125000000000000711e+01,-2.025000000000000711e+01,-3.500000000000000000e+00,5.000000000000000000e-01,1.300000000000000355e+01,5.500000000000000888e+00,-1.725000000000000355e+01,1.950000000000000355e+01,-2.225000000000000355e+01,2.375000000000000711e+01,-4.750000000000001776e+00,5.000000000000000000e-01,-1.225000000000000355e+01,-9.500000000000003553e+00,2.900000000000000711e+01,-1.750000000000000355e+01,6.750000000000001776e+00,-9.750000000000001776e+00,-1.050000000000000355e+01,2.000000000000000000e+00,1.825000000000000355e+01,-1.375000000000000355e+01,9.500000000000001776e+00,3.500000000000000888e+00,3.450000000000000711e+01,-3.000000000000000711e+01,-1.625000000000000355e+01,2.500000000000000711e+01,-2.050000000000000355e+01,2.575000000000000355e+01,-3.800000000000000711e+01,3.575000000000000711e+01,-1.050000000000000178e+01,-1.900000000000000355e+01,5.000000000000000888e+00,2.000000000000000355e+01,-6.750000000000001776e+00,-2.500000000000000000e-01,-2.800000000000000711e+01,3.500000000000000711e+01,-1.275000000000000355e+01,-2.775000000000000711e+01,4.075000000000001421e+01,-4.175000000000001421e+01,4.425000000000001421e+01,-3.250000000000000711e+01,1.225000000000000355e+01,-1.625000000000000355e+01,1.625000000000000355e+01,3.250000000000000888e+00,-9.000000000000001776e+00,7.000000000000001776e+00,1.200000000000000355e+01,-2.925000000000000711e+01,3.450000000000000711e+01,-4.100000000000000711e+01,2.375000000000000355e+01,8.750000000000001776e+00,-2.600000000000000711e+01,2.700000000000000711e+01,-2.550000000000000711e+01,2.350000000000000711e+01,-2.575000000000000711e+01,4.250000000000000000e+00,1.675000000000000355e+01,-1.600000000000000355e+01,8.250000000000003553e+00,-5.750000000000000888e+00,1.075000000000000178e+01,-7.500000000000002220e-01,2.500000000000000555e-01,0.000000000000000000e+00,0.000000000000000000e+00,0.000000000000000000e+00,2.500000000000000555e-01,2.500000000000000555e-01,-7.500000000000002220e-01,7.500000000000002220e-01,-5.000000000000001110e-01,5.000000000000001110e-01,0.000000000000000000e+00,-1.000000000000000222e+00,1.250000000000000444e+00,-7.500000000000002220e-01,5.000000000000001110e-01,-5.000000000000001110e-01,5.000000000000001110e-01,-5.000000000000001110e-01,5.000000000000001110e-01,-2.500000000000000555e-01,2.500000000000000555e-01,-5.000000000000001110e-01,2.500000000000000555e-01,0.000000000000000000e+00,0.000000000000000000e+00,-2.500000000000000555e-01,5.000000000000001110e-01,-2.500000000000000555e-01,-2.500000000000000555e-01,5.000000000000001110e-01,-2.500000000000000555e-01,0.000000000000000000e+00,0.000000000000000000e+00,7.500000000000002220e-01,-1.500000000000000444e+00,7.500000000000002220e-01,2.500000000000000555e-01,-2.500000000000000555e-01,-2.500000000000000555e-01,2.500000000000000555e-01,2.500000000000000555e-01,-2.500000000000000555e-01,2.500000000000000555e-01,-2.500000000000000555e-01,0.000000000000000000e+00,7.500000000000002220e-01,0.000000000000000000e+00,7.750000000000001776e+00,-6.750000000000001776e+00,4.500000000000001776e+00,-1.250000000000000888e+00,1.050000000000000355e+01,6.250000000000000000e+00,-3.025000000000000711e+01,1.000000000000000000e+00,1.975000000000000711e+01,3.500000000000000000e+00,-3.100000000000000711e+01,3.000000000000000711e+01,-3.500000000000001776e+00,-2.700000000000000711e+01,2.650000000000000711e+01,6.250000000000001776e+00,-3.025000000000000711e+01,3.775000000000001421e+01,-3.600000000000000711e+01,2.575000000000000711e+01,-8.000000000000001776e+00,-1.675000000000000355e+01,2.675000000000000711e+01,2.250000000000000000e+00,-2.825000000000000711e+01,3.250000000000000000e+00,1.800000000000000355e+01,7.500000000000017764e-01,-2.375000000000000711e+01,2.350000000000000711e+01,-1.925000000000000711e+01,3.250000000000000711e+01,-2.125000000000000711e+01,-1.375000000000000355e+01,2.450000000000000711e+01,-1.200000000000000355e+01,5.250000000000001776e+00,-1.625000000000000355e+01,3.250000000000000888e+00,8.250000000000001776e+00,1.150000000000000355e+01,-2.450000000000000711e+01,2.850000000000000711e+01,-3.000000000000000711e+01,1.650000000000000355e+01,6.500000000000000888e+00,-2.175000000000000355e+01,2.550000000000000711e+01,-1.850000000000000355e+01,2.075000000000000355e+01,-2.750000000000000711e+01,4.000000000000000888e+00,2.250000000000000355e+01,-2.800000000000000711e+01,3.050000000000000711e+01,-1.800000000000000355e+01,-1.550000000000000355e+01,3.625000000000000711e+01,-3.575000000000000711e+01,2.825000000000000711e+01,-1.350000000000000355e+01,3.750000000000000888e+00,-4.250000000000000888e+00,-1.400000000000000355e+01,2.725000000000000711e+01,-1.625000000000000355e+01,5.000000000000000888e+00,-2.250000000000000444e+00,-2.750000000000000444e+00,4.750000000000000888e+00,-2.250000000000000444e+00,0.000000000000000000e+00,0.000000000000000000e+00,2.500000000000000555e-01,-5.000000000000001110e-01,2.500000000000000555e-01,0.000000000000000000e+00,0.000000000000000000e+00,0.000000000000000000e+00,0.000000000000000000e+00,-2.500000000000000555e-01,5.000000000000001110e-01,-2.500000000000000555e-01,2.500000000000000555e-01,-7.500000000000002220e-01,7.500000000000002220e-01,-2.500000000000000555e-01,2.500000000000000555e-01,-5.000000000000001110e-01,2.500000000000000555e-01,0.000000000000000000e+00,-2.500000000000000555e-01,5.000000000000001110e-01,0.000000000000000000e+00,-5.000000000000001110e-01,2.500000000000000555e-01,0.000000000000000000e+00,0.000000000000000000e+00,0.000000000000000000e+00,0.000000000000000000e+00,0.000000000000000000e+00,-2.500000000000000555e-01,5.000000000000001110e-01,-2.500000000000000555e-01,0.000000000000000000e+00,2.500000000000000555e-01,-5.000000000000001110e-01,2.500000000000000555e-01,0.000000000000000000e+00,0.000000000000000000e+00,-2.500000000000000555e-01,5.000000000000001110e-01,-2.500000000000000555e-01,0.000000000000000000e+00,0.000000000000000000e+00,0.000000000000000000e+00,0.000000000000000000e+00,0.000000000000000000e+00,-1.250000000000000222e+00,-1.125000000000000355e+01,1.300000000000000355e+01,0.000000000000000000e+00,3.250000000000000888e+00,-1.000000000000000444e+00,-1.625000000000000355e+01,2.350000000000000711e+01,-1.500000000000000355e+01,-6.000000000000000888e+00,1.550000000000000355e+01,-2.775000000000000355e+01,3.125000000000000711e+01,2.500000000000000000e+00,-3.025000000000000711e+01,1.200000000000000178e+01,1.150000000000000355e+01,1.075000000000000355e+01,-3.825000000000000711e+01,2.975000000000000711e+01,5.500000000000000000e+00,-2.450000000000000711e+01,2.750000000000001776e+00,2.200000000000000355e+01,-2.850000000000000711e+01,2.650000000000000711e+01,-1.000000000000000000e+00,-3.225000000000000711e+01,2.250000000000000355e+01,2.250000000000000444e+00,4.000000000000000888e+00,-2.200000000000000355e+01,3.100000000000000711e+01,-2.150000000000000711e+01,-1.000000000000000000e+00,2.200000000000000711e+01,-3.400000000000000711e+01,1.900000000000000355e+01,1.425000000000000355e+01,-1.600000000000000355e+01,-9.500000000000003553e+00,2.825000000000000711e+01,-2.550000000000000711e+01,-4.500000000000001776e+00,2.275000000000000711e+01,-5.750000000000001776e+00,2.500000000000000444e+00,-2.575000000000000355e+01,2.000000000000000355e+01,1.700000000000000355e+01,-1.925000000000000355e+01,1.750000000000000222e+00,-1.900000000000000355e+01,3.925000000000000711e+01,-4.275000000000000711e+01,3.225000000000000711e+01,2.500000000000000000e+00,-2.975000000000000711e+01,1.825000000000000355e+01,1.300000000000000355e+01,-1.475000000000000355e+01,-4.500000000000001776e+00,-8.000000000000001776e+00,1.600000000000000355e+01,-1.250000000000000444e+00,-4.250000000000000888e+00,1.750000000000000444e+00,1.475000000000000355e+01,-3.025000000000000711e+01,2.675000000000000711e+01,2.000000000000000000e+00,-2.450000000000000711e+01,9.250000000000003553e+00,1.925000000000000355e+01,-2.900000000000000711e+01,8.750000000000003553e+00,2.175000000000000355e+01,-2.925000000000000711e+01,2.600000000000000711e+01,-3.300000000000000711e+01,3.300000000000000711e+01,-1.500000000000000355e+01,-1.000000000000000178e+01,2.575000000000000711e+01,-1.250000000000000355e+01,-1.625000000000000355e+01,2.825000000000000711e+01,-1.925000000000000355e+01,1.175000000000000355e+01,-2.500000000000000711e+01,1.975000000000000355e+01,-4.000000000000000888e+00,1.450000000000000355e+01,-2.350000000000000711e+01,3.100000000000000711e+01,-2.225000000000000355e+01,-1.350000000000000355e+01,3.300000000000000711e+01,-1.225000000000000355e+01,-1.725000000000000355e+01,1.700000000000000355e+01,6.500000000000000888e+00,-2.650000000000000711e+01,1.125000000000000355e+01,2.375000000000000355e+01,-3.450000000000000711e+01,1.250000000000000355e+01,2.200000000000000355e+01,-3.850000000000000711e+01,2.900000000000000711e+01,-6.500000000000001776e+00,7.250000000000001776e+00,-3.100000000000000711e+01,3.500000000000000711e+01,-7.500000000000001776e+00,-1.750000000000000355e+01,2.200000000000000355e+01,-1.450000000000000355e+01,1.500000000000000444e+00,-1.175000000000000355e+01,1.750000000000000355e+01,3.500000000000000888e+00,-1.800000000000000355e+01,2.400000000000000711e+01,-2.425000000000000711e+01,1.050000000000000178e+01,1.975000000000000355e+01,-2.400000000000000355e+01,-9.000000000000003553e+00,1.675000000000000355e+01,-2.500000000000000000e-01,1.200000000000000355e+01,-3.350000000000000711e+01,3.350000000000000711e+01,-1.325000000000000355e+01,3.250000000000000888e+00,-4.750000000000000888e+00,2.500000000000000555e-01,-1.525000000000000355e+01,1.425000000000000355e+01,2.250000000000000444e+00,1.800000000000000355e+01,-3.450000000000000711e+01,2.250000000000000711e+01,1.750000000000000000e+00,-1.400000000000000355e+01,9.750000000000001776e+00,-3.000000000000000444e+00,-1.000000000000000178e+01,-5.250000000000001776e+00,1.575000000000000355e+01,-3.000000000000000888e+00,1.550000000000000355e+01,-1.450000000000000355e+01,-1.600000000000000355e+01,3.725000000000000711e+01,-2.925000000000000711e+01,1.750000000000000355e+01,-1.975000000000000355e+01,1.925000000000000355e+01,-3.000000000000000711e+01,3.100000000000000711e+01,-1.350000000000000355e+01,1.075000000000000355e+01,2.250000000000000000e+00,-2.650000000000000711e+01,3.150000000000000711e+01,-1.650000000000000355e+01,2.500000000000000888e+00,-2.000000000000000444e+00,-1.200000000000000355e+01,2.275000000000000711e+01,-6.250000000000000888e+00,4.250000000000000888e+00,-1.650000000000000355e+01,-7.500000000000000000e-01,2.500000000000000711e+01,-3.175000000000000711e+01,2.400000000000000711e+01,-1.300000000000000355e+01,6.750000000000000888e+00,2.250000000000000888e+00,1.075000000000000355e+01,-2.050000000000000711e+01,-6.000000000000001776e+00,2.800000000000000711e+01,-3.000000000000000711e+01,2.100000000000000711e+01,-1.475000000000000355e+01,1.100000000000000355e+01,1.450000000000000355e+01,-2.700000000000000711e+01,-1.500000000000000000e+00,3.150000000000000711e+01,-4.000000000000000711e+01,3.825000000000000711e+01,-2.425000000000000355e+01,-9.000000000000003553e+00,2.725000000000000711e+01,-2.500000000000000711e+01,2.525000000000000711e+01,-4.250000000000001776e+00,-2.600000000000000711e+01,1.425000000000000355e+01,1.675000000000000355e+01,-2.650000000000000711e+01,1.975000000000000711e+01,-1.575000000000000355e+01,1.900000000000000355e+01,0.000000000000000000e+00,-2.425000000000000711e+01,8.250000000000003553e+00,1.675000000000000355e+01,-2.500000000000000000e-01,-2.300000000000000711e+01,5.250000000000001776e+00,2.575000000000000711e+01,-3.225000000000000711e+01,1.025000000000000355e+01,1.325000000000000355e+01,-3.250000000000000000e+00,-1.875000000000000711e+01,2.600000000000000711e+01,-2.625000000000000711e+01,1.425000000000000355e+01,-6.750000000000001776e+00,4.000000000000000888e+00,1.525000000000000355e+01,-2.175000000000000711e+01,-4.000000000000000000e+00,1.825000000000000355e+01,2.750000000000000000e+00,-2.425000000000000711e+01,1.425000000000000355e+01,1.425000000000000355e+01,-2.850000000000000711e+01,1.625000000000000355e+01,1.275000000000000355e+01,-1.800000000000000355e+01,-9.750000000000003553e+00,2.500000000000000711e+01,-1.275000000000000178e+01,-3.750000000000000888e+00,1.825000000000000355e+01,-3.425000000000000711e+01,3.675000000000000711e+01,-1.725000000000000355e+01,-2.500000000000000888e+00,1.350000000000000355e+01,-2.550000000000000711e+01,2.575000000000000711e+01,-2.200000000000000711e+01,2.625000000000000711e+01,-1.375000000000000355e+01,1.500000000000000444e+00,7.500000000000000000e-01,-2.200000000000000355e+01,2.300000000000000355e+01,-2.000000000000000444e+00,1.025000000000000355e+01,-2.575000000000000711e+01,1.900000000000000355e+01,2.250000000000000888e+00,-1.325000000000000355e+01,1.725000000000000355e+01,-2.600000000000000711e+01,8.250000000000001776e+00,1.850000000000000711e+01,-2.400000000000000711e+01,3.325000000000000711e+01,-3.250000000000000711e+01,2.500000000000000000e+00,2.200000000000000711e+01,-2.625000000000000711e+01,1.275000000000000355e+01,1.450000000000000355e+01,-3.175000000000000711e+01,2.200000000000000355e+01,-8.000000000000001776e+00,2.225000000000000355e+01,-3.650000000000000711e+01,2.350000000000000711e+01,6.750000000000001776e+00,-2.675000000000000711e+01,6.250000000000001776e+00,3.000000000000000711e+01,-3.325000000000000711e+01,1.750000000000000000e+00,1.550000000000000355e+01,-1.450000000000000355e+01,1.850000000000000355e+01,5.000000000000000000e-01,-2.425000000000000711e+01,1.950000000000000711e+01,-2.500000000000000888e+00,2.250000000000000000e+00,-2.325000000000000355e+01,3.200000000000000711e+01,-1.725000000000000355e+01,-8.000000000000001776e+00,2.375000000000000711e+01,-2.725000000000000711e+01,1.900000000000000355e+01,3.250000000000000888e+00,-2.200000000000000711e+01,1.475000000000000355e+01,1.400000000000000355e+01,-1.750000000000000355e+01,-1.075000000000000355e+01,3.100000000000000711e+01,-3.550000000000000711e+01,2.425000000000000711e+01,1.000000000000000178e+01,-1.725000000000000355e+01,-3.250000000000000888e+00,-1.275000000000000355e+01,1.850000000000000355e+01,8.750000000000001776e+00,-2.125000000000000355e+01,2.375000000000000711e+01,-1.025000000000000355e+01,4.500000000000001776e+00,-1.850000000000000355e+01,1.950000000000000355e+01,-1.850000000000000355e+01,3.750000000000000000e+00,2.800000000000000711e+01,-3.025000000000000711e+01,-1.750000000000000000e+00,2.400000000000000711e+01,-6.000000000000001776e+00,-2.575000000000000711e+01,3.625000000000000711e+01,-2.775000000000000711e+01,1.800000000000000355e+01,-2.175000000000000711e+01,9.750000000000003553e+00,2.350000000000000355e+01,-1.800000000000000355e+01,-2.025000000000000355e+01,2.475000000000000711e+01,-7.250000000000001776e+00,-6.250000000000001776e+00,1.900000000000000355e+01,-2.300000000000000355e+01,2.425000000000000711e+01,-5.750000000000001776e+00,-2.575000000000000711e+01,1.750000000000000355e+01,5.750000000000000888e+00,-1.275000000000000355e+01,2.625000000000000711e+01,-1.575000000000000355e+01,-2.300000000000000355e+01,2.700000000000000711e+01,-1.100000000000000355e+01,4.750000000000000888e+00,1.375000000000000355e+01,-2.825000000000000711e+01,2.475000000000000711e+01,-2.150000000000000355e+01,1.625000000000000355e+01,1.050000000000000355e+01,-3.350000000000000711e+01,2.850000000000000711e+01,-2.375000000000000711e+01,2.700000000000000711e+01,-1.550000000000000355e+01,-1.225000000000000355e+01,3.125000000000000711e+01,-3.125000000000000711e+01,1.375000000000000355e+01,1.425000000000000355e+01,-2.275000000000000711e+01,-2.750000000000000000e+00,3.250000000000000711e+01,-2.500000000000000355e+01,-2.500000000000000888e+00,-2.000000000000000000e+00,2.100000000000000711e+01,-3.000000000000001776e+00,-2.850000000000000711e+01,3.625000000000000711e+01,-2.450000000000000711e+01,1.225000000000000355e+01,-2.500000000000000355e+01,3.675000000000000711e+01,-3.350000000000000711e+01,3.350000000000000711e+01,-3.275000000000000711e+01,2.600000000000000711e+01,-1.775000000000000355e+01,2.800000000000000711e+01,-1.250000000000000178e+01,-1.825000000000000355e+01,1.400000000000000355e+01,-2.475000000000000355e+01,1.750000000000000355e+01,1.925000000000000355e+01,-3.050000000000000711e+01,3.425000000000000711e+01,-2.775000000000000711e+01,-4.500000000000001776e+00,2.525000000000000711e+01,-2.075000000000000711e+01,-5.500000000000001776e+00,2.350000000000000711e+01,-4.750000000000000888e+00,-6.000000000000000888e+00,1.725000000000000355e+01,-4.075000000000001421e+01,1.050000000000000355e+01,5.850000000000001421e+01,-4.925000000000000711e+01,1.275000000000000355e+01,-5.000000000000000000e-01,-2.125000000000000711e+01,1.350000000000000355e+01,1.325000000000000355e+01,5.500000000000000000e+00,-2.375000000000000355e+01,-1.225000000000000355e+01,7.100000000000001421e+01,-5.750000000000001421e+01,1.500000000000000355e+01,-4.500000000000000000e+00,-1.750000000000000355e+01,3.175000000000000711e+01,-3.150000000000000711e+01,-2.750000000000001776e+00,2.425000000000000711e+01,-2.675000000000000711e+01,2.975000000000000711e+01,-3.150000000000000711e+01,2.475000000000000711e+01,-2.075000000000000711e+01,2.350000000000000711e+01,-6.500000000000000888e+00,-1.575000000000000355e+01,2.675000000000000711e+01,5.250000000000000000e+00,-1.750000000000000355e+01,-1.225000000000000178e+01,1.500000000000000355e+01,-1.050000000000000355e+01,-2.375000000000000711e+01,6.450000000000001421e+01,-8.000000000000000000e+00,-2.675000000000000711e+01,-1.450000000000000355e+01,3.975000000000001421e+01,-1.300000000000000355e+01,-5.525000000000001421e+01,9.750000000000000000e+00,4.125000000000000711e+01,2.750000000000000000e+00,-1.625000000000000355e+01,2.450000000000000355e+01,-4.000000000000000000e+00,1.500000000000000000e+00,-1.400000000000000355e+01,-1.200000000000000178e+01,1.575000000000000355e+01,-6.250000000000001776e+00,-1.550000000000000355e+01,1.800000000000000355e+01,1.275000000000000355e+01,-2.675000000000000711e+01,2.450000000000000711e+01,-3.225000000000000711e+01,-2.000000000000000000e+00,7.175000000000001421e+01,-5.025000000000001421e+01,-1.375000000000000355e+01,2.675000000000000711e+01,-1.350000000000000355e+01,2.500000000000000555e-01,0.000000000000000000e+00,2.500000000000000555e-01,-2.500000000000000555e-01,0.000000000000000000e+00,-2.500000000000000555e-01,-2.500000000000000555e-01,-1.725000000000000355e+01,3.450000000000000711e+01,-1.500000000000000355e+01,-1.750000000000000444e+00,2.500000000000000555e-01,-1.500000000000000222e+00,5.000000000000000000e-01,-9.500000000000001776e+00,7.000000000000000888e+00,-3.225000000000000711e+01,5.375000000000001421e+01,1.425000000000000355e+01,-3.250000000000000711e+01,-2.250000000000000355e+01,2.100000000000000355e+01,-1.050000000000000355e+01,1.075000000000000355e+01,-2.500000000000000888e+00,1.350000000000000355e+01,-3.500000000000000000e+00,1.350000000000000178e+01,-1.675000000000000355e+01,-7.500000000000004441e-01,-2.250000000000000444e+00,0.000000000000000000e+00,-7.250000000000001776e+00,-1.575000000000000178e+01,2.125000000000000355e+01,3.350000000000000711e+01,-3.150000000000000711e+01,-2.500000000000000555e-01,-1.500000000000000444e+00,-2.750000000000000711e+01,3.075000000000000711e+01,2.675000000000000711e+01,-2.825000000000000711e+01,-2.500000000000000555e-01,-2.500000000000000555e-01,5.000000000000001110e-01,-2.500000000000000555e-01,0.000000000000000000e+00,0.000000000000000000e+00,2.500000000000000555e-01,-5.000000000000001110e-01,2.500000000000000555e-01,0.000000000000000000e+00,-2.500000000000000555e-01,7.500000000000002220e-01,-7.500000000000002220e-01,0.000000000000000000e+00,5.000000000000001110e-01,-2.500000000000000555e-01,2.500000000000000555e-01,-7.500000000000002220e-01,1.000000000000000222e+00,-1.000000000000000222e+00,1.000000000000000222e+00,-7.500000000000002220e-01,2.500000000000000555e-01,-2.500000000000000555e-01,2.500000000000000555e-01,2.500000000000000555e-01,-2.500000000000000555e-01,0.000000000000000000e+00,0.000000000000000000e+00,0.000000000000000000e+00,0.000000000000000000e+00,2.500000000000000555e-01,-7.500000000000002220e-01,7.500000000000002220e-01,-1.800000000000000355e+01,7.500000000000001776e+00,2.300000000000000711e+01,-5.525000000000001421e+01,4.875000000000000711e+01,2.250000000000000711e+01,-4.750000000000001421e+01,1.800000000000000355e+01,-4.000000000000000888e+00,-1.475000000000000355e+01,2.625000000000000711e+01,-3.500000000000000888e+00,1.750000000000000000e+00,1.250000000000000888e+00,-3.925000000000000711e+01,2.675000000000000711e+01,2.975000000000000711e+01,-4.025000000000000711e+01,1.475000000000000355e+01,-1.550000000000000355e+01,3.650000000000000711e+01,-4.525000000000001421e+01,2.900000000000000711e+01,5.000000000000001776e+00,-2.950000000000000711e+01,3.575000000000000711e+01,-4.025000000000001421e+01,1.600000000000000711e+01
