-1.533198750000001098e+02,-1.494448750000001098e+02,-1.461167500000001098e+02,-1.422573750000001098e+02,-1.391323750000001098e+02,-1.361167500000001098e+02,-1.324605000000001098e+02,-1.289292500000001098e+02,-1.233198750000001098e+02,-1.184761250000001098e+02,-1.116792500000001098e+02,-1.035386250000001098e+02,-9.397612500000009561e+01,-8.477300000000008140e+01,-7.625737500000006719e+01,-6.892925000000006719e+01,-6.410112500000006719e+01,-5.975737500000006719e+01,-5.685112500000006719e+01,-5.756987500000006719e+01,-6.053862500000006719e+01,-6.638237500000006719e+01,-7.356987500000006719e+01,-8.088237500000008140e+01,-8.971050000000008140e+01,-9.856987500000010982e+01,-1.096011250000001098e+02,-1.195230000000001098e+02,-1.297105000000001098e+02,-1.385542500000001098e+02,-1.477105000000001098e+02,-1.572573750000001098e+02,-1.655073750000001098e+02,-1.736792500000001098e+02,-1.794917500000001382e+02,-1.839292500000001382e+02,-1.867261250000001382e+02,-1.878355000000001382e+02,-1.858198750000001382e+02,-1.823980000000001382e+02,-1.775698750000001098e+02,-1.715698750000001098e+02,-1.643667500000001098e+02,-1.566792500000001098e+02,-1.487261250000001098e+02,-1.404292500000001098e+02,-1.326323750000001098e+02,-1.231323750000001098e+02,-1.130542500000001098e+02,-1.040386250000001098e+02,-9.531987500000010982e+01,-8.800737500000008140e+01,-8.031987500000006719e+01,-7.183550000000006719e+01,-6.467925000000006719e+01,-5.985112500000006719e+01,-5.635112500000006719e+01,-5.111675000000006719e+01,-4.652300000000005298e+01,-4.117925000000005298e+01,-3.675737500000004587e+01,-3.386675000000004587e+01,-3.078862500000004587e+01,-2.738237500000004587e+01,-2.355425000000004232e+01,-2.180425000000003877e+01,-2.003862500000003521e+01,-1.894487500000003521e+01,-1.902300000000003521e+01,-1.947612500000003521e+01,-1.942925000000003521e+01,-1.913237500000003521e+01,-1.980425000000003521e+01,-2.075737500000003877e+01,-2.328862500000004232e+01,-2.583550000000004587e+01,-2.764800000000004587e+01,-3.096050000000004587e+01,-3.533550000000004587e+01,-4.131987500000005298e+01,-4.777300000000006719e+01,-5.275737500000006719e+01,-5.666362500000006719e+01,-5.963237500000006719e+01,-6.249175000000006719e+01,-6.216362500000006719e+01,-6.103862500000006719e+01,-5.696050000000006719e+01,-5.111675000000006719e+01,-4.524175000000005298e+01,-3.763237500000004587e+01,-3.092925000000004587e+01,-2.283550000000003877e+01,-1.567925000000003344e+01,-8.507375000000029885e+00,-3.460500000000027221e+00,1.617624999999976110e+00,5.867624999999978996e+00,7.851999999999979885e+00,1.088324999999998255e+01,1.344574999999998610e+01,1.477387499999998610e+01,1.714887499999998610e+01,2.089887499999998965e+01,2.271137499999998965e+01,2.460199999999999321e+01,2.739887499999999676e+01,2.830512499999999676e+01,2.739887499999999676e+01,2.747699999999999676e+01,2.591449999999999676e+01,2.264887499999998965e+01,2.000824999999998965e+01,1.644574999999998610e+01,1.188324999999998255e+01,9.023874999999982549e+00,6.586374999999978996e+00,3.523874999999977220e+00,-3.355000000000250004e-01,-3.319875000000027221e+00,-4.960500000000028109e+00,-5.882375000000028109e+00,-4.898000000000028109e+00,-4.851125000000028109e+00,-2.866750000000026333e+00,-1.007375000000025445e+00,3.461374999999977220e+00,8.070749999999980773e+00,1.113324999999998255e+01,1.566449999999998610e+01,1.971137499999998965e+01,2.419574999999998965e+01,2.802387499999999676e+01,3.294574999999999676e+01,3.568012499999999676e+01,3.777387499999999676e+01,4.130512499999999676e+01,4.438325000000000387e+01,4.672700000000000387e+01,4.872700000000001808e+01,4.996137500000001808e+01,4.991450000000001808e+01,5.152387500000001808e+01,5.469575000000001808e+01,5.664887500000001808e+01,5.758637500000001808e+01,5.824262500000001808e+01,5.960200000000001808e+01,6.078950000000001808e+01,6.422700000000001808e+01,6.702387500000001808e+01,6.936762500000001808e+01,7.349262500000001808e+01,7.763325000000001808e+01,8.314887500000003229e+01,8.885200000000003229e+01,9.597700000000004650e+01,1.009145000000000607e+02,1.063676250000000607e+02,1.106801250000000607e+02,1.140707500000000607e+02,1.191801250000000607e+02,1.248676250000000607e+02,1.307426250000000607e+02,1.362113750000000607e+02,1.428363750000000607e+02,1.487113750000000607e+02,1.562113750000000607e+02,1.644301250000000607e+02,1.710707500000000607e+02,1.751332500000000607e+02,1.771645000000000607e+02,1.768676250000000607e+02,1.748676250000000607e+02,1.716176250000000607e+02,1.664457500000000607e+02,1.583051250000000607e+02,1.489770000000000607e+02,1.401488750000000607e+02,1.329613750000000607e+02,1.267113750000000607e+02,1.219926250000000607e+02,1.196020000000000607e+02,1.169145000000000607e+02,1.164457500000000607e+02,1.185707500000000607e+02,1.207738750000000607e+02,1.218988750000000607e+02,1.248363750000000607e+02,1.272113750000000607e+02,1.277113750000000607e+02,1.286957500000000607e+02,1.267113750000000607e+02,1.214770000000000607e+02,1.146957500000000607e+02,1.078051250000000607e+02,9.835200000000006071e+01,8.735200000000003229e+01,7.716450000000003229e+01,6.768012500000001808e+01,6.144575000000001808e+01,5.825825000000001808e+01,5.822700000000001808e+01,5.888325000000001808e+01,6.185200000000001808e+01,6.780512500000001808e+01,7.307075000000001808e+01,7.789887500000001808e+01,8.357075000000001808e+01,8.803950000000003229e+01,9.172700000000003229e+01,9.521137500000006071e+01,9.705512500000006071e+01,9.719575000000006071e+01,9.782075000000006071e+01,9.900825000000006071e+01,9.791450000000006071e+01,9.535200000000004650e+01,9.175825000000003229e+01,8.949262500000001808e+01,8.794575000000001808e+01,8.600825000000001808e+01,8.497700000000001808e+01,8.397700000000001808e+01,8.307075000000001808e+01,8.446137500000001808e+01,8.621137500000001808e+01,8.661762500000001808e+01,8.658637500000001808e+01,8.818012500000001808e+01,8.797700000000001808e+01,8.730512500000001808e+01,8.835200000000001808e+01,8.833637500000001808e+01,8.838325000000001808e+01,8.891450000000001808e+01,9.021137500000001808e+01,8.994575000000001808e+01,9.141450000000001808e+01,9.219575000000001808e+01,9.152387500000001808e+01,9.172700000000001808e+01,9.250825000000003229e+01,9.152387500000003229e+01,9.010200000000003229e+01,8.963325000000003229e+01,8.761762500000001808e+01,8.552387500000001808e+01,8.221137500000001808e+01,7.647700000000001808e+01,6.911762500000001808e+01,6.366450000000001808e+01,5.686762500000001808e+01,4.841450000000001097e+01,4.011762500000000387e+01,3.380512499999999676e+01,2.996137499999999676e+01,2.866449999999999676e+01,2.825824999999999676e+01,2.671137499999999676e+01,2.791449999999999676e+01,3.043012499999999676e+01,3.466449999999999676e+01,3.755512499999999676e+01,3.853949999999999676e+01,3.910199999999999676e+01,4.141450000000000387e+01,4.493012500000000387e+01,4.613325000000000387e+01,4.825825000000001808e+01,4.849262500000001808e+01,4.936762500000001808e+01,5.135200000000001808e+01,5.349262500000001808e+01,5.363325000000001808e+01,5.247700000000001808e+01,5.291450000000001808e+01,5.182075000000001808e+01,5.216450000000001808e+01,5.208637500000001808e+01,5.222700000000001808e+01,5.122700000000001808e+01,5.113325000000001808e+01,5.213325000000001808e+01,5.263325000000001808e+01,5.353950000000001808e+01,5.375825000000001808e+01,5.278950000000001808e+01,5.119575000000001808e+01,4.985200000000001808e+01,4.785200000000001808e+01,4.575825000000000387e+01,4.339887499999999676e+01,4.111762499999999676e+01,3.828949999999999676e+01,3.760199999999999676e+01,3.722699999999999676e+01,3.741449999999999676e+01,3.824262499999999676e+01,3.882074999999999676e+01,3.993012499999999676e+01,4.299262500000000387e+01,4.774262500000000387e+01,5.191450000000001808e+01,5.621137500000001808e+01,6.061762500000001808e+01,6.461762500000001808e+01,6.858637500000001808e+01,7.241450000000001808e+01,7.391450000000001808e+01,7.400825000000001808e+01,7.269575000000001808e+01,7.111762500000001808e+01,6.993012500000001808e+01,6.803950000000001808e+01,6.624262500000001808e+01,6.261762500000001808e+01,5.836762500000001808e+01,5.444575000000001808e+01,5.183637500000001808e+01,4.883637500000001097e+01,4.338325000000000387e+01,3.847700000000000387e+01,3.336762499999999676e+01,2.935199999999999676e+01,2.586762499999999321e+01,2.155512499999998965e+01,1.647699999999998610e+01,1.110199999999998255e+01,8.242624999999980773e+00,4.242624999999978108e+00,-3.355000000000246674e-01,-3.741750000000027221e+00,-6.898000000000029885e+00,-1.024175000000003166e+01,-1.402300000000003521e+01,-1.735112500000003521e+01,-2.197612500000003877e+01,-2.503862500000004587e+01,-2.805425000000004587e+01,-3.167925000000004587e+01,-3.477300000000004587e+01,-3.577300000000004587e+01,-3.525737500000004587e+01,-3.414800000000004587e+01,-3.199175000000004587e+01,-2.889800000000004587e+01,-2.467925000000003877e+01,-2.055425000000003877e+01,-1.546050000000003521e+01,-1.211675000000003166e+01,-8.851125000000029885e+00,-5.569875000000028109e+00,-3.288625000000027221e+00,-2.773000000000026333e+00,-1.819875000000025889e+00,-1.101125000000025445e+00,-1.523000000000025667e+00,-1.194875000000025445e+00,-1.585500000000025667e+00,-1.507375000000025445e+00,-7.573750000000251115e-01,9.926249999999762208e-01,9.613749999999762208e-01,1.258249999999976332e+00,1.180124999999976332e+00,8.051249999999761098e-01,2.387499999997555467e-02,-2.288625000000025889e+00,-4.991750000000028109e+00,-8.679250000000029885e+00,-1.064800000000003166e+01,-1.328862500000003344e+01,-1.539800000000003521e+01,-1.702300000000003521e+01,-1.799175000000003521e+01,-1.711675000000003521e+01,-1.571050000000003521e+01,-1.306987500000003344e+01,-1.094487500000003166e+01,-7.741750000000029885e+00,-4.069875000000027221e+00,-2.417500000000247784e-01,4.773874999999978996e+00,9.008249999999980773e+00,1.480512499999998433e+01,2.035199999999998965e+01,2.602387499999999321e+01,3.303949999999999676e+01,4.041450000000000387e+01,4.905512500000001097e+01,5.716450000000001808e+01,6.599262500000001808e+01,7.253950000000001808e+01,7.947700000000003229e+01,8.686762500000003229e+01,9.233637500000003229e+01,9.658637500000006071e+01,9.938325000000006071e+01,1.011332500000000607e+02,1.011488750000000607e+02,1.026488750000000607e+02,1.033051250000000607e+02,1.031332500000000607e+02,1.027582500000000607e+02,1.028520000000000607e+02,1.022270000000000607e+02,1.026332500000000607e+02,1.050395000000000607e+02,1.060082500000000607e+02,1.072426250000000607e+02,1.085707500000000607e+02,1.103832500000000607e+02,1.120863750000000607e+02,1.152895000000000607e+02,1.176488750000000607e+02,1.179613750000000607e+02,1.193520000000000607e+02,1.206645000000000607e+02,1.215238750000000607e+02,1.221801250000000607e+02,1.230551250000000607e+02,1.227895000000000607e+02,1.229301250000000607e+02,1.246020000000000607e+02,1.251176250000000607e+02,1.258988750000000607e+02,1.265238750000000607e+02,1.278832500000000607e+02,1.284145000000000607e+02,1.280707500000000607e+02,1.272113750000000607e+02,1.248520000000000607e+02,1.222582500000000607e+02,1.189770000000000607e+02,1.167426250000000607e+02,1.126020000000000607e+02,1.088520000000000607e+02,1.066332500000000607e+02,1.037738750000000607e+02,1.014145000000000607e+02,1.004145000000000607e+02,9.935200000000006071e+01,9.719575000000006071e+01,9.596137500000003229e+01,9.446137500000003229e+01,9.189887500000001808e+01,8.996137500000001808e+01,8.822700000000001808e+01,8.547700000000001808e+01,8.243012500000001808e+01,7.919575000000001808e+01,7.675825000000001808e+01,7.427387500000001808e+01,7.199262500000001808e+01,6.952387500000001808e+01,6.583637500000001808e+01,6.128950000000001808e+01,5.747700000000001808e+01,5.374262500000001808e+01,4.808637500000001808e+01,4.203950000000000387e+01,3.528950000000000387e+01,2.922699999999999676e+01,2.457074999999999321e+01,2.069574999999998965e+01,1.527387499999998610e+01,9.945749999999982549e+00,6.226999999999978996e+00,3.180124999999977220e+00,8.519999999999763318e-01,-2.194875000000025889e+00,-5.991750000000028997e+00,-9.538625000000031662e+00,-1.210112500000003166e+01,-1.489800000000003521e+01,-1.872612500000003877e+01,-2.296050000000004232e+01,-2.763237500000004587e+01,-3.238237500000004587e+01,-3.735112500000004587e+01,-4.288237500000005298e+01,-4.830425000000006719e+01,-5.249175000000006719e+01,-5.635112500000006719e+01,-5.992925000000006719e+01,-6.285112500000006719e+01,-6.544487500000006719e+01,-6.736675000000006719e+01,-6.897612500000006719e+01,-6.974175000000006719e+01,-7.113237500000006719e+01,-7.258550000000006719e+01,-7.430425000000006719e+01,-7.552300000000006719e+01,-7.706987500000006719e+01,-7.858550000000006719e+01,-7.897612500000006719e+01,-8.022612500000006719e+01,-8.135112500000006719e+01,-8.166362500000006719e+01,-8.113237500000006719e+01,-8.172612500000006719e+01,-8.108550000000006719e+01,-8.006987500000006719e+01,-8.011675000000006719e+01,-7.967925000000006719e+01,-7.936675000000006719e+01,-7.877300000000006719e+01,-7.888237500000006719e+01,-7.753862500000006719e+01,-7.752300000000006719e+01,-7.827300000000006719e+01,-7.821050000000006719e+01,-7.856987500000006719e+01,-7.866362500000006719e+01,-8.024175000000006719e+01,-8.158550000000006719e+01,-8.447612500000006719e+01,-8.616362500000006719e+01,-8.694487500000006719e+01,-8.906987500000006719e+01,-9.119487500000008140e+01,-9.388237500000008140e+01,-9.564800000000010982e+01,-9.742925000000010982e+01,-9.827300000000010982e+01,-1.004917500000001098e+02,-1.029761250000001098e+02,-1.046480000000001098e+02,-1.059136250000001098e+02,-1.070855000000001098e+02,-1.083511250000001098e+02,-1.090073750000001098e+02,-1.095230000000001098e+02,-1.093355000000001098e+02,-1.091948750000001098e+02,-1.080542500000001098e+02,-1.068355000000001098e+02,-1.052105000000001098e+02,-1.029292500000001098e+02,-1.015230000000001098e+02,-1.007261250000001098e+02,-9.939800000000010982e+01,-9.794487500000010982e+01,-9.813237500000010982e+01,-9.780425000000010982e+01,-9.738237500000010982e+01,-9.796050000000010982e+01,-9.783550000000010982e+01,-9.758550000000010982e+01,-9.780425000000010982e+01,-9.850737500000010982e+01,-9.858550000000010982e+01,-9.967925000000010982e+01,-1.014917500000001098e+02,-1.031948750000001098e+02,-1.053980000000001098e+02,-1.072573750000001098e+02,-1.089917500000001098e+02,-1.116011250000001098e+02,-1.137417500000001098e+02,-1.163823750000001098e+02,-1.188980000000001098e+02,-1.206948750000001098e+02,-1.225073750000001098e+02,-1.249292500000001098e+02,-1.275073750000001098e+02,-1.287105000000001098e+02,-1.311323750000001098e+02,-1.327261250000001098e+02,-1.339448750000001098e+02,-1.356480000000001098e+02,-1.373823750000001098e+02,-1.386636250000001098e+02,-1.398980000000001098e+02,-1.408980000000001098e+02,-1.410073750000001098e+02,-1.408511250000001098e+02,-1.404136250000001098e+02,-1.394292500000001098e+02,-1.384136250000001098e+02,-1.362105000000001098e+02,-1.337573750000001098e+02,-1.316948750000001098e+02,-1.283823750000001098e+02,-1.252105000000001098e+02,-1.218823750000001098e+02,-1.187886250000001098e+02,-1.142417500000001098e+02,-1.110855000000001098e+02,-1.082730000000001098e+02,-1.049136250000001098e+02,-1.033823750000001098e+02,-1.010542500000001098e+02,-9.802300000000010982e+01,-9.583550000000010982e+01,-9.514800000000009561e+01,-9.472612500000008140e+01,-9.408550000000008140e+01,-9.472612500000009561e+01,-9.577300000000009561e+01,-9.930425000000010982e+01,-1.055855000000001098e+02,-1.121011250000001098e+02,-1.205855000000001098e+02,-1.293823750000001098e+02,-1.399292500000001098e+02,-1.513980000000001098e+02,-1.631792500000001098e+02,-1.749605000000001382e+02,-1.874761250000001667e+02,-2.018823750000001951e+02,-2.157105000000001951e+02,-2.311636250000001951e+02,-2.477730000000001951e+02,-2.671323750000001951e+02,-2.884136250000001951e+02,-3.122730000000001951e+02,-3.368355000000001951e+02,-3.613667500000002519e+02,-3.873042500000003656e+02,-4.137261250000003656e+02,-4.393823750000003656e+02,-4.613355000000003656e+02,-4.811011250000003656e+02,-4.966948750000003656e+02,-5.091792500000003656e+02,-5.189292500000003656e+02,-5.256011250000003656e+02,-5.293355000000003656e+02,-5.310073750000003656e+02,-5.320386250000003656e+02,-5.320542500000003656e+02,-5.321167500000003656e+02,-5.321636250000003656e+02,-5.322105000000003656e+02,-5.322573750000003656e+02,-5.323042500000003656e+02,-5.323198750000003656e+02,-5.323355000000003656e+02,-5.323667500000003656e+02,-5.323511250000003656e+02,-5.323355000000003656e+02,-5.323198750000003656e+02,-5.323198750000003656e+02,-5.323355000000003656e+02,-5.323667500000003656e+02,-5.324136250000003656e+02,-5.324136250000003656e+02,-5.324292500000003656e+02,-5.324448750000003656e+02,-5.324605000000003656e+02,-5.324605000000003656e+02,-5.324292500000003656e+02,-5.323980000000003656e+02,-5.323355000000003656e+02,-5.323355000000003656e+02,-5.323355000000003656e+02,-5.323355000000003656e+02,-5.323355000000003656e+02,-5.323355000000003656e+02,-5.323511250000003656e+02,-5.323667500000003656e+02,-5.323980000000003656e+02,-5.323980000000003656e+02,-5.323980000000003656e+02,-5.324136250000003656e+02,-5.324136250000003656e+02,-5.323980000000003656e+02,-5.323823750000003656e+02,-5.323667500000003656e+02,-5.323511250000003656e+02,-5.323355000000003656e+02,-5.323198750000003656e+02,-5.316323750000003656e+02,-5.293355000000003656e+02,-5.252573750000003656e+02,-5.192886250000003656e+02,-5.108980000000003656e+02,-4.993198750000003656e+02,-4.842417500000003656e+02,-4.650386250000003656e+02,-4.430855000000003656e+02,-4.205698750000003656e+02,-3.971948750000003656e+02,-3.729292500000003088e+02,-3.479917500000002519e+02,-3.241636250000001951e+02,-3.020230000000001951e+02,-2.822261250000001951e+02,-2.638511250000001951e+02,-2.451948750000001951e+02,-2.270230000000001951e+02,-2.091011250000001951e+02,-1.928042500000001951e+02,-1.757261250000001382e+02,-1.578198750000001098e+02,-1.387105000000001098e+02,-1.189136250000001098e+02,-9.917925000000008140e+01,-7.897612500000008140e+01,-5.919487500000006719e+01,-3.791362500000005298e+01,-1.796050000000003877e+01,1.711374999999976332e+00,1.957074999999998965e+01,3.585199999999999676e+01,5.147700000000000387e+01,6.533637500000001808e+01,7.852387500000003229e+01,8.957075000000003229e+01,9.969575000000006071e+01,1.078051250000000607e+02,1.160238750000000607e+02,1.251176250000000607e+02,1.343207500000000607e+02,1.444457500000000607e+02,1.541332500000000607e+02,1.643832500000000607e+02,1.764301250000000891e+02,1.906488750000001460e+02,2.048207500000001460e+02,2.182426250000001460e+02,2.308363750000001460e+02,2.429457500000001460e+02,2.561645000000001460e+02,2.686332500000001460e+02,2.790395000000001460e+02,2.874613750000001460e+02,2.948363750000001460e+02,3.014613750000001460e+02,3.073832500000001460e+02,3.125863750000001460e+02,3.153520000000001460e+02,3.172895000000001460e+02,3.195395000000001460e+02,3.208676250000001460e+02,3.220238750000001460e+02,3.227113750000001460e+02,3.228051250000001460e+02,3.213207500000001460e+02,3.201332500000001460e+02,3.195082500000001460e+02,3.171332500000001460e+02,3.152582500000001460e+02,3.140238750000001460e+02,3.130082500000001460e+02,3.117113750000001460e+02,3.118988750000001460e+02,3.122270000000001460e+02,3.119926250000001460e+02,3.135863750000001460e+02,3.151801250000001460e+02,3.164613750000001460e+02,3.172270000000001460e+02,3.193207500000001460e+02,3.206488750000001460e+02,3.217270000000001460e+02,3.241176250000001460e+02,3.256020000000001460e+02,3.267738750000001460e+02,3.268832500000001460e+02,3.272113750000001460e+02,3.268520000000001460e+02,3.268051250000001460e+02,3.267895000000001460e+02,3.256020000000001460e+02,3.251957500000001460e+02,3.252270000000001460e+02,3.260238750000001460e+02,3.272738750000001460e+02,3.280863750000001460e+02,3.286332500000001460e+02,3.295707500000001460e+02,3.296801250000001460e+02,3.284301250000001460e+02,3.272426250000001460e+02,3.264926250000001460e+02,3.255863750000001460e+02,3.251957500000001460e+02,3.255863750000001460e+02,3.261957500000001460e+02,3.283832500000001460e+02,3.323676250000001460e+02,3.367426250000001460e+02,3.406488750000001460e+02,3.441176250000001460e+02,3.481020000000001460e+02,3.512113750000001460e+02,3.535551250000001460e+02,3.548363750000001460e+02,3.538520000000001460e+02,3.510082500000001460e+02,3.480707500000001460e+02,3.442113750000001460e+02,3.384926250000001460e+02,3.320082500000001460e+02,3.230863750000001460e+02,3.127426250000001460e+02,3.023988750000001460e+02,2.905551250000001460e+02,2.764145000000001460e+02,2.617895000000001460e+02,2.452426250000001460e+02,2.280238750000001460e+02,2.125551250000001460e+02,1.966020000000001460e+02,1.798207500000000891e+02,1.652270000000000607e+02,1.515082500000000607e+02,1.377113750000000607e+02,1.269613750000000607e+02,1.172426250000000607e+02,1.072895000000000607e+02,9.928950000000006071e+01,9.250825000000003229e+01,8.525825000000001808e+01,7.858637500000001808e+01,7.325825000000001808e+01,6.643012500000001808e+01,5.982075000000001808e+01,5.394575000000001808e+01,4.813325000000001808e+01,4.396137500000000387e+01,4.055512499999999676e+01,3.863324999999999676e+01,3.682074999999999676e+01,3.713324999999999676e+01,3.800824999999999676e+01,4.039887499999999676e+01,4.299262499999999676e+01,4.385199999999999676e+01,4.483637499999999676e+01,4.539887500000000387e+01,4.683637500000000387e+01,4.771137500000001097e+01,4.868012500000001808e+01,4.783637500000000387e+01,4.688325000000000387e+01,4.755512500000000387e+01,4.872700000000001097e+01,4.946137500000001808e+01,4.989887500000001808e+01,5.049262500000001808e+01,5.025825000000001808e+01,5.116450000000001808e+01,5.328950000000001808e+01,5.474262500000001808e+01,5.499262500000001808e+01,5.555512500000001808e+01,5.586762500000001808e+01,5.614887500000001808e+01,5.761762500000001808e+01,5.808637500000001808e+01,5.671137500000001808e+01,5.474262500000001808e+01,5.447700000000001808e+01,5.452387500000001808e+01,5.413325000000001808e+01,5.297700000000001808e+01,5.172700000000001808e+01,5.196137500000001808e+01,5.352387500000001808e+01,5.652387500000001808e+01,5.786762500000001808e+01,5.918012500000001808e+01,6.058637500000001808e+01,6.360200000000001808e+01,6.635200000000001808e+01,6.844575000000001808e+01,6.972700000000001808e+01,6.971137500000001808e+01,7.078950000000001808e+01,7.150825000000001808e+01,7.243012500000001808e+01,7.186762500000001808e+01,7.121137500000001808e+01,6.996137500000001808e+01,6.872700000000001808e+01,6.786762500000001808e+01,6.718012500000001808e+01,6.571137500000001808e+01,6.469575000000001808e+01,6.389887500000001808e+01,6.260200000000001808e+01,6.213325000000001808e+01,6.196137500000001808e+01,6.227387500000001808e+01,6.124262500000001808e+01,6.113325000000001808e+01,6.093012500000001808e+01,6.105512500000001808e+01,6.124262500000001808e+01,6.032075000000001808e+01,6.036762500000001808e+01,5.982075000000001808e+01,6.000825000000001808e+01,6.097700000000001808e+01,6.169575000000001808e+01,6.238325000000001808e+01,6.430512500000001808e+01,6.685200000000001808e+01,6.827387500000001808e+01,7.024262500000001808e+01,7.239887500000001808e+01,7.328950000000001808e+01,7.457075000000001808e+01,7.646137500000001808e+01,7.666450000000001808e+01,7.744575000000001808e+01,7.849262500000001808e+01,7.832075000000001808e+01,7.886762500000001808e+01,7.958637500000001808e+01,7.955512500000001808e+01,7.921137500000001808e+01,8.018012500000001808e+01,8.058637500000001808e+01,7.963325000000001808e+01,8.002387500000001808e+01,7.855512500000001808e+01,7.700825000000001808e+01,7.547700000000001808e+01,7.285200000000001808e+01,6.905512500000001808e+01,6.485200000000001808e+01,6.169575000000001808e+01,5.739887500000001808e+01,5.368012500000001808e+01,5.074262500000001808e+01,4.749262500000001097e+01,4.424262500000000387e+01,4.138324999999999676e+01,3.843012499999999676e+01,3.600824999999999676e+01,3.366449999999999676e+01,3.178949999999999676e+01,2.877387499999999676e+01,2.677387499999999676e+01,2.657074999999999676e+01,2.724262499999999676e+01,2.828949999999999676e+01,2.919574999999999676e+01,3.150824999999999676e+01,3.396137499999999676e+01,3.753949999999999676e+01,3.996137499999999676e+01,4.147699999999999676e+01,4.271137499999999676e+01,4.427387500000000387e+01,4.502387500000000387e+01,4.514887500000000387e+01,4.558637500000000387e+01,4.563325000000000387e+01,4.761762500000001097e+01,4.983637500000001808e+01,5.128950000000001808e+01,5.382075000000001808e+01,5.782075000000001808e+01,6.178950000000001808e+01,6.628950000000001808e+01,7.113325000000001808e+01,7.469575000000001808e+01,7.766450000000001808e+01,8.205512500000001808e+01,8.555512500000001808e+01,8.877387500000001808e+01,9.261762500000003229e+01,9.574262500000004650e+01,9.880512500000006071e+01,1.028832500000000607e+02,1.084457500000000607e+02,1.132895000000000607e+02,1.179770000000000607e+02,1.213832500000000607e+02,1.232270000000000607e+02,1.236176250000000607e+02,1.231957500000000607e+02,1.207738750000000607e+02,1.150551250000000607e+02,1.073363750000000607e+02,9.632075000000004650e+01,8.314887500000003229e+01,6.714887500000001808e+01,4.974262500000000387e+01,2.969574999999998965e+01,6.961374999999977220e+00,-1.677300000000003877e+01,-4.153862500000005298e+01,-6.461675000000006719e+01,-8.586675000000008140e+01,-1.043511250000000956e+02,-1.214136250000001098e+02,-1.353823750000001098e+02,-1.456323750000001098e+02,-1.521167500000001098e+02,-1.548042500000001098e+02,-1.558667500000001098e+02,-1.550698750000001098e+02
-7.453125000000003553e+00,-3.078125000000001776e+00,1.656250000000001110e+00,9.046875000000005329e+00,1.042187500000000711e+01,8.093750000000005329e+00,2.125000000000001332e+00,-8.406250000000005329e+00,-1.501562500000001066e+01,-1.742187500000001066e+01,-1.303125000000000711e+01,-4.296875000000002665e+00,6.078125000000003553e+00,1.068750000000000711e+01,9.296875000000005329e+00,7.781250000000005329e+00,2.328125000000001776e+00,4.734375000000002665e+00,1.045312500000000711e+01,1.198437500000000711e+01,1.557812500000001066e+01,1.148437500000000711e+01,5.921875000000003553e+00,2.921875000000002220e+00,-7.500000000000013323e-01,-2.140625000000002220e+00,-2.984375000000001776e+00,-2.500000000000001776e+00,-3.250000000000001776e+00,5.937500000000008882e-01,2.125000000000001776e+00,1.171875000000001554e+00,3.046875000000002220e+00,-3.906250000000002220e+00,-7.593750000000005329e+00,-1.090625000000000711e+01,-1.742187500000001066e+01,-1.375000000000000711e+01,-1.239062500000000711e+01,-7.562500000000005329e+00,1.421875000000001554e+00,9.843750000000013323e-01,4.593750000000003553e+00,1.843750000000000888e+00,-5.109375000000003553e+00,-3.093750000000002665e+00,-7.078125000000005329e+00,-3.953125000000003109e+00,1.968750000000000888e+00,-4.687500000000001388e-02,3.984375000000003109e+00,4.484375000000003553e+00,4.109375000000003553e+00,7.375000000000005329e+00,5.781250000000003553e+00,1.953125000000000888e+00,-1.421875000000001554e+00,-3.218750000000002220e+00,-3.062500000000002220e+00,1.093750000000000222e+00,3.109375000000001776e+00,2.531250000000001776e+00,2.765625000000001776e+00,7.343750000000006661e-01,1.593750000000001110e+00,3.343750000000002220e+00,2.515625000000001776e+00,2.796875000000001776e+00,2.375000000000001776e+00,5.156250000000003331e-01,2.343750000000001776e+00,2.296875000000001776e+00,-1.031250000000000444e+00,-7.656250000000001110e-01,-2.734375000000001332e+00,-8.750000000000000000e-01,6.750000000000003553e+00,9.937500000000007105e+00,1.131250000000000711e+01,8.234375000000005329e+00,-1.875000000000000000e-01,-7.515625000000004441e+00,-1.060937500000000711e+01,-1.276562500000000888e+01,-1.178125000000000711e+01,-7.296875000000005329e+00,-7.046875000000005329e+00,-3.687500000000002665e+00,-2.343750000000000888e+00,-4.218750000000001776e+00,-3.078125000000001776e+00,-3.218750000000001776e+00,-4.375000000000004441e-01,3.093750000000001776e+00,7.484375000000004441e+00,8.687500000000005329e+00,7.046875000000005329e+00,6.046875000000003553e+00,8.750000000000006661e-01,-1.031250000000000444e+00,-1.031250000000000666e+00,-2.546875000000001776e+00,-2.171875000000001776e+00,-2.296875000000001776e+00,-2.421875000000001776e+00,-1.875000000000001554e+00,2.515625000000001776e+00,8.234375000000007105e+00,1.045312500000000711e+01,1.325000000000000888e+01,8.875000000000007105e+00,-1.109375000000001332e+00,-6.406250000000005329e+00,-1.071875000000000711e+01,-7.718750000000006217e+00,1.953125000000001110e+00,8.390625000000005329e+00,1.007812500000000711e+01,4.750000000000002665e+00,-4.078125000000002665e+00,-1.225000000000000711e+01,-1.295312500000000711e+01,-9.437500000000005329e+00,-4.609375000000002665e+00,2.468750000000001332e+00,1.546875000000000444e+00,1.203125000000000444e+00,-1.156250000000001332e+00,-4.593750000000003553e+00,-1.937500000000000888e+00,-8.593750000000004441e-01,3.718750000000002665e+00,3.828125000000002665e+00,1.718750000000000444e+00,7.968750000000000000e-01,-3.734375000000002665e+00,5.468750000000004441e-01,4.343750000000003553e+00,4.187500000000003553e+00,6.375000000000005329e+00,-2.968750000000000000e-01,-4.500000000000003553e+00,-2.921875000000001776e+00,-4.031250000000002665e+00,2.015625000000001332e+00,2.515625000000001776e+00,-2.656250000000006661e-01,2.750000000000001332e+00,-1.187500000000000444e+00,5.000000000000008882e-01,1.390625000000001332e+00,-6.328125000000003553e+00,-8.203125000000005329e+00,-1.028125000000000711e+01,-9.859375000000007105e+00,1.874999999999986677e-01,7.812500000000004441e+00,1.018750000000000533e+01,1.123437500000000711e+01,3.609375000000002220e+00,-3.031250000000001776e+00,-5.078125000000003553e+00,-7.890625000000005329e+00,-5.640625000000003553e+00,-5.796875000000003553e+00,-5.421875000000003553e+00,-7.968750000000007772e-01,2.265625000000000888e+00,8.546875000000005329e+00,1.134375000000000711e+01,6.906250000000003553e+00,5.625000000000003553e+00,4.484375000000002665e+00,7.171875000000004441e+00,1.692187500000001066e+01,1.815625000000001421e+01,1.348437500000001066e+01,4.000000000000003553e+00,-1.279687500000000711e+01,-1.917187500000001421e+01,-1.842187500000001066e+01,-1.407812500000000711e+01,-2.250000000000001332e+00,2.750000000000001776e+00,2.031250000000001332e+00,5.937500000000001110e-01,-4.421875000000003553e+00,-7.359375000000005329e+00,-4.296875000000002665e+00,8.281250000000009992e-01,5.328125000000003553e+00,1.015625000000000711e+01,1.307812500000000888e+01,1.212500000000000711e+01,1.371875000000000711e+01,1.473437500000001066e+01,8.375000000000005329e+00,3.312500000000001776e+00,-8.250000000000005329e+00,-2.039062500000001421e+01,-2.128125000000001421e+01,-2.378125000000001421e+01,-1.581250000000001066e+01,-5.281250000000003553e+00,-3.125000000000001332e+00,5.609375000000003553e+00,6.093750000000003553e+00,3.140625000000002665e+00,6.218750000000004441e+00,1.875000000000001110e+00,-1.874999999999997780e-01,7.031250000000006661e-01,-1.078125000000000444e+00,1.718750000000001332e+00,6.843750000000003553e+00,8.968750000000005329e+00,8.562500000000005329e+00,5.687500000000003553e+00,-1.343750000000000000e+00,-5.328125000000003553e+00,-5.218750000000003553e+00,-5.593750000000003553e+00,-3.437500000000002220e+00,-2.312500000000001776e+00,-3.218750000000002665e+00,-2.296875000000001776e+00,2.031250000000001110e-01,1.796875000000001110e+00,3.265625000000001776e+00,4.921875000000002665e+00,2.500000000000001332e+00,6.718750000000005551e-01,-1.562500000000000888e+00,-3.984375000000002665e+00,-3.843750000000002665e+00,-4.062500000000002665e+00,-2.343750000000002220e-01,1.593750000000001110e+00,2.562500000000001332e+00,5.781250000000003553e+00,2.578125000000001776e+00,6.250000000000003331e-01,6.562500000000003331e-01,-3.546875000000002665e+00,-2.187500000000001776e+00,1.031250000000000666e+00,2.109375000000001776e+00,6.640625000000004441e+00,8.265625000000005329e+00,8.375000000000005329e+00,8.734375000000005329e+00,6.125000000000004441e+00,3.109375000000002665e+00,-2.875000000000001776e+00,-9.078125000000005329e+00,-1.089062500000000711e+01,-1.292187500000000888e+01,-1.093750000000000711e+01,-7.718750000000006217e+00,-7.109375000000005329e+00,-2.125000000000001332e+00,3.234375000000002220e+00,6.250000000000004441e+00,7.171875000000005329e+00,4.500000000000003553e+00,-2.437500000000001776e+00,-5.125000000000003553e+00,-3.765625000000002665e+00,-3.843750000000003109e+00,1.156250000000000444e+00,3.671875000000002665e+00,3.296875000000001776e+00,5.562500000000003553e+00,4.046875000000003553e+00,-2.812500000000004441e-01,-1.500000000000001110e+00,-3.625000000000003109e+00,-2.343750000000002220e+00,3.500000000000002220e+00,3.203125000000001776e+00,3.937500000000002665e+00,-4.375000000000000000e-01,-7.156250000000005329e+00,-5.343750000000003553e+00,-5.343750000000003553e+00,3.125000000000000000e-01,7.156250000000005329e+00,6.875000000000005329e+00,8.593750000000007105e+00,5.812500000000003553e+00,1.375000000000000888e+00,-7.187500000000002220e-01,-5.484375000000003553e+00,-6.890625000000004441e+00,-6.250000000000004441e+00,-4.312500000000003553e+00,7.500000000000002220e-01,2.937500000000001776e+00,1.609375000000000666e+00,-3.125000000000027756e-02,-4.890625000000002665e+00,-8.265625000000005329e+00,-6.515625000000003553e+00,-7.500000000000004441e+00,-4.546875000000002665e+00,1.546875000000001776e+00,4.046875000000003553e+00,1.145312500000000711e+01,1.406250000000000888e+01,9.500000000000005329e+00,5.906250000000003553e+00,-2.843750000000002220e+00,-6.078125000000004441e+00,-3.265625000000002220e+00,-5.000000000000006661e-01,4.796875000000003553e+00,5.296875000000003553e+00,4.609375000000002665e+00,2.718750000000001776e+00,1.203125000000000666e+00,7.656250000000003331e-01,-2.531250000000001776e+00,-2.562500000000001776e+00,-3.140625000000001776e+00,-1.125000000000000222e+00,2.984375000000002665e+00,3.359375000000002665e+00,3.500000000000002665e+00,2.500000000000002220e-01,-3.328125000000002665e+00,-3.765625000000002665e+00,-3.937500000000002665e+00,-2.781250000000001776e+00,1.187500000000000888e+00,1.343750000000000888e+00,1.250000000000000666e+00,4.078125000000002665e+00,8.906250000000004441e-01,1.390625000000000444e+00,1.781250000000000666e+00,-4.656250000000003553e+00,-5.250000000000003553e+00,-8.187500000000007105e+00,-1.164062500000000711e+01,-6.625000000000003553e+00,-5.968750000000003553e+00,-2.625000000000001332e+00,3.718750000000002220e+00,1.843750000000000888e+00,3.437500000000002220e+00,3.531250000000002220e+00,-1.046875000000000444e+00,1.546875000000000888e+00,3.453125000000001776e+00,3.000000000000001776e+00,7.171875000000003553e+00,5.578125000000002665e+00,6.249999999999977796e-02,-1.765625000000001332e+00,-6.500000000000003553e+00,-7.828125000000003553e+00,-2.578125000000000888e+00,-7.812499999999955591e-02,3.515625000000002665e+00,6.906250000000005329e+00,3.921875000000002665e+00,4.296875000000002665e+00,2.953125000000001776e+00,3.281250000000001110e-01,2.843750000000001776e+00,7.812500000000008882e-01,3.125000000000004441e-01,-1.093750000000000000e-01,-5.375000000000003553e+00,-7.000000000000005329e+00,-6.906250000000005329e+00,-7.281250000000005329e+00,-2.187500000000000888e+00,9.218750000000008882e-01,-8.906250000000003331e-01,1.468750000000001332e+00,-2.203125000000001332e+00,-3.718750000000002220e+00,1.562500000000022204e-02,-3.031250000000001332e+00,-6.406250000000000000e-01,-1.250000000000000888e+00,-4.671875000000003553e+00,-2.687500000000001776e+00,-3.250000000000001776e+00,-1.890625000000001332e+00,-5.625000000000002220e-01,-5.156250000000002220e-01,6.250000000000005551e-01,3.312500000000001776e+00,7.234375000000003553e+00,1.032812500000000711e+01,1.007812500000000711e+01,5.781250000000003553e+00,1.531250000000001332e+00,-2.609375000000001776e+00,-2.796875000000001776e+00,1.109375000000000444e+00,1.968750000000000888e+00,2.093750000000001332e+00,1.375000000000000666e+00,-3.000000000000001776e+00,-2.968750000000001776e+00,-2.250000000000001332e+00,-2.906250000000001776e+00,-1.203125000000000888e+00,-2.468750000000001776e+00,-6.562500000000004441e-01,1.515625000000000888e+00,2.375000000000001332e+00,4.765625000000002665e+00,1.328125000000000444e+00,-1.312500000000000888e+00,-8.750000000000005551e-01,-1.859375000000001332e+00,1.359375000000000666e+00,4.671875000000002665e+00,2.625000000000001776e+00,1.421875000000000888e+00,-2.250000000000001776e+00,-6.390625000000004441e+00,-5.359375000000003553e+00,-3.171875000000001776e+00,2.281250000000001776e+00,6.875000000000005329e+00,9.031250000000005329e+00,7.828125000000005329e+00,4.000000000000001776e+00,2.093750000000001332e+00,-1.437500000000000888e+00,-1.328125000000000888e+00,-1.062500000000000888e+00,-3.812500000000002665e+00,-2.906250000000001776e+00,-2.671875000000001776e+00,-2.937500000000001776e+00,5.625000000000004441e-01,2.187500000000001332e+00,2.812499999999998335e-01,1.203125000000000666e+00,2.031250000000002220e-01,-1.296875000000000888e+00,2.765625000000001332e+00,2.812500000000001332e+00,2.062500000000001332e+00,2.421875000000001776e+00,-2.281250000000000888e+00,-3.093750000000001776e+00,-2.109375000000001332e+00,-2.578125000000001776e+00,7.031250000000004441e-01,2.828125000000001776e+00,3.937500000000002220e+00,6.812500000000003553e+00,6.984375000000003553e+00,4.265625000000001776e+00,5.000000000000000000e-01,-3.375000000000001776e+00,-5.937500000000003553e+00,-5.593750000000003553e+00,-2.843750000000001776e+00,-2.234375000000001332e+00,-3.437500000000004441e-01,1.750000000000000888e+00,1.359375000000000888e+00,2.250000000000001332e+00,-5.156250000000004441e-01,-4.031250000000002665e+00,-4.671875000000002665e+00,-3.734375000000001776e+00,1.937500000000001110e+00,6.828125000000003553e+00,8.687500000000005329e+00,7.796875000000003553e+00,1.421875000000000888e+00,-3.734375000000001776e+00,-6.203125000000003553e+00,-6.718750000000003553e+00,-2.156250000000000888e+00,1.015625000000000888e+00,8.437500000000009992e-01,-4.843750000000001110e-01,-4.265625000000002665e+00,-6.281250000000003553e+00,-3.484375000000002220e+00,3.125000000000022204e-02,3.421875000000002220e+00,5.750000000000003553e+00,2.406250000000001332e+00,-6.875000000000004441e-01,-2.328125000000001332e+00,-4.437500000000002665e+00,-1.984375000000001332e+00,2.656250000000001110e-01,-4.218750000000002776e-01,2.031250000000000555e-01,-9.531250000000007772e-01,-3.046875000000002220e+00,-1.375000000000001110e+00,-6.406250000000004441e-01,7.187500000000006661e-01,2.281250000000001776e+00,1.718750000000001332e+00,1.375000000000000888e+00,-7.031250000000003331e-01,-1.609375000000000888e+00,-2.187500000000001332e+00,-1.312500000000000888e+00,1.250000000000000888e+00,4.109375000000002665e+00,5.640625000000003553e+00,3.718750000000001776e+00,2.250000000000001332e+00,-1.734375000000001110e+00,-2.734375000000001776e+00,-1.390625000000000888e+00,-1.640625000000001110e+00,1.718750000000001665e-01,4.687500000000011102e-02,1.062500000000000888e+00,1.906250000000001332e+00,1.750000000000001110e+00,1.531250000000000888e+00,-2.109375000000001776e+00,-3.312500000000002665e+00,-3.109375000000002665e+00,-3.125000000000002665e+00,1.203125000000000666e+00,1.859375000000001110e+00,4.375000000000004441e-01,3.750000000000003331e-01,-4.828125000000002665e+00,-5.718750000000003553e+00,-4.062500000000003553e+00,-4.000000000000003553e+00,1.343750000000000444e+00,4.000000000000001776e+00,4.265625000000002665e+00,5.937500000000004441e+00,3.421875000000003109e+00,8.593750000000007772e-01,-1.281250000000000888e+00,-4.078125000000002665e+00,-3.187500000000001776e+00,-2.625000000000001776e+00,1.000000000000000000e+00,4.656250000000002665e+00,3.484375000000002220e+00,5.437500000000003553e+00,1.593750000000001332e+00,-1.968750000000000888e+00,3.593750000000004996e-01,-2.187500000000001332e+00,1.296875000000001332e+00,3.093750000000002220e+00,-4.843750000000003331e-01,4.687500000000003331e-01,-2.640625000000001776e+00,-1.812500000000001332e+00,1.296875000000000888e+00,1.671875000000001332e+00,3.406250000000002665e+00,-7.656250000000002220e-01,-3.187500000000001776e+00,-3.953125000000002665e+00,-4.921875000000003553e+00,1.171875000000001110e+00,4.000000000000002665e+00,3.859375000000002665e+00,4.578125000000003553e+00,-2.062500000000001776e+00,-6.500000000000003553e+00,-6.390625000000003553e+00,-7.984375000000005329e+00,-2.484375000000001332e+00,2.281250000000001776e+00,2.703125000000001776e+00,4.562500000000002665e+00,-1.406250000000000000e-01,-4.328125000000002665e+00,-6.453125000000003553e+00,-7.500000000000003553e+00,-2.453125000000001332e+00,1.203125000000000666e+00,6.093750000000003553e+00,7.312500000000003553e+00,3.312500000000001776e+00,9.531250000000002220e-01,-2.453125000000001776e+00,-3.031250000000001776e+00,-8.125000000000005551e-01,1.687500000000001332e+00,1.437500000000001110e+00,2.453125000000001332e+00,4.625000000000002665e+00,3.640625000000001776e+00,8.437500000000005329e+00,9.031250000000005329e+00,7.000000000000003553e+00,9.515625000000007105e+00,5.875000000000003553e+00,4.984375000000003553e+00,4.218750000000003553e+00,-7.500000000000003331e-01,-2.406250000000001332e+00,-3.500000000000002665e+00,-2.234375000000001776e+00,3.171875000000001776e+00,8.875000000000007105e+00,1.264062500000001066e+01,1.300000000000001066e+01,9.171875000000007105e+00,4.828125000000003553e+00,3.125000000000001776e+00,5.000000000000003553e+00,7.468750000000005329e+00,7.656250000000005329e+00,1.453125000000001776e+00,-9.515625000000007105e+00,-1.837500000000001421e+01,-2.523437500000001776e+01,-2.451562500000001776e+01,-1.871875000000001421e+01,-1.309375000000000711e+01,-6.484375000000003553e+00,-2.750000000000001776e+00,-1.015625000000000666e+00,7.812500000000005551e-02,1.562500000000001110e-01,1.562500000000001110e-01,7.812500000000005551e-02,6.938893903907228378e-18,-7.812500000000005551e-02,-1.562500000000001110e-01,-1.406250000000001110e-01,-1.250000000000000833e-01,-9.375000000000005551e-02,1.562500000000001735e-02,6.250000000000005551e-02,1.093750000000000833e-01,1.093750000000000833e-01,6.250000000000004163e-02,3.125000000000002082e-02,1.562500000000001041e-02,1.562500000000001041e-02,-3.125000000000002776e-02,-7.812500000000006939e-02,-1.875000000000001665e-01,-1.875000000000001665e-01,-9.375000000000008327e-02,0.000000000000000000e+00,1.875000000000001665e-01,1.875000000000001665e-01,1.250000000000001110e-01,6.250000000000005551e-02,-6.250000000000004163e-02,-6.250000000000004163e-02,-4.687500000000002776e-02,-3.125000000000002082e-02,0.000000000000000000e+00,0.000000000000000000e+00,0.000000000000000000e+00,1.562500000000001041e-02,1.562500000000001041e-02,0.000000000000000000e+00,-1.562500000000001041e-02,-9.375000000000005551e-02,-1.093750000000000555e-01,-6.250000000000004163e-02,-1.562500000000001041e-02,-5.156250000000003331e-01,-2.750000000000001776e+00,-6.890625000000003553e+00,-1.292187500000000711e+01,-1.887500000000001421e+01,-2.139062500000001421e+01,-2.009375000000001421e+01,-1.535937500000001243e+01,-8.812500000000007105e+00,-3.203125000000002665e+00,1.046875000000000444e+00,5.781250000000003553e+00,9.218750000000007105e+00,1.014062500000000711e+01,9.875000000000007105e+00,5.203125000000003553e+00,1.328125000000001554e+00,3.593750000000002220e-01,-6.250000000000002220e-01,1.390625000000000888e+00,1.218750000000000666e+00,-1.359375000000000666e+00,-2.828125000000001332e+00,-5.250000000000002665e+00,-6.609375000000004441e+00,-4.718750000000003553e+00,-3.359375000000002665e+00,-1.562500000000088818e-02,4.890625000000003553e+00,6.125000000000003553e+00,7.703125000000004441e+00,6.031250000000003553e+00,4.062500000000001776e+00,4.250000000000002665e+00,5.015625000000003553e+00,7.765625000000005329e+00,7.031250000000004441e+00,6.593750000000004441e+00,3.421875000000002220e+00,-1.093750000000002776e-01,4.687499999999983347e-02,-3.843750000000003109e+00,-6.031250000000003553e+00,-8.156250000000003553e+00,-1.084375000000000533e+01,-6.390625000000002665e+00,-9.218750000000002220e-01,3.843750000000002665e+00,7.046875000000004441e+00,4.328125000000001776e+00,1.781250000000000888e+00,-1.875000000000004441e-01,2.187500000000000000e-01,3.937500000000002665e+00,5.140625000000003553e+00,9.203125000000007105e+00,1.007812500000000711e+01,7.656250000000005329e+00,7.328125000000005329e+00,-6.250000000000044409e-02,-3.375000000000002665e+00,-3.062500000000002220e+00,-2.953125000000002220e+00,4.765625000000002665e+00,7.078125000000003553e+00,7.359375000000003553e+00,6.406250000000003553e+00,-9.062500000000004441e-01,-2.156250000000001332e+00,-2.718750000000001776e+00,-3.343750000000002220e+00,1.265625000000001332e+00,5.312500000000006661e-01,-2.171875000000000888e+00,-2.421875000000001776e+00,-5.937500000000003553e+00,-4.390625000000002665e+00,-2.343750000000002776e-01,1.546875000000001110e+00,4.578125000000002665e+00,2.000000000000000888e+00,-1.218750000000000888e+00,-2.859375000000001776e+00,-4.250000000000002665e+00,-1.265625000000000888e+00,2.125000000000001776e+00,3.515625000000002665e+00,4.031250000000002665e+00,4.328125000000002665e+00,2.000000000000001332e+00,1.921875000000001332e+00,1.437500000000000888e+00,-2.687500000000001776e+00,-3.218750000000001776e+00,-5.750000000000003553e+00,-6.234375000000003553e+00,-2.234375000000001776e+00,-1.093750000000003331e-01,4.593750000000002665e+00,6.718750000000003553e+00,6.421875000000003553e+00,5.984375000000003553e+00,1.359375000000000666e+00,-5.781250000000006661e-01,-4.109375000000002665e+00,-8.281250000000005329e+00,-7.046875000000004441e+00,-8.343750000000005329e+00,-5.093750000000003553e+00,1.718750000000001388e-01,-7.812500000000013878e-02,2.515625000000001776e+00,1.359375000000000888e+00,-6.250000000000003331e-01,3.890625000000003109e+00,4.859375000000003553e+00,7.390625000000005329e+00,1.106250000000000711e+01,6.968750000000003553e+00,6.156250000000003553e+00,5.203125000000002665e+00,-3.906250000000003331e-01,9.687500000000006661e-01,2.328125000000001332e+00,3.046875000000001776e+00,1.045312500000000711e+01,1.354687500000001066e+01,1.087500000000000711e+01,8.187500000000007105e+00,5.468750000000017764e-01,-6.984375000000005329e+00,-6.890625000000005329e+00,-5.187500000000003553e+00,-3.281250000000002665e+00,6.875000000000007772e-01,9.375000000000000000e-02,-4.109375000000002665e+00,-6.546875000000004441e+00,-9.203125000000007105e+00,-1.012500000000000711e+01,-7.062500000000004441e+00,-2.031250000000001332e+00,1.718750000000001332e+00,4.640625000000003553e+00,5.843750000000003553e+00,2.234375000000001332e+00,-7.812500000000002220e-01,-3.218750000000001332e+00,-5.531250000000002665e+00,-6.046875000000003553e+00,-6.328125000000005329e+00,-7.531250000000005329e+00,-8.593750000000005329e+00,-5.781250000000003553e+00,-3.281250000000002220e+00,1.203125000000000888e+00,5.234375000000003553e+00,4.062500000000003553e+00,3.515625000000002665e+00,1.890625000000001332e+00,4.531250000000003331e-01,5.156250000000003331e-01,-7.656250000000005551e-01,-2.421875000000001332e+00,-2.343750000000001332e+00,-1.078125000000000666e+00,1.812500000000001332e+00,3.765625000000002665e+00,1.265625000000000888e+00,-1.453125000000000888e+00,-4.343750000000003553e+00,-5.187500000000003553e+00,-5.625000000000006661e-01,2.671875000000001332e+00,3.671875000000001776e+00,3.921875000000002665e+00,6.718750000000004441e-01,-1.046875000000000666e+00,-8.906250000000005551e-01,-7.968750000000004441e-01,9.531250000000007772e-01,2.234375000000001332e+00,3.875000000000001776e+00,3.765625000000001776e+00,8.437500000000004441e-01,-3.062500000000002220e+00,-7.250000000000004441e+00,-7.734375000000005329e+00,-4.609375000000003553e+00,-1.421875000000000666e+00,1.734375000000001110e+00,1.921875000000001332e+00,7.031250000000006661e-01,2.375000000000001776e+00,1.437500000000001110e+00,1.843750000000001110e+00,1.125000000000000666e+00,-2.359375000000001776e+00,-5.625000000000003331e-01,5.937500000000005551e-01,3.484375000000002665e+00,6.296875000000004441e+00,3.703125000000002665e+00,1.578125000000000888e+00,-1.687500000000000888e+00,-4.078125000000002665e+00,-2.390625000000001776e+00,-1.046875000000000444e+00,2.187500000000001110e-01,1.828125000000001110e+00,1.625000000000000888e+00,-1.562499999999998890e-01,-4.687499999999977796e-02,-1.921875000000000888e+00,-4.078125000000002665e+00,-1.218750000000001110e+00,-1.828125000000001110e+00,1.609375000000001332e+00,5.171875000000003553e+00,2.406250000000001776e+00,3.234375000000001776e+00,-1.281250000000000888e+00,-5.031250000000003553e+00,-5.062500000000003553e+00,-6.531250000000003553e+00,-2.843750000000001776e+00,-6.406250000000006661e-01,2.500000000000001776e+00,4.578125000000002665e+00,1.671875000000000888e+00,2.515625000000001776e+00,-5.000000000000000000e-01,-2.343750000000000888e+00,1.140625000000001110e+00,-5.625000000000002220e-01,7.812500000000004441e-01,2.484375000000001332e+00,4.062500000000002776e-01,6.718750000000005551e-01,9.531250000000007772e-01,2.343750000000002220e-01,-9.843750000000007772e-01,1.093750000000000000e-01,-1.546875000000000666e+00,-1.968750000000000888e+00,1.640625000000001110e+00,2.046875000000001332e+00,6.718750000000004441e+00,7.937500000000005329e+00,5.687500000000003553e+00,3.671875000000002665e+00,-3.312500000000002220e+00,-4.281250000000002665e+00,-4.734375000000003553e+00,-3.515625000000002220e+00,1.859375000000001332e+00,1.046875000000000444e+00,1.484375000000000888e+00,2.812500000000000000e-01,-2.203125000000001776e+00,-5.312500000000002220e-01,-8.125000000000004441e-01,2.500000000000002220e-01,-1.093750000000000000e-01,-2.234375000000001332e+00,-3.343750000000001776e+00,-5.828125000000003553e+00,-6.750000000000004441e+00,-6.656250000000004441e+00,-4.531250000000003553e+00,1.406249999999997780e-01,3.875000000000001776e+00,7.203125000000003553e+00,7.375000000000004441e+00,3.515625000000002220e+00,1.515625000000000888e+00,-2.046875000000000888e+00,-3.921875000000001776e+00,-1.296875000000000444e+00,-1.531250000000000444e+00,-6.406250000000001110e-01,-5.468750000000003331e-01,-3.750000000000002220e+00,-5.281250000000003553e+00,-4.281250000000003553e+00,-2.250000000000001776e+00,-5.000000000000002220e-01,2.968750000000002220e+00,2.531250000000002220e+00,1.125000000000000888e+00,3.984375000000002665e+00,2.234375000000001776e+00,2.015625000000001776e+00,9.218750000000006661e-01,-5.390625000000003553e+00,-6.265625000000004441e+00,-6.593750000000004441e+00,-3.843750000000002665e+00,2.937500000000001776e+00,4.375000000000003553e+00,6.781250000000003553e+00,7.812500000000004441e+00,6.734375000000004441e+00,1.146875000000000711e+01,1.214062500000000711e+01,1.117187500000000711e+01,1.020312500000000711e+01,4.781250000000003553e+00,5.953125000000004441e+00,9.578125000000007105e+00,1.417187500000000711e+01,1.871875000000001066e+01,1.451562500000000711e+01,5.687500000000002665e+00,-4.859375000000002665e+00,-1.453125000000000711e+01,-1.834375000000001066e+01,-1.729687500000001066e+01,-1.585937500000001066e+01,-1.320312500000000888e+01,-1.089062500000000711e+01,-1.090625000000000711e+01,-9.906250000000005329e+00,-9.343750000000005329e+00,-1.020312500000000533e+01
-3.875000000000001776e+00,3.375000000000001776e+00,-3.437500000000001776e+00,6.250000000000000000e-02,1.131250000000000533e+01,1.062500000000000533e+01,-1.812500000000000000e+00,-6.812500000000003553e+00,-1.312500000000001110e+00,-7.750000000000003553e+00,-1.718750000000000711e+01,-4.312500000000001776e+00,1.250000000000000533e+01,1.068750000000000533e+01,8.062500000000003553e+00,3.750000000000000888e+00,-1.287500000000000711e+01,-1.137500000000000533e+01,7.500000000000003553e+00,1.568750000000000711e+01,1.181250000000000533e+01,-1.250000000000000000e+00,-7.000000000000002665e+00,5.625000000000004441e-01,2.312500000000001332e+00,-1.875000000000000555e-01,1.687500000000000888e+00,-1.625000000000000888e+00,-7.437500000000003553e+00,-1.937500000000000888e+00,5.437500000000002665e+00,7.687500000000004441e+00,8.125000000000008882e-01,-1.006250000000000533e+01,6.875000000000000000e-01,8.187500000000003553e+00,-9.750000000000005329e+00,-1.681250000000000711e+01,-4.187500000000001776e+00,7.062500000000002665e+00,2.000000000000000444e+00,-5.062500000000001776e+00,5.875000000000002665e+00,6.687500000000003553e+00,-3.312500000000001332e+00,-3.875000000000001776e+00,-7.437500000000002665e+00,-4.062500000000000888e+00,3.687500000000001332e+00,5.437500000000001776e+00,8.937500000000003553e+00,-4.375000000000001776e+00,-1.693750000000000711e+01,4.812500000000004441e+00,2.275000000000001066e+01,7.250000000000001776e+00,-1.237500000000000533e+01,-1.631250000000000711e+01,-5.062500000000002665e+00,1.468750000000000711e+01,1.475000000000000888e+01,-7.562500000000001776e+00,-1.412500000000000533e+01,4.500000000000001776e+00,1.306250000000000533e+01,-4.937500000000001776e+00,-1.037500000000000355e+01,1.125000000000000711e+01,1.125000000000000711e+01,-1.243750000000000533e+01,-1.081250000000000533e+01,8.687500000000003553e+00,1.368750000000000533e+01,1.875000000000000000e+00,-1.512500000000000711e+01,-1.193750000000000533e+01,6.250000000000003553e+00,1.112500000000000533e+01,1.087500000000000533e+01,7.437500000000003553e+00,-7.187500000000003553e+00,-1.087500000000000533e+01,-1.125000000000000444e+00,-7.500000000000000000e-01,-2.875000000000000888e+00,-2.687500000000001776e+00,-6.312500000000003553e+00,2.500000000000000000e-01,7.062500000000003553e+00,-1.875000000000000000e-01,-5.937500000000003553e+00,-4.000000000000002665e+00,1.250000000000000000e-01,1.937500000000001332e+00,8.750000000000006661e-01,3.875000000000001776e+00,1.068750000000000533e+01,1.437500000000000888e+00,-1.262500000000000711e+01,2.000000000000000000e+00,1.093750000000000355e+01,-9.875000000000005329e+00,-8.125000000000003553e+00,1.375000000000000711e+01,2.562500000000001776e+00,-1.537500000000000711e+01,-1.312500000000000888e+00,7.312500000000003553e+00,1.750000000000001110e+00,1.037500000000000355e+01,8.812500000000003553e+00,-4.687500000000002665e+00,-1.250000000000000888e+00,-4.375000000000001776e+00,-1.806250000000000711e+01,-7.625000000000003553e+00,1.712500000000000711e+01,2.225000000000001066e+01,5.187500000000001776e+00,-1.325000000000000533e+01,-1.643750000000000711e+01,-5.312500000000003553e+00,3.187500000000001776e+00,3.062500000000001776e+00,-1.000000000000000888e+00,-1.437500000000001110e+00,7.687500000000003553e+00,3.437500000000001776e+00,-1.118750000000000533e+01,-5.875000000000002665e+00,4.250000000000002665e+00,9.375000000000002220e-01,2.000000000000000888e+00,1.143750000000000533e+01,1.250000000000000000e-01,-1.643750000000000711e+01,-3.000000000000001776e+00,6.125000000000001776e+00,2.187500000000000888e+00,1.250000000000000711e+01,8.937500000000003553e+00,-1.506250000000000711e+01,-2.025000000000001066e+01,2.687500000000001776e+00,2.043750000000001066e+01,5.500000000000002665e+00,-9.875000000000003553e+00,-6.500000000000002665e+00,-3.000000000000001332e+00,7.375000000000003553e+00,8.687500000000003553e+00,-4.187500000000001776e+00,-2.437500000000000888e+00,-5.000000000000002665e+00,-1.493750000000000711e+01,-3.187500000000000888e+00,9.812500000000005329e+00,1.100000000000000533e+01,1.200000000000000711e+01,6.250000000000000000e-02,-1.343750000000000711e+01,-7.750000000000003553e+00,2.375000000000001332e+00,4.250000000000001776e+00,1.187500000000000444e+00,-2.062500000000000888e+00,-8.812500000000003553e+00,-8.875000000000003553e+00,8.875000000000003553e+00,1.693750000000000711e+01,7.062500000000004441e+00,-1.437500000000000222e+00,-1.325000000000000711e+01,-1.293750000000000711e+01,1.156250000000000711e+01,2.400000000000001066e+01,1.406250000000000533e+01,-8.750000000000000000e-01,-1.200000000000000533e+01,-1.468750000000000711e+01,-1.543750000000000711e+01,-3.062500000000000888e+00,1.475000000000000711e+01,3.187500000000000000e+00,-6.125000000000003553e+00,8.937500000000003553e+00,7.500000000000000000e-01,-1.693750000000000711e+01,-1.687500000000000000e+00,6.812500000000003553e+00,-5.687500000000002665e+00,6.000000000000002665e+00,1.881250000000000711e+01,-2.750000000000001776e+00,-1.381250000000000711e+01,5.312500000000001776e+00,1.912500000000000711e+01,1.293750000000000533e+01,-8.312500000000001776e+00,-1.968750000000000711e+01,-1.156250000000000533e+01,-4.125000000000001776e+00,4.375000000000004441e-01,-4.000000000000001776e+00,-3.375000000000001776e+00,1.143750000000000355e+01,2.187500000000000000e+00,-6.687500000000003553e+00,8.812500000000003553e+00,6.875000000000000000e-01,-1.093750000000000533e+01,8.187500000000001776e+00,1.037500000000000355e+01,-1.406250000000000711e+01,-1.406250000000000711e+01,1.387500000000000711e+01,2.462500000000001066e+01,2.312500000000000000e+00,-1.731250000000000711e+01,-8.562500000000003553e+00,1.625000000000000444e+00,1.687500000000000888e+00,7.562500000000004441e+00,1.875000000000000000e-01,-1.625000000000000711e+01,-1.312500000000000000e+00,1.668750000000000711e+01,-3.312500000000001776e+00,-1.400000000000000711e+01,9.500000000000007105e+00,1.412500000000000711e+01,-5.875000000000002665e+00,-9.937500000000003553e+00,7.500000000000008882e-01,4.312500000000002665e+00,2.500000000000002220e-01,-6.375000000000001776e+00,-7.437500000000002665e+00,9.875000000000007105e+00,1.487500000000000711e+01,-9.500000000000007105e+00,-1.025000000000000711e+01,1.018750000000000355e+01,4.375000000000001776e+00,-6.562500000000002665e+00,-5.562500000000001776e+00,-4.125000000000001776e+00,7.937500000000002665e+00,1.587500000000000711e+01,-1.500000000000000000e+00,-1.425000000000000711e+01,2.812500000000000888e+00,1.787500000000000711e+01,5.062500000000001776e+00,-1.043750000000000533e+01,-1.456250000000000711e+01,-1.193750000000000533e+01,6.625000000000001776e+00,1.681250000000000711e+01,-5.750000000000001776e+00,-2.343750000000000711e+01,-7.312500000000000888e+00,2.018750000000001066e+01,2.337500000000001066e+01,-3.937500000000001776e+00,-2.031250000000000711e+01,-3.437500000000001776e+00,4.687500000000001776e+00,-1.937500000000000666e+00,7.187500000000003553e+00,3.437500000000001776e+00,-1.406250000000000533e+01,1.875000000000000000e-01,1.931250000000000711e+01,4.500000000000001776e+00,-1.312500000000000533e+01,-8.687500000000003553e+00,1.875000000000000222e+00,2.437500000000000888e+00,2.062500000000000888e+00,9.687500000000003553e+00,4.312500000000002665e+00,-9.125000000000003553e+00,-1.118750000000000355e+01,-6.937500000000003553e+00,7.000000000000001776e+00,1.268750000000000533e+01,-1.562500000000000000e+00,-3.687500000000000888e+00,5.937500000000002665e+00,4.125000000000001776e+00,-3.687500000000001776e+00,-3.812500000000002220e+00,1.625000000000000444e+00,-1.937500000000000888e+00,-9.437500000000003553e+00,-4.125000000000001776e+00,9.250000000000003553e+00,1.425000000000000711e+01,-4.375000000000008882e-01,-1.768750000000000711e+01,-5.875000000000001776e+00,1.012500000000000355e+01,-1.562500000000001776e+00,-6.812500000000003553e+00,9.375000000000002220e-01,-3.062500000000001776e+00,-4.375000000000000000e-01,1.212500000000000533e+01,1.443750000000000711e+01,3.187500000000002220e+00,-1.150000000000000533e+01,-1.018750000000000355e+01,-1.812500000000000888e+00,-1.875000000000000278e-01,7.562500000000003553e+00,1.268750000000000533e+01,-8.750000000000017764e-01,-1.406250000000000711e+01,-3.937500000000001776e+00,1.225000000000000533e+01,1.100000000000000355e+01,-4.312500000000002665e+00,-1.962500000000001066e+01,-9.625000000000005329e+00,1.900000000000000711e+01,1.918750000000000711e+01,-1.087500000000000533e+01,-1.850000000000000711e+01,8.937500000000005329e+00,1.512500000000000711e+01,-1.287500000000000711e+01,-1.562500000000000711e+01,9.062500000000005329e+00,1.150000000000000533e+01,3.750000000000000000e-01,-5.375000000000002665e+00,-8.562500000000003553e+00,5.250000000000001776e+00,1.362500000000000533e+01,-2.812500000000001776e+00,-1.012500000000000533e+01,-4.687500000000001776e+00,-2.500000000000002220e-01,1.375000000000000666e+00,-5.187500000000001776e+00,-4.125000000000001776e+00,2.562500000000000888e+00,3.312500000000001776e+00,8.125000000000003553e+00,1.875000000000008882e-01,-1.200000000000000533e+01,1.875000000000000888e+00,7.937500000000003553e+00,-3.625000000000001776e+00,1.000000000000000000e+00,5.375000000000001776e+00,2.062500000000000888e+00,4.562500000000001776e+00,-5.312500000000001776e+00,-1.556250000000000711e+01,-2.812500000000001776e+00,9.937500000000003553e+00,7.875000000000002665e+00,-1.312500000000000888e+00,-5.750000000000002665e+00,3.000000000000001776e+00,6.375000000000003553e+00,-6.875000000000006661e-01,-4.000000000000001776e+00,-2.750000000000000888e+00,4.687500000000001776e+00,5.750000000000001776e+00,-3.125000000000001776e+00,-3.625000000000001776e+00,-4.750000000000001776e+00,-8.750000000000003553e+00,1.500000000000000000e+00,8.500000000000003553e+00,2.687500000000001332e+00,-1.875000000000000888e+00,-6.375000000000002665e+00,-1.187500000000000000e+00,4.562500000000002665e+00,-3.375000000000000888e+00,-1.062500000000000444e+00,4.750000000000001776e+00,-2.500000000000004441e-01,-4.250000000000001776e+00,-7.062500000000003553e+00,-1.812500000000000444e+00,1.075000000000000533e+01,6.375000000000002665e+00,-1.156250000000000355e+01,-9.937500000000003553e+00,8.000000000000003553e+00,1.093750000000000355e+01,3.937500000000001332e+00,5.437500000000001776e+00,6.875000000000000000e-01,-1.268750000000000533e+01,-6.500000000000002665e+00,7.437500000000002665e+00,4.250000000000001776e+00,3.250000000000001776e+00,4.125000000000001776e+00,-7.875000000000003553e+00,-8.812500000000003553e+00,3.312500000000001332e+00,5.500000000000002665e+00,1.562500000000000666e+00,-1.750000000000000888e+00,-6.875000000000002665e+00,-6.500000000000002665e+00,7.937500000000002665e+00,1.343750000000000533e+01,-2.687500000000001776e+00,-7.187500000000003553e+00,-1.437500000000000444e+00,-5.062500000000001776e+00,2.312500000000001776e+00,1.087500000000000533e+01,-1.312500000000000888e+00,-5.250000000000002665e+00,5.250000000000001776e+00,1.875000000000000444e+00,-1.043750000000000533e+01,-8.750000000000003553e+00,4.187500000000001776e+00,8.312500000000003553e+00,4.750000000000001776e+00,4.312500000000001776e+00,1.500000000000000888e+00,-6.500000000000003553e+00,-4.687500000000001776e+00,6.937500000000003553e+00,2.562500000000001776e+00,-5.937500000000003553e+00,1.375000000000000444e+00,-1.500000000000000000e+00,-7.875000000000002665e+00,5.125000000000002665e+00,6.062500000000002665e+00,-5.375000000000002665e+00,3.187500000000001776e+00,4.937500000000002665e+00,-1.025000000000000355e+01,-5.375000000000001776e+00,1.031250000000000533e+01,9.062500000000003553e+00,-3.750000000000001776e+00,-7.312500000000003553e+00,2.187500000000000888e+00,-3.125000000000000000e-01,-7.562500000000003553e+00,5.125000000000001776e+00,9.437500000000003553e+00,-6.875000000000003553e+00,-7.687500000000003553e+00,8.125000000000003553e+00,1.350000000000000711e+01,4.312500000000002665e+00,-1.081250000000000533e+01,-1.568750000000000888e+01,6.250000000000000000e-01,1.325000000000000711e+01,2.562500000000001776e+00,-8.000000000000003553e+00,-6.625000000000002665e+00,-4.375000000000000000e-01,1.050000000000000355e+01,1.106250000000000533e+01,-6.125000000000001776e+00,-1.743750000000000711e+01,-5.562500000000001776e+00,1.106250000000000533e+01,7.500000000000003553e+00,-2.125000000000001332e+00,2.437500000000000888e+00,8.562500000000003553e+00,9.375000000000000000e-01,-1.356250000000000533e+01,-1.162500000000000355e+01,6.000000000000002665e+00,8.687500000000003553e+00,4.374999999999997780e-01,1.937500000000000666e+00,-6.875000000000004441e-01,-1.025000000000000533e+01,-6.937500000000003553e+00,4.312500000000001776e+00,7.062500000000003553e+00,2.687500000000001332e+00,1.750000000000000888e+00,2.562500000000001332e+00,-7.250000000000003553e+00,-1.037500000000000355e+01,6.812500000000002665e+00,8.312500000000003553e+00,-7.125000000000003553e+00,-1.687500000000001776e+00,6.937500000000002665e+00,-3.125000000000001776e+00,-6.687500000000003553e+00,5.625000000000004441e-01,3.000000000000001332e+00,2.750000000000001332e+00,2.000000000000000888e+00,-2.750000000000001776e+00,-3.312500000000001776e+00,4.500000000000001776e+00,2.812500000000000888e+00,-7.562500000000003553e+00,-5.187500000000002665e+00,5.062500000000001776e+00,6.375000000000002665e+00,4.625000000000001776e+00,2.687500000000001332e+00,-6.687500000000003553e+00,-8.500000000000003553e+00,1.187500000000000444e+00,6.562500000000003553e+00,4.875000000000002665e+00,-3.312500000000000888e+00,-1.006250000000000355e+01,-1.375000000000000888e+00,1.362500000000000711e+01,7.812500000000004441e+00,-1.056250000000000355e+01,-8.687500000000003553e+00,2.875000000000000888e+00,2.812500000000000888e+00,-1.000000000000000444e+00,-2.250000000000000888e+00,2.937500000000001332e+00,6.562500000000002665e+00,-1.875000000000000888e+00,-7.875000000000003553e+00,-7.250000000000003553e+00,-1.875000000000000000e-01,1.018750000000000533e+01,1.125000000000001776e+00,-8.937500000000003553e+00,5.562500000000001776e+00,1.087500000000000355e+01,-4.375000000000002665e+00,-6.312500000000003553e+00,3.562500000000001776e+00,-7.500000000000000000e-01,-7.937500000000003553e+00,1.187500000000000888e+00,6.000000000000003553e+00,1.375000000000000444e+00,3.250000000000001776e+00,6.875000000000008882e-01,-2.187500000000000888e+00,-1.062500000000000666e+00,-5.062500000000002665e+00,-1.875000000000000000e-01,6.500000000000003553e+00,4.437500000000001776e+00,1.125000000000000666e+00,-7.875000000000003553e+00,-8.687500000000003553e+00,4.750000000000003553e+00,8.937500000000003553e+00,1.250000000000000000e-01,-1.875000000000000222e+00,3.250000000000001776e+00,-5.812500000000002665e+00,-1.125000000000000533e+01,4.375000000000001776e+00,7.500000000000003553e+00,1.250000000000000278e-01,4.687500000000001776e+00,3.062500000000000888e+00,-6.000000000000002665e+00,-9.250000000000003553e+00,-4.562500000000001776e+00,5.500000000000001776e+00,2.000000000000000000e+00,-4.437500000000001776e+00,6.750000000000003553e+00,8.750000000000003553e+00,-5.625000000000003553e+00,-1.031250000000000533e+01,-3.187500000000001776e+00,4.375000000000000555e-01,1.875000000000002776e-01,3.750000000000002220e+00,4.125000000000001776e+00,5.062500000000001776e+00,5.562500000000002665e+00,-9.812500000000005329e+00,-1.531250000000000711e+01,6.687500000000003553e+00,1.500000000000000711e+01,-1.687500000000000888e+00,-6.625000000000003553e+00,-2.437500000000001332e+00,-1.062500000000000666e+00,8.687500000000003553e+00,9.125000000000003553e+00,-1.562500000000000222e+00,-4.062500000000001776e+00,-6.875000000000002220e-01,8.500000000000003553e+00,7.812500000000003553e+00,-7.000000000000003553e+00,-6.062500000000003553e+00,4.062500000000001776e+00,-1.437500000000000000e+00,-7.187500000000003553e+00,1.937500000000000444e+00,9.875000000000003553e+00,8.375000000000003553e+00,7.062500000000002665e+00,2.187499999999999556e+00,-1.225000000000000533e+01,-1.331250000000000355e+01,1.100000000000000711e+01,2.400000000000001421e+01,3.875000000000001776e+00,-1.325000000000000711e+01,-9.687500000000005329e+00,-9.312500000000005329e+00,-1.043750000000000533e+01,-4.000000000000001776e+00,-1.250000000000000555e-01,-6.250000000000002776e-02,-6.250000000000002776e-02,-1.250000000000000555e-01,6.250000000000002776e-02,2.500000000000001110e-01,6.250000000000002776e-02,-6.250000000000002776e-02,6.250000000000002776e-02,-6.250000000000002776e-02,-1.875000000000000833e-01,6.250000000000002776e-02,6.250000000000002776e-02,-1.875000000000000833e-01,-6.250000000000002776e-02,1.250000000000000555e-01,6.250000000000002776e-02,6.250000000000002776e-02,1.250000000000000555e-01,-6.250000000000002776e-02,-2.500000000000001110e-01,0.000000000000000000e+00,3.125000000000001665e-01,1.250000000000000833e-01,-2.500000000000001110e-01,-2.500000000000001110e-01,-1.250000000000000555e-01,0.000000000000000000e+00,2.500000000000001110e-01,2.500000000000001110e-01,6.250000000000002776e-02,-1.250000000000000555e-01,-2.500000000000001110e-01,0.000000000000000000e+00,2.500000000000001110e-01,0.000000000000000000e+00,-2.500000000000001110e-01,0.000000000000000000e+00,2.500000000000001110e-01,0.000000000000000000e+00,-2.500000000000001110e-01,0.000000000000000000e+00,2.500000000000001110e-01,6.250000000000002776e-02,-1.875000000000000833e-01,-2.500000000000001110e-01,-6.250000000000002776e-02,2.500000000000001110e-01,1.875000000000001110e-01,0.000000000000000000e+00,6.250000000000002776e-02,-2.625000000000000888e+00,-1.193750000000000355e+01,-1.781250000000000711e+01,-5.000000000000001776e+00,1.125000000000000355e+01,5.625000000000001776e+00,-8.000000000000003553e+00,-6.250000000000001776e+00,3.125000000000000888e+00,1.037500000000000355e+01,1.250000000000000711e+01,1.625000000000000888e+00,-1.112500000000000533e+01,-8.812500000000005329e+00,4.500000000000001776e+00,1.106250000000000711e+01,9.375000000000017764e-01,-6.812500000000001776e+00,-1.250000000000000444e+00,6.249999999999911182e-02,-2.625000000000001776e+00,-2.499999999999991118e-01,-1.562500000000000222e+00,-4.187500000000002665e+00,-3.750000000000011102e-01,5.937500000000002665e+00,9.187500000000005329e+00,2.250000000000001776e+00,-6.062500000000001776e+00,-3.125000000000001332e+00,3.000000000000000888e+00,3.562500000000000888e+00,4.250000000000001776e+00,6.562500000000003553e+00,1.250000000000004441e-01,-6.312500000000002665e+00,-3.812500000000001776e+00,1.125000000000000222e+00,8.187500000000003553e+00,3.125000000000001776e+00,-1.443750000000000533e+01,-1.593750000000000533e+01,-3.750000000000000000e-01,1.418750000000000533e+01,1.581250000000000533e+01,-3.125000000000017764e-01,-1.512500000000000711e+01,-7.875000000000003553e+00,9.750000000000003553e+00,9.875000000000003553e+00,-4.000000000000000888e+00,-5.937500000000002665e+00,3.062500000000000888e+00,1.206250000000000533e+01,8.437500000000003553e+00,-7.437500000000003553e+00,-5.562500000000002665e+00,1.875000000000000888e+00,-7.312500000000003553e+00,-5.437500000000002665e+00,1.231250000000000355e+01,1.593750000000000533e+01,-3.375000000000001776e+00,-1.212500000000000533e+01,2.750000000000001776e+00,2.187500000000001776e+00,-7.062500000000003553e+00,2.062500000000001332e+00,4.312500000000001776e+00,3.125000000000002220e-01,4.125000000000002665e+00,-5.187500000000001776e+00,-1.475000000000000711e+01,-2.500000000000008882e-01,1.437500000000000711e+01,5.062500000000001776e+00,-7.375000000000003553e+00,7.500000000000008882e-01,4.312500000000001776e+00,-8.875000000000003553e+00,-7.750000000000003553e+00,6.125000000000001776e+00,8.812500000000003553e+00,3.687500000000002220e+00,-3.687500000000001332e+00,-8.250000000000003553e+00,2.625000000000001776e+00,1.137500000000000533e+01,1.437500000000000000e+00,-8.875000000000003553e+00,-7.875000000000002665e+00,2.312500000000000888e+00,5.312500000000001776e+00,-6.125000000000003553e+00,-5.375000000000002665e+00,9.812500000000003553e+00,1.075000000000000355e+01,-3.312500000000001776e+00,-5.750000000000002665e+00,3.437500000000001776e+00,3.750000000000000000e-01,-3.062500000000001776e+00,8.125000000000002220e-01,-7.250000000000003553e+00,-9.687500000000003553e+00,3.812500000000000888e+00,9.937500000000003553e+00,3.687500000000001776e+00,-5.625000000000002665e+00,-4.875000000000002665e+00,5.000000000000005551e-01,-5.625000000000000000e-01,7.125000000000002665e+00,1.043750000000000533e+01,-3.375000000000000444e+00,-3.125000000000000444e+00,3.937500000000001776e+00,1.250000000000000666e+00,3.375000000000001776e+00,-2.812500000000001776e+00,-9.937500000000005329e+00,4.250000000000001776e+00,1.100000000000000533e+01,7.312500000000003553e+00,1.037500000000000355e+01,-2.937500000000000888e+00,-1.693750000000000711e+01,-2.812500000000001776e+00,4.187500000000001776e+00,-2.437500000000000888e+00,4.437500000000003553e+00,3.500000000000002220e+00,-6.250000000000003553e+00,1.687500000000000888e+00,1.312500000000000888e+00,-1.481250000000000711e+01,-6.125000000000003553e+00,1.137500000000000533e+01,3.750000000000000000e-01,-7.375000000000003553e+00,8.000000000000003553e+00,1.068750000000000355e+01,-4.187500000000001776e+00,-1.062500000000000355e+01,-3.250000000000000888e+00,5.437500000000002665e+00,2.625000000000000888e+00,-6.250000000000003553e+00,-4.375000000000002665e+00,2.220446049250313081e-16,-6.375000000000001776e+00,-3.750000000000000888e+00,1.012500000000000355e+01,1.143750000000000533e+01,-5.000000000000000000e-01,-1.218750000000000533e+01,-7.937500000000003553e+00,1.137500000000000533e+01,1.468750000000000711e+01,-6.812500000000003553e+00,-1.743750000000000711e+01,-1.625000000000001776e+00,1.081250000000000355e+01,4.375000000000001776e+00,1.187500000000000888e+00,3.812500000000001776e+00,-7.312500000000002665e+00,-1.312500000000000533e+01,1.375000000000000000e+00,7.937500000000002665e+00,5.437500000000002665e+00,6.625000000000003553e+00,-4.187500000000001776e+00,-1.475000000000000711e+01,6.250000000000000000e-01,1.631250000000000711e+01,2.187500000000000000e+00,-1.537500000000000711e+01,-4.750000000000001776e+00,1.281250000000000533e+01,1.137500000000000533e+01,-5.625000000000004441e-01,-1.087500000000000533e+01,-1.437500000000000711e+01,-4.562500000000001776e+00,1.275000000000000533e+01,1.375000000000000533e+01,-6.250000000000001776e+00,-1.393750000000000533e+01,8.750000000000000000e-01,9.312500000000003553e+00,5.062500000000002665e+00,-1.250000000000000222e+00,-3.750000000000001776e+00,-3.125000000000001332e+00,-5.250000000000002665e+00,1.187500000000000000e+00,1.293750000000000533e+01,7.437500000000003553e+00,-7.937500000000003553e+00,-9.187500000000003553e+00,4.062500000000002665e+00,5.312500000000003553e+00,-8.812500000000003553e+00,-3.812500000000001776e+00,1.337500000000000533e+01,3.125000000000000000e+00,-1.312500000000000711e+01,-8.125000000000000000e-01,1.075000000000000533e+01,9.375000000000000000e-01,-9.562500000000005329e+00,-7.750000000000004441e+00,5.187500000000002665e+00,9.187500000000003553e+00,1.875000000000000888e+00,-5.000000000000002220e-01,-4.687500000000001776e+00,-2.375000000000000888e+00,5.937500000000002665e+00,-3.562500000000001776e+00,-1.343750000000000711e+01,1.187500000000000888e+00,1.475000000000000711e+01,5.000000000000000000e-01,-8.812500000000003553e+00,4.937500000000002665e+00,4.562500000000002665e+00,-5.625000000000001776e+00,-4.250000000000001776e+00,-2.500000000000000000e-01,8.125000000000003553e+00,5.125000000000002665e+00,-1.187500000000000355e+01,-3.687500000000000888e+00,1.431250000000000711e+01,5.625000000000000000e-01,-1.262500000000000533e+01,2.312500000000001776e+00,7.812500000000003553e+00,-2.062500000000000444e+00,-4.812500000000001776e+00,-3.750000000000001776e+00,2.375000000000000888e+00,9.687500000000003553e+00,7.312500000000003553e+00,-2.125000000000000888e+00,-5.187500000000002665e+00,-8.125000000000004441e-01,-5.062500000000002665e+00,-4.312500000000001776e+00,6.500000000000003553e+00,3.812500000000001776e+00,-1.125000000000000666e+00,1.937500000000000888e+00,-1.625000000000000888e+00,-8.375000000000003553e+00,-1.750000000000000888e+00,1.206250000000000533e+01,5.937500000000002665e+00,-1.168750000000000355e+01,-8.875000000000003553e+00,6.937500000000003553e+00,8.062500000000003553e+00,-6.437500000000003553e+00,-1.437500000000000711e+01,-4.500000000000001776e+00,1.168750000000000355e+01,1.393750000000000533e+01,-2.000000000000001776e+00,-9.375000000000003553e+00,2.812500000000000888e+00,7.125000000000002665e+00,-2.125000000000000888e+00,-9.437500000000003553e+00,-6.000000000000001776e+00,1.037500000000000355e+01,1.181250000000000355e+01,-9.187500000000003553e+00,-1.168750000000000355e+01,2.562500000000000888e+00,-1.875000000000000000e-01,-2.187500000000000888e+00,8.500000000000003553e+00,2.625000000000001776e+00,-6.937500000000003553e+00,-4.375000000000000000e-01,1.062500000000000888e+00,2.312500000000001332e+00,8.062500000000003553e+00,1.000000000000000000e+00,-1.043750000000000533e+01,-1.068750000000000533e+01,-2.500000000000000000e-01,6.375000000000002665e+00,5.250000000000001776e+00,5.937500000000002665e+00,-1.187500000000000000e+00,-8.500000000000003553e+00,2.187500000000000888e+00,1.068750000000000533e+01,8.875000000000005329e+00,5.062500000000002665e+00,-3.250000000000002665e+00,-7.750000000000004441e+00,-3.125000000000001776e+00,7.187500000000003553e+00,1.343750000000000711e+01,1.062500000000000355e+01,7.437500000000003553e+00,-3.000000000000000000e+00,-1.975000000000001066e+01,-1.468750000000000711e+01,6.500000000000003553e+00,7.625000000000003553e+00,-8.812500000000003553e+00,-1.437500000000000711e+01,-1.375000000000000888e+00,1.006250000000000355e+01,-6.875000000000008882e-01,-1.337500000000000711e+01
-8.500000000000000000e+00,2.200000000000000355e+01,-2.125000000000000355e+01,7.000000000000000888e+00,6.250000000000001776e+00,-3.750000000000000888e+00,1.600000000000000355e+01,-3.100000000000000711e+01,2.950000000000000711e+01,-1.950000000000000711e+01,3.750000000000001332e+00,-1.600000000000000355e+01,2.125000000000000355e+01,-1.750000000000000222e+00,-1.025000000000000178e+01,2.525000000000000711e+01,-2.150000000000000355e+01,-7.750000000000002665e+00,1.775000000000000355e+01,-9.250000000000001776e+00,1.300000000000000355e+01,3.000000000000000000e+00,-2.350000000000000711e+01,2.825000000000000711e+01,-2.500000000000000711e+01,2.375000000000000711e+01,-2.525000000000000711e+01,2.950000000000000711e+01,-2.975000000000000711e+01,1.275000000000000178e+01,5.000000000000001776e+00,-1.475000000000000355e+01,2.950000000000000711e+01,-3.150000000000000711e+01,6.250000000000000888e+00,2.050000000000000355e+01,-2.025000000000000355e+01,-2.750000000000000888e+00,5.250000000000001776e+00,-1.125000000000000355e+01,2.800000000000000711e+01,-3.450000000000000711e+01,1.775000000000000355e+01,1.500000000000000355e+01,-3.300000000000000711e+01,3.225000000000000711e+01,-2.200000000000000711e+01,-4.000000000000001776e+00,2.225000000000000711e+01,-2.550000000000000711e+01,2.125000000000000355e+01,4.750000000000000888e+00,-3.100000000000000711e+01,1.850000000000000355e+01,4.000000000000000888e+00,1.150000000000000355e+01,-2.200000000000000711e+01,1.350000000000000355e+01,-2.150000000000000355e+01,1.625000000000000355e+01,1.175000000000000178e+01,-1.325000000000000178e+01,-2.000000000000000444e+00,-6.000000000000000888e+00,2.075000000000000355e+01,-7.750000000000000888e+00,-1.525000000000000355e+01,1.075000000000000355e+01,1.725000000000000355e+01,-1.975000000000000355e+01,-7.250000000000000888e+00,1.800000000000000355e+01,-1.000000000000000355e+01,1.550000000000000355e+01,-1.200000000000000355e+01,-1.550000000000000355e+01,2.150000000000000711e+01,-8.250000000000001776e+00,3.000000000000000888e+00,1.150000000000000355e+01,-9.000000000000003553e+00,-7.000000000000001776e+00,4.250000000000000888e+00,6.000000000000001776e+00,-1.700000000000000355e+01,1.900000000000000355e+01,-1.375000000000000355e+01,-7.750000000000002665e+00,2.925000000000000711e+01,-3.350000000000000711e+01,3.150000000000000711e+01,-3.500000000000000711e+01,3.200000000000000711e+01,-2.650000000000000711e+01,2.300000000000000711e+01,-1.825000000000000355e+01,1.250000000000000178e+01,9.500000000000001776e+00,-2.025000000000000355e+01,-2.000000000000000000e+00,2.850000000000000711e+01,-2.250000000000000355e+01,-9.000000000000003553e+00,1.950000000000000711e+01,5.000000000000000000e+00,-2.350000000000000711e+01,5.250000000000001776e+00,1.900000000000000355e+01,-2.375000000000000711e+01,1.275000000000000355e+01,1.725000000000000355e+01,-2.800000000000000711e+01,1.650000000000000355e+01,1.500000000000000000e+00,-1.525000000000000355e+01,-3.500000000000000000e+00,1.075000000000000178e+01,7.000000000000001776e+00,5.250000000000001776e+00,-1.350000000000000355e+01,4.500000000000000888e+00,-1.800000000000000355e+01,2.800000000000000711e+01,-2.975000000000000711e+01,3.125000000000000711e+01,-2.825000000000000711e+01,1.250000000000000355e+01,1.850000000000000355e+01,-3.650000000000000711e+01,2.700000000000000711e+01,-2.025000000000000711e+01,2.300000000000000711e+01,-2.500000000000000711e+01,1.975000000000000355e+01,7.250000000000002665e+00,-2.475000000000000711e+01,2.000000000000001776e+00,2.600000000000000711e+01,-3.625000000000000711e+01,3.025000000000000711e+01,-7.500000000000000000e-01,-9.500000000000001776e+00,-6.500000000000001776e+00,-4.500000000000000000e+00,1.475000000000000355e+01,1.425000000000000355e+01,-3.925000000000000711e+01,3.900000000000000711e+01,-3.175000000000000711e+01,9.750000000000003553e+00,2.275000000000000355e+01,-3.200000000000000711e+01,1.900000000000000355e+01,-1.500000000000000000e+00,-1.250000000000000355e+01,-5.000000000000001776e+00,2.225000000000000711e+01,-2.025000000000000355e+01,1.925000000000000355e+01,4.500000000000001776e+00,-2.675000000000000711e+01,2.350000000000000711e+01,-2.450000000000000711e+01,2.850000000000000711e+01,-2.475000000000000711e+01,1.950000000000000711e+01,-1.425000000000000355e+01,2.250000000000000888e+00,-1.200000000000000355e+01,3.650000000000000711e+01,-3.325000000000000711e+01,2.750000000000000711e+01,-1.625000000000000355e+01,-9.250000000000001776e+00,4.750000000000000000e+00,2.225000000000000711e+01,-1.800000000000000355e+01,2.475000000000000355e+01,-2.850000000000000711e+01,1.175000000000000355e+01,-5.000000000000000888e+00,-2.000000000000000355e+01,2.975000000000000711e+01,-3.000000000000000000e+00,-2.250000000000000711e+01,2.175000000000000711e+01,5.750000000000001776e+00,-2.475000000000000711e+01,3.000000000000001776e+00,2.400000000000000711e+01,-2.750000000000000711e+01,6.000000000000001776e+00,1.925000000000000711e+01,-3.000000000000001776e+00,-2.475000000000000711e+01,2.300000000000000711e+01,-6.000000000000001776e+00,9.250000000000001776e+00,8.250000000000001776e+00,-3.575000000000000711e+01,2.925000000000000711e+01,-2.350000000000000711e+01,7.000000000000000888e+00,1.525000000000000355e+01,-3.650000000000000711e+01,3.400000000000000711e+01,1.500000000000000000e+00,-3.350000000000000711e+01,3.425000000000000711e+01,-2.750000000000000000e+00,-2.675000000000000711e+01,2.275000000000000355e+01,2.500000000000000888e+00,-4.000000000000000888e+00,-2.175000000000000355e+01,2.200000000000000355e+01,-2.500000000000000000e-01,1.550000000000000355e+01,-2.825000000000000711e+01,8.250000000000001776e+00,5.500000000000001776e+00,-8.250000000000001776e+00,1.750000000000000444e+00,1.900000000000000355e+01,-2.875000000000000711e+01,3.000000000000001776e+00,1.775000000000000355e+01,1.750000000000000000e+00,-3.000000000000000711e+01,2.225000000000000355e+01,1.025000000000000355e+01,-1.825000000000000355e+01,9.000000000000001776e+00,-1.325000000000000355e+01,2.200000000000000711e+01,-2.325000000000000711e+01,2.225000000000000355e+01,-2.325000000000000711e+01,5.000000000000001776e+00,2.400000000000000711e+01,-1.575000000000000355e+01,-1.825000000000000355e+01,2.850000000000000711e+01,-6.500000000000000888e+00,-1.550000000000000355e+01,2.275000000000000711e+01,-2.675000000000000711e+01,1.675000000000000355e+01,1.500000000000000444e+00,9.500000000000003553e+00,-2.375000000000000711e+01,9.250000000000001776e+00,9.000000000000001776e+00,5.250000000000001776e+00,-1.675000000000000355e+01,1.050000000000000355e+01,-1.325000000000000355e+01,-6.500000000000001776e+00,3.250000000000000711e+01,-2.200000000000000355e+01,-5.000000000000004441e-01,-1.250000000000000355e+01,1.475000000000000355e+01,1.075000000000000178e+01,-2.500000000000000000e-01,-1.650000000000000355e+01,-6.000000000000001776e+00,3.200000000000000711e+01,-3.950000000000000711e+01,2.525000000000000355e+01,6.250000000000000888e+00,-2.175000000000000355e+01,1.750000000000000000e+00,1.700000000000000355e+01,3.000000000000000000e+00,-2.200000000000000355e+01,1.825000000000000355e+01,-2.250000000000000711e+01,3.075000000000000711e+01,-3.150000000000000711e+01,2.300000000000000711e+01,4.750000000000001776e+00,-2.300000000000000711e+01,2.025000000000000355e+01,-2.150000000000000711e+01,7.000000000000002665e+00,1.525000000000000355e+01,-9.250000000000001776e+00,-1.025000000000000178e+01,2.225000000000000711e+01,-2.050000000000000711e+01,2.250000000000000711e+01,-2.925000000000000711e+01,2.700000000000000711e+01,-1.725000000000000355e+01,8.000000000000001776e+00,-1.500000000000000355e+01,1.625000000000000355e+01,-6.250000000000001776e+00,1.650000000000000355e+01,-2.150000000000000711e+01,-6.000000000000001776e+00,2.250000000000000711e+01,-8.000000000000001776e+00,-1.700000000000000355e+01,2.575000000000000711e+01,-1.875000000000000355e+01,2.500000000000000000e-01,1.325000000000000355e+01,-7.000000000000001776e+00,1.475000000000000355e+01,-1.250000000000000355e+01,-1.100000000000000178e+01,2.100000000000000355e+01,-2.350000000000000711e+01,1.725000000000000355e+01,-1.750000000000000444e+00,6.750000000000001776e+00,-1.125000000000000178e+01,-9.250000000000001776e+00,2.300000000000000355e+01,-1.400000000000000178e+01,1.525000000000000355e+01,-1.575000000000000355e+01,-1.275000000000000355e+01,2.000000000000000355e+01,5.750000000000000888e+00,-2.500000000000000000e-01,-2.400000000000000711e+01,1.100000000000000355e+01,2.125000000000000355e+01,-1.900000000000000355e+01,-1.100000000000000178e+01,1.050000000000000178e+01,1.625000000000000355e+01,-2.875000000000000711e+01,3.250000000000000711e+01,-3.150000000000000711e+01,8.250000000000003553e+00,2.050000000000000355e+01,-1.700000000000000355e+01,-2.000000000000000888e+00,8.500000000000001776e+00,-1.500000000000000355e+01,1.525000000000000355e+01,-4.000000000000000000e+00,-1.850000000000000355e+01,3.125000000000000711e+01,-2.975000000000000711e+01,1.975000000000000355e+01,6.250000000000000888e+00,-2.325000000000000711e+01,7.000000000000002665e+00,1.875000000000000355e+01,-2.275000000000000711e+01,5.500000000000000888e+00,1.800000000000000355e+01,-2.875000000000000711e+01,2.925000000000000711e+01,-1.375000000000000355e+01,-5.250000000000000888e+00,-6.000000000000000888e+00,1.900000000000000355e+01,-1.650000000000000355e+01,2.100000000000000711e+01,-2.350000000000000711e+01,9.750000000000001776e+00,1.150000000000000178e+01,-1.950000000000000355e+01,1.900000000000000355e+01,-1.750000000000000355e+01,6.500000000000001776e+00,1.150000000000000178e+01,-1.525000000000000355e+01,6.500000000000001776e+00,5.000000000000000000e-01,-6.000000000000001776e+00,-8.750000000000003553e+00,2.750000000000000711e+01,-2.800000000000000711e+01,2.200000000000000711e+01,-1.050000000000000178e+01,-1.300000000000000355e+01,2.950000000000000711e+01,-2.475000000000000711e+01,2.750000000000000000e+00,1.900000000000000711e+01,-2.725000000000000711e+01,2.775000000000000711e+01,-2.725000000000000711e+01,1.550000000000000355e+01,-1.050000000000000178e+01,2.300000000000000711e+01,-2.075000000000000711e+01,-3.000000000000000000e+00,8.750000000000001776e+00,3.250000000000000888e+00,-7.500000000000002220e-01,-4.750000000000000888e+00,1.750000000000000355e+01,-2.000000000000000711e+01,-2.500000000000000000e+00,1.400000000000000355e+01,-4.500000000000000888e+00,-6.250000000000000888e+00,1.550000000000000355e+01,-7.500000000000001776e+00,-1.700000000000000355e+01,2.575000000000000711e+01,-2.175000000000000355e+01,2.125000000000000355e+01,-1.850000000000000355e+01,1.400000000000000355e+01,-1.525000000000000355e+01,2.250000000000000000e+00,1.900000000000000711e+01,-1.075000000000000355e+01,-1.100000000000000178e+01,1.950000000000000355e+01,-1.675000000000000355e+01,-1.000000000000000000e+00,1.725000000000000355e+01,-6.250000000000000888e+00,-1.425000000000000355e+01,2.125000000000000355e+01,-1.275000000000000178e+01,7.750000000000001776e+00,-1.775000000000000355e+01,1.250000000000000355e+01,3.250000000000000888e+00,-8.000000000000001776e+00,1.350000000000000355e+01,-1.250000000000000355e+01,1.500000000000000355e+01,-2.500000000000000711e+01,2.050000000000000711e+01,1.750000000000000000e+00,-1.725000000000000355e+01,1.175000000000000355e+01,5.250000000000000888e+00,-1.875000000000000355e+01,7.750000000000001776e+00,1.725000000000000355e+01,-2.525000000000000711e+01,9.500000000000001776e+00,1.525000000000000355e+01,-2.150000000000000711e+01,1.500000000000000000e+00,1.150000000000000355e+01,-5.750000000000000888e+00,1.075000000000000178e+01,-1.975000000000000355e+01,1.100000000000000178e+01,8.000000000000001776e+00,-2.100000000000000355e+01,1.050000000000000178e+01,1.075000000000000178e+01,-9.500000000000001776e+00,-9.750000000000001776e+00,1.500000000000000355e+01,-5.000000000000000888e+00,1.100000000000000178e+01,-1.025000000000000178e+01,-2.750000000000000888e+00,-9.750000000000001776e+00,2.275000000000000355e+01,-8.750000000000000000e+00,-6.750000000000001776e+00,8.500000000000001776e+00,-1.325000000000000355e+01,1.125000000000000178e+01,5.500000000000001776e+00,-3.000000000000000888e+00,-8.500000000000001776e+00,-5.750000000000000888e+00,1.075000000000000178e+01,6.250000000000001776e+00,-1.375000000000000355e+01,1.025000000000000178e+01,-2.750000000000000444e+00,8.000000000000001776e+00,-8.500000000000001776e+00,-9.500000000000001776e+00,5.500000000000001776e+00,1.450000000000000178e+01,-2.050000000000000355e+01,1.725000000000000355e+01,-7.750000000000001776e+00,2.750000000000000888e+00,-1.575000000000000355e+01,1.925000000000000711e+01,-1.350000000000000355e+01,1.600000000000000355e+01,-1.600000000000000355e+01,1.350000000000000355e+01,-1.500000000000000888e+00,-1.675000000000000355e+01,9.000000000000001776e+00,1.550000000000000355e+01,-2.025000000000000711e+01,2.000000000000000888e+00,1.400000000000000355e+01,-9.250000000000001776e+00,-7.000000000000001776e+00,1.300000000000000355e+01,-1.375000000000000355e+01,1.650000000000000355e+01,-1.650000000000000355e+01,2.000000000000000711e+01,-2.525000000000000711e+01,1.950000000000000711e+01,-3.250000000000000888e+00,-5.000000000000001776e+00,-2.000000000000000444e+00,1.250000000000000444e+00,9.500000000000001776e+00,-1.225000000000000355e+01,1.450000000000000355e+01,-5.250000000000000888e+00,-1.575000000000000355e+01,2.200000000000000711e+01,-2.100000000000000355e+01,2.500000000000000711e+01,-2.000000000000000711e+01,1.150000000000000355e+01,-1.825000000000000355e+01,1.875000000000000711e+01,3.000000000000000000e+00,-8.500000000000001776e+00,-9.500000000000001776e+00,1.600000000000000355e+01,-1.075000000000000355e+01,5.000000000000000888e+00,1.250000000000000222e+00,-1.200000000000000178e+01,2.225000000000000711e+01,-1.525000000000000355e+01,5.000000000000000000e-01,5.000000000000001776e+00,-1.575000000000000355e+01,1.725000000000000355e+01,4.250000000000000888e+00,-2.175000000000000711e+01,1.275000000000000355e+01,9.500000000000001776e+00,-9.500000000000001776e+00,-4.750000000000000888e+00,7.750000000000001776e+00,7.500000000000004441e-01,-6.750000000000001776e+00,-6.750000000000000888e+00,2.500000000000000711e+01,-2.850000000000000711e+01,2.175000000000000711e+01,-3.750000000000000888e+00,-1.350000000000000355e+01,2.075000000000000355e+01,-1.750000000000000355e+01,-1.000000000000000888e+00,1.925000000000000711e+01,-2.250000000000000711e+01,2.200000000000000711e+01,-1.125000000000000355e+01,-1.175000000000000178e+01,1.750000000000000355e+01,-1.125000000000000355e+01,1.725000000000000355e+01,-2.400000000000000711e+01,2.050000000000000355e+01,-3.250000000000000888e+00,-1.825000000000000355e+01,1.125000000000000355e+01,1.200000000000000178e+01,-2.175000000000000355e+01,1.825000000000000355e+01,-1.250000000000000000e+00,-1.075000000000000355e+01,1.150000000000000355e+01,-1.875000000000000711e+01,1.325000000000000355e+01,6.000000000000001776e+00,-1.800000000000000355e+01,9.750000000000001776e+00,1.400000000000000355e+01,-2.150000000000000711e+01,1.600000000000000355e+01,-2.325000000000000711e+01,2.775000000000000711e+01,-2.675000000000000711e+01,1.925000000000000355e+01,-3.500000000000000888e+00,-7.250000000000001776e+00,1.625000000000000355e+01,-6.500000000000000888e+00,-1.675000000000000355e+01,9.000000000000003553e+00,1.300000000000000355e+01,-5.750000000000000888e+00,-1.425000000000000355e+01,2.375000000000000711e+01,-2.600000000000000711e+01,1.450000000000000355e+01,1.300000000000000355e+01,-2.400000000000000711e+01,2.250000000000000711e+01,-1.875000000000000711e+01,6.750000000000001776e+00,1.675000000000000355e+01,-2.100000000000000355e+01,6.500000000000001776e+00,-1.750000000000000222e+00,1.100000000000000355e+01,-2.225000000000000711e+01,1.775000000000000355e+01,-8.500000000000001776e+00,1.325000000000000355e+01,-1.125000000000000355e+01,1.525000000000000355e+01,-9.750000000000001776e+00,-1.200000000000000355e+01,7.750000000000001776e+00,1.150000000000000355e+01,9.250000000000000000e+00,-2.900000000000000711e+01,2.225000000000000711e+01,-1.650000000000000355e+01,5.000000000000001110e-01,-2.500000000000000555e-01,0.000000000000000000e+00,0.000000000000000000e+00,0.000000000000000000e+00,0.000000000000000000e+00,-2.500000000000000555e-01,5.000000000000001110e-01,-2.500000000000000555e-01,0.000000000000000000e+00,0.000000000000000000e+00,2.500000000000000555e-01,-5.000000000000001110e-01,2.500000000000000555e-01,2.500000000000000555e-01,-5.000000000000001110e-01,2.500000000000000555e-01,0.000000000000000000e+00,0.000000000000000000e+00,0.000000000000000000e+00,0.000000000000000000e+00,2.500000000000000555e-01,-5.000000000000001110e-01,2.500000000000000555e-01,0.000000000000000000e+00,2.500000000000000555e-01,-2.500000000000000555e-01,-2.500000000000000555e-01,5.000000000000001110e-01,-7.500000000000002220e-01,7.500000000000002220e-01,-2.500000000000000555e-01,0.000000000000000000e+00,2.500000000000000555e-01,-5.000000000000001110e-01,2.500000000000000555e-01,0.000000000000000000e+00,2.500000000000000555e-01,-5.000000000000001110e-01,2.500000000000000555e-01,0.000000000000000000e+00,2.500000000000000555e-01,-5.000000000000001110e-01,2.500000000000000555e-01,0.000000000000000000e+00,2.500000000000000555e-01,-5.000000000000001110e-01,5.000000000000001110e-01,-7.500000000000002220e-01,7.500000000000002220e-01,-2.500000000000000555e-01,0.000000000000000000e+00,0.000000000000000000e+00,2.500000000000000555e-01,-5.000000000000001110e-01,-1.000000000000000178e+01,-5.750000000000001776e+00,1.350000000000000355e+01,1.000000000000000000e+00,-7.000000000000001776e+00,-3.750000000000001776e+00,7.500000000000002665e+00,-5.500000000000000888e+00,1.150000000000000178e+01,2.250000000000000888e+00,-1.350000000000000355e+01,6.500000000000000888e+00,-1.000000000000000355e+01,1.750000000000000355e+01,-4.500000000000000888e+00,-9.250000000000001776e+00,7.750000000000001776e+00,-2.250000000000000444e+00,-1.000000000000000000e+00,-4.000000000000000888e+00,1.275000000000000355e+01,-2.175000000000000355e+01,2.125000000000000355e+01,-1.825000000000000355e+01,1.825000000000000355e+01,-3.000000000000000888e+00,-9.000000000000001776e+00,8.250000000000001776e+00,-9.500000000000001776e+00,1.500000000000000355e+01,-1.500000000000000355e+01,1.400000000000000355e+01,5.000000000000000000e-01,-1.475000000000000355e+01,1.550000000000000355e+01,-1.475000000000000355e+01,9.250000000000001776e+00,8.750000000000001776e+00,-1.425000000000000355e+01,-5.250000000000000000e+00,4.500000000000000000e+00,-2.000000000000000000e+00,1.475000000000000355e+01,-3.000000000000000888e+00,-9.750000000000003553e+00,-1.250000000000000000e+00,2.500000000000000000e-01,1.700000000000000355e+01,-1.575000000000000355e+01,7.500000000000008882e-01,7.250000000000001776e+00,-1.125000000000000178e+01,2.650000000000000711e+01,-2.000000000000000355e+01,-7.500000000000000888e+00,2.550000000000000711e+01,-2.575000000000000711e+01,7.500000000000000888e+00,7.500000000000004441e-01,7.750000000000001776e+00,9.500000000000003553e+00,-3.125000000000000711e+01,2.275000000000000711e+01,2.250000000000000000e+00,-1.900000000000000355e+01,1.150000000000000178e+01,8.000000000000001776e+00,-1.900000000000000355e+01,1.825000000000000355e+01,-1.250000000000000000e+00,-2.000000000000000711e+01,1.275000000000000355e+01,-3.250000000000000888e+00,1.675000000000000355e+01,-2.100000000000000711e+01,4.000000000000000888e+00,1.675000000000000355e+01,-2.075000000000000711e+01,4.750000000000000888e+00,-1.000000000000000000e+00,1.075000000000000355e+01,-1.075000000000000355e+01,1.300000000000000355e+01,-1.475000000000000355e+01,-1.500000000000000000e+00,2.025000000000000711e+01,-1.550000000000000355e+01,6.750000000000001776e+00,-7.750000000000001776e+00,-3.250000000000000888e+00,1.650000000000000355e+01,-1.300000000000000355e+01,-5.000000000000000888e+00,1.075000000000000178e+01,1.000000000000000444e+00,3.750000000000000888e+00,-1.600000000000000355e+01,1.350000000000000355e+01,3.000000000000000888e+00,-1.900000000000000355e+01,2.150000000000000355e+01,-9.750000000000001776e+00,-1.375000000000000355e+01,1.750000000000000355e+01,-8.750000000000001776e+00,1.000000000000000178e+01,-4.000000000000000888e+00,-1.175000000000000178e+01,1.725000000000000355e+01,-1.200000000000000355e+01,-2.500000000000000888e+00,2.250000000000000711e+01,-1.575000000000000355e+01,-8.250000000000001776e+00,2.650000000000000711e+01,-2.850000000000000711e+01,1.950000000000000355e+01,2.500000000000000000e-01,-1.700000000000000355e+01,5.750000000000001776e+00,1.875000000000000355e+01,-2.475000000000000711e+01,2.450000000000000711e+01,-1.000000000000000000e+00,-2.125000000000000711e+01,6.000000000000001776e+00,1.525000000000000355e+01,-2.225000000000000711e+01,1.150000000000000355e+01,1.075000000000000355e+01,-2.050000000000000355e+01,7.750000000000001776e+00,1.250000000000000355e+01,-1.850000000000000355e+01,-6.250000000000000888e+00,1.900000000000000355e+01,-1.500000000000000000e+00,-1.900000000000000355e+01,1.675000000000000355e+01,4.500000000000000888e+00,-9.000000000000001776e+00,3.750000000000000888e+00,-1.250000000000000355e+01,1.650000000000000355e+01,-1.000000000000000178e+01,9.000000000000001776e+00,-1.900000000000000355e+01,2.050000000000000355e+01,-1.150000000000000178e+01,-1.000000000000000355e+01,2.050000000000000711e+01,-1.150000000000000355e+01,1.500000000000000355e+01,-1.725000000000000355e+01,2.500000000000000888e+00,-3.750000000000000888e+00,2.225000000000000711e+01,-1.375000000000000355e+01,-7.250000000000001776e+00,-1.000000000000000000e+00,1.050000000000000355e+01,2.500000000000000000e-01,-9.500000000000001776e+00,1.300000000000000355e+01,-1.750000000000000888e+00,-1.800000000000000355e+01,1.075000000000000355e+01,6.500000000000001776e+00,-1.125000000000000355e+01,1.275000000000000355e+01,1.500000000000000000e+00,-1.750000000000000355e+01,4.500000000000000888e+00,9.250000000000001776e+00,7.000000000000000888e+00,-1.875000000000000355e+01,2.500000000000000000e-01,1.275000000000000355e+01,-3.500000000000000444e+00,6.500000000000001776e+00,-1.075000000000000178e+01,3.000000000000000444e+00,-1.350000000000000355e+01,1.500000000000000355e+01,1.500000000000000444e+00,6.000000000000000888e+00,-2.450000000000000711e+01,1.600000000000000355e+01,1.750000000000000222e+00,-7.500000000000001776e+00,1.725000000000000355e+01,-2.675000000000000711e+01,2.675000000000000711e+01,-2.300000000000000711e+01,8.750000000000001776e+00,1.750000000000000444e+00,1.050000000000000178e+01,-1.275000000000000178e+01,2.000000000000000444e+00,-7.000000000000001776e+00,1.975000000000000711e+01,-1.600000000000000355e+01,-7.250000000000000888e+00,1.775000000000000355e+01,1.500000000000000000e+00,-1.400000000000000355e+01,-4.250000000000000888e+00,2.475000000000000711e+01,-2.225000000000000711e+01,1.450000000000000355e+01,-1.550000000000000355e+01,1.000000000000000000e+00,2.225000000000000711e+01,-2.675000000000000711e+01,2.175000000000000355e+01,-9.000000000000001776e+00,-1.175000000000000178e+01,2.200000000000000355e+01,-1.275000000000000178e+01,-1.250000000000000000e+00,-9.000000000000001776e+00,1.875000000000000355e+01,1.500000000000000000e+00,-2.225000000000000711e+01,1.600000000000000355e+01,9.500000000000001776e+00,-2.675000000000000711e+01,2.650000000000000711e+01,-2.200000000000000355e+01,9.500000000000001776e+00,1.375000000000000355e+01,-1.800000000000000355e+01,-6.000000000000000888e+00,2.000000000000000355e+01,-5.000000000000000000e-01,-1.875000000000000355e+01,6.250000000000000888e+00,1.900000000000000355e+01,-2.875000000000000711e+01,2.600000000000000711e+01,-2.200000000000000711e+01,8.750000000000001776e+00,6.750000000000000888e+00,-8.000000000000001776e+00,1.725000000000000355e+01,-2.750000000000000711e+01,2.325000000000000711e+01,-9.750000000000001776e+00,-1.100000000000000178e+01,1.675000000000000355e+01,-2.500000000000000888e+00,-1.075000000000000355e+01,1.725000000000000355e+01,-1.575000000000000355e+01,1.275000000000000355e+01,-2.125000000000000711e+01,2.075000000000000711e+01,2.250000000000000000e+00,-1.300000000000000355e+01,5.000000000000000000e-01,-5.000000000000000000e-01,1.325000000000000355e+01,-1.125000000000000178e+01,-7.500000000000000000e-01,-7.750000000000001776e+00,9.750000000000001776e+00,3.750000000000000888e+00,5.000000000000000888e+00,-1.800000000000000355e+01,9.250000000000001776e+00,9.750000000000001776e+00,-1.625000000000000355e+01,1.600000000000000355e+01,-2.325000000000000711e+01,1.450000000000000355e+01,9.750000000000001776e+00,-7.500000000000001776e+00,-1.600000000000000355e+01,1.875000000000000355e+01,-5.500000000000000888e+00,-8.750000000000001776e+00,8.250000000000001776e+00,1.400000000000000355e+01,-3.100000000000000711e+01,2.625000000000000711e+01,-1.100000000000000178e+01,-5.250000000000001776e+00,1.725000000000000355e+01,-1.050000000000000178e+01,2.750000000000000888e+00,-7.750000000000001776e+00,-2.500000000000000000e+00,1.325000000000000355e+01,-1.075000000000000355e+01,6.750000000000001776e+00,8.000000000000001776e+00,-1.900000000000000355e+01,7.000000000000000888e+00,1.325000000000000355e+01,-1.825000000000000355e+01,2.725000000000000711e+01,-2.400000000000000355e+01,1.250000000000000355e+01,-9.750000000000001776e+00,1.750000000000000444e+00,1.300000000000000355e+01,-7.250000000000002665e+00,7.500000000000002665e+00,2.250000000000000000e+00,-8.250000000000001776e+00,-1.525000000000000355e+01,1.500000000000000355e+01,3.500000000000000000e+00,-8.750000000000001776e+00,-2.500000000000000000e-01,-1.075000000000000178e+01,1.850000000000000355e+01,-5.250000000000000888e+00,-6.500000000000001776e+00
