-7.942250000000005627e+01,-8.561000000000005627e+01,-9.195375000000007049e+01,-9.762562500000009891e+01,-1.028912500000000989e+02,-1.067975000000000989e+02,-1.105006250000000989e+02,-1.135631250000000989e+02,-1.147818750000000989e+02,-1.164850000000000989e+02,-1.182193750000000989e+02,-1.195006250000000989e+02,-1.207350000000000989e+02,-1.217350000000000989e+02,-1.218443750000000989e+02,-1.216881250000000989e+02,-1.212506250000000989e+02,-1.202662500000000989e+02,-1.192506250000000989e+02,-1.170475000000000989e+02,-1.145943750000000989e+02,-1.125318750000000989e+02,-1.092193750000000989e+02,-1.060475000000000989e+02,-1.027193750000000989e+02,-9.962562500000009891e+01,-9.507875000000008470e+01,-9.192250000000007049e+01,-8.911000000000007049e+01,-8.575062500000005627e+01,-8.421937500000005627e+01,-8.189125000000005627e+01,-7.886000000000005627e+01,-7.667250000000005627e+01,-7.598500000000005627e+01,-7.556312500000005627e+01,-7.492250000000005627e+01,-7.556312500000005627e+01,-7.661000000000005627e+01,-8.014125000000005627e+01,-8.642250000000007049e+01,-9.293812500000008470e+01,-1.014225000000000989e+02,-1.102193750000000989e+02,-1.207662500000000989e+02,-1.322350000000000989e+02,-1.440162500000000989e+02,-1.557975000000000989e+02,-1.683131250000000989e+02,-1.827193750000001273e+02,-1.965475000000001842e+02,-2.120006250000001842e+02,-2.286100000000001842e+02,-2.479693750000001842e+02,-2.692506250000001842e+02,-2.931100000000001842e+02,-3.176725000000001842e+02,-3.422037500000002410e+02,-3.681412500000002410e+02,-3.945631250000003547e+02,-4.202193750000003547e+02,-4.421725000000003547e+02,-4.619381250000003547e+02,-4.775318750000003547e+02,-4.900162500000003547e+02,-4.997662500000003547e+02,-5.064381250000003547e+02,-5.101725000000003547e+02,-5.118443750000003547e+02,-5.128756250000003547e+02,-5.128912500000003547e+02,-5.129537500000003547e+02,-5.130006250000003547e+02,-5.130475000000003547e+02,-5.130943750000003547e+02,-5.131412500000003547e+02,-5.131568750000003547e+02,-5.131725000000003547e+02,-5.132037500000003547e+02,-5.131881250000003547e+02,-5.131725000000003547e+02,-5.131568750000003547e+02,-5.131568750000003547e+02,-5.131725000000003547e+02,-5.132037500000003547e+02,-5.132506250000003547e+02,-5.132506250000003547e+02,-5.132662500000003547e+02,-5.132818750000003547e+02,-5.132975000000003547e+02,-5.132975000000003547e+02,-5.132662500000003547e+02,-5.132350000000003547e+02,-5.131725000000003547e+02,-5.131725000000003547e+02,-5.131725000000003547e+02,-5.131725000000003547e+02,-5.131725000000003547e+02,-5.131725000000003547e+02,-5.131881250000003547e+02,-5.132037500000003547e+02,-5.132350000000003547e+02,-5.132350000000003547e+02,-5.132350000000003547e+02,-5.132506250000003547e+02,-5.132506250000003547e+02,-5.132350000000003547e+02,-5.132193750000003547e+02,-5.132037500000003547e+02,-5.131881250000003547e+02,-5.131725000000003547e+02,-5.131568750000003547e+02,-5.124693750000003547e+02,-5.101725000000003547e+02,-5.060943750000003547e+02,-5.001256250000003547e+02,-4.917350000000003547e+02,-4.801568750000003547e+02,-4.650787500000003547e+02,-4.458756250000003547e+02,-4.239225000000003547e+02,-4.014068750000003547e+02,-3.780318750000003547e+02,-3.537662500000002410e+02,-3.288287500000001842e+02,-3.050006250000001842e+02,-2.828600000000001842e+02,-2.630631250000001842e+02,-2.446881250000001842e+02,-2.260318750000001842e+02,-2.078600000000001842e+02,-1.899381250000001842e+02,-1.736412500000001273e+02,-1.565631250000000989e+02,-1.386568750000000989e+02,-1.195475000000000989e+02,-9.975062500000008470e+01,-8.001625000000007049e+01,-5.981312500000005627e+01,-4.003187500000004206e+01,-1.875062500000002785e+01,1.202499999999986358e+00,2.087437500000000057e+01,3.873375000000001478e+01,5.501500000000002188e+01,7.064000000000002899e+01,8.449937500000004320e+01,9.768687500000007162e+01,1.087337500000000716e+02,1.188587500000000716e+02,1.269681250000000716e+02,1.351868750000000716e+02,1.442806250000000716e+02,1.534837500000000716e+02,1.636087500000000716e+02,1.732962500000000716e+02,1.835462500000001000e+02,1.955931250000001569e+02,2.098118750000001569e+02,2.239837500000001569e+02,2.374056250000001569e+02,2.499993750000001569e+02,2.621087500000001569e+02,2.753275000000001569e+02,2.877962500000001569e+02,2.982025000000001569e+02,3.066243750000001569e+02,3.139993750000001569e+02,3.206243750000001569e+02,3.265462500000001569e+02,3.317493750000001569e+02,3.345150000000001569e+02,3.364525000000001569e+02,3.387025000000001569e+02,3.400306250000001569e+02,3.411868750000001569e+02,3.418743750000001569e+02,3.419681250000001569e+02,3.404837500000001569e+02,3.392962500000001569e+02,3.386712500000001569e+02,3.362962500000001569e+02,3.344212500000001569e+02,3.331868750000001569e+02,3.321712500000001569e+02,3.308743750000001569e+02,3.310618750000001569e+02,3.313900000000001569e+02,3.311556250000001569e+02,3.327493750000001569e+02,3.343431250000001569e+02,3.356243750000001569e+02,3.363900000000001569e+02,3.384837500000001569e+02,3.398118750000001569e+02,3.408900000000001569e+02,3.432806250000001569e+02,3.447650000000001569e+02,3.459368750000001569e+02,3.460462500000001569e+02,3.463743750000001569e+02,3.460150000000001569e+02,3.459681250000001569e+02,3.459525000000001569e+02,3.447650000000001569e+02,3.443587500000001569e+02,3.443900000000001569e+02,3.451868750000001569e+02,3.464368750000001569e+02,3.472493750000001569e+02,3.477962500000001569e+02,3.487337500000001569e+02,3.488431250000001569e+02,3.475931250000001569e+02,3.464056250000001569e+02,3.456556250000001569e+02,3.447493750000001569e+02,3.443587500000001569e+02,3.447493750000001569e+02,3.453587500000001569e+02,3.475462500000001569e+02,3.515306250000001569e+02,3.559056250000001569e+02,3.598118750000001569e+02,3.632806250000001569e+02,3.672650000000001569e+02,3.703743750000001569e+02,3.727181250000001569e+02,3.739993750000001569e+02,3.730150000000001569e+02,3.701712500000001569e+02,3.672337500000001569e+02,3.633743750000001569e+02,3.576556250000001569e+02,3.511712500000001569e+02,3.422493750000001569e+02,3.319056250000001569e+02,3.215618750000001569e+02,3.097181250000001569e+02,2.955775000000001569e+02,2.809525000000001569e+02,2.644056250000001569e+02,2.471868750000001569e+02,2.317181250000001569e+02,2.157650000000001569e+02,1.989837500000001569e+02,1.843900000000001000e+02,1.706712500000001000e+02,1.568743750000000716e+02,1.461243750000000716e+02,1.364056250000000716e+02,1.264525000000000716e+02,1.184525000000000716e+02,1.116712500000000716e+02,1.044212500000000716e+02,9.774937500000007162e+01,9.242125000000004320e+01,8.559312500000004320e+01,7.898375000000002899e+01,7.310875000000002899e+01,6.729625000000002899e+01,6.312437500000002899e+01,5.971812500000002899e+01,5.779625000000002899e+01,5.598375000000002899e+01,5.629625000000002899e+01,5.717125000000002899e+01,5.956187500000002899e+01,6.215562500000002899e+01,6.301500000000002899e+01,6.399937500000002899e+01,6.456187500000002899e+01,6.599937500000002899e+01,6.687437500000002899e+01,6.784312500000002899e+01,6.699937500000002899e+01,6.604625000000002899e+01,6.671812500000002899e+01,6.789000000000002899e+01,6.862437500000002899e+01,6.906187500000002899e+01,6.965562500000002899e+01,6.942125000000002899e+01,7.032750000000002899e+01,7.245250000000002899e+01,7.390562500000002899e+01,7.415562500000002899e+01,7.471812500000002899e+01,7.503062500000002899e+01,7.531187500000002899e+01,7.678062500000002899e+01,7.724937500000002899e+01,7.587437500000002899e+01,7.390562500000002899e+01,7.364000000000002899e+01,7.368687500000002899e+01,7.329625000000002899e+01,7.214000000000002899e+01,7.089000000000002899e+01,7.112437500000002899e+01,7.268687500000002899e+01,7.568687500000002899e+01,7.703062500000002899e+01,7.834312500000002899e+01,7.974937500000002899e+01,8.276500000000002899e+01,8.551500000000002899e+01,8.760875000000002899e+01,8.889000000000002899e+01,8.887437500000002899e+01,8.995250000000002899e+01,9.067125000000002899e+01,9.159312500000002899e+01,9.103062500000002899e+01,9.037437500000002899e+01,8.912437500000002899e+01,8.789000000000002899e+01,8.703062500000002899e+01,8.634312500000002899e+01,8.487437500000002899e+01,8.385875000000002899e+01,8.306187500000002899e+01,8.176500000000002899e+01,8.129625000000002899e+01,8.112437500000002899e+01,8.143687500000002899e+01,8.040562500000002899e+01,8.029625000000002899e+01,8.009312500000002899e+01,8.021812500000002899e+01,8.040562500000002899e+01,7.948375000000002899e+01,7.953062500000002899e+01,7.898375000000002899e+01,7.917125000000002899e+01,8.014000000000002899e+01,8.085875000000002899e+01,8.154625000000002899e+01,8.346812500000002899e+01,8.601500000000002899e+01,8.743687500000002899e+01,8.940562500000002899e+01,9.156187500000002899e+01,9.245250000000002899e+01,9.373375000000004320e+01,9.562437500000004320e+01,9.582750000000005741e+01,9.660875000000007162e+01,9.765562500000007162e+01,9.748375000000007162e+01,9.803062500000007162e+01,9.874937500000007162e+01,9.871812500000007162e+01,9.837437500000007162e+01,9.934312500000007162e+01,9.974937500000007162e+01,9.879625000000007162e+01,9.918687500000007162e+01,9.771812500000007162e+01,9.617125000000007162e+01,9.464000000000005741e+01,9.201500000000004320e+01,8.821812500000004320e+01,8.401500000000002899e+01,8.085875000000002899e+01,7.656187500000002899e+01,7.284312500000002899e+01,6.990562500000002899e+01,6.665562500000002899e+01,6.340562500000002899e+01,6.054625000000002899e+01,5.759312500000002899e+01,5.517125000000002899e+01,5.282750000000002899e+01,5.095250000000002899e+01,4.793687500000002188e+01,4.593687500000001478e+01,4.573375000000001478e+01,4.640562500000001478e+01,4.745250000000001478e+01,4.835875000000002188e+01,5.067125000000002899e+01,5.312437500000002899e+01,5.670250000000002899e+01,5.912437500000002899e+01,6.064000000000002899e+01,6.187437500000002899e+01,6.343687500000002899e+01,6.418687500000002899e+01,6.431187500000002899e+01,6.474937500000002899e+01,6.479625000000002899e+01,6.678062500000002899e+01,6.899937500000002899e+01,7.045250000000002899e+01,7.298375000000002899e+01,7.698375000000002899e+01,8.095250000000002899e+01,8.545250000000002899e+01,9.029625000000004320e+01,9.385875000000004320e+01,9.682750000000007162e+01,1.012181250000000716e+02,1.047181250000000716e+02,1.079368750000000716e+02,1.117806250000000716e+02,1.149056250000000716e+02,1.179681250000000716e+02,1.220462500000000716e+02,1.276087500000000716e+02,1.324525000000000716e+02,1.371400000000000716e+02,1.405462500000000716e+02,1.423900000000000716e+02,1.427806250000000716e+02,1.423587500000000716e+02,1.399368750000000716e+02,1.342181250000000716e+02,1.264993750000000716e+02,1.154837500000000716e+02,1.023118750000000574e+02,8.631187500000004320e+01,6.890562500000002899e+01,4.885875000000001478e+01,2.612437500000000057e+01,2.389999999999987246e+00,-2.237562500000002785e+01,-4.545375000000004206e+01,-6.670375000000005627e+01,-8.518812500000007049e+01,-1.032037500000000847e+02,-1.193131250000000989e+02,-1.325318750000000989e+02,-1.440631250000000989e+02,-1.540631250000000989e+02,-1.652975000000000989e+02,-1.774537500000001273e+02,-1.915162500000001558e+02,-2.057350000000001842e+02,-2.221568750000001842e+02,-2.401568750000001842e+02,-2.594068750000001842e+02,-2.805787500000001842e+02,-3.013443750000001842e+02,-3.226725000000001842e+02,-3.438287500000001842e+02,-3.651412500000002410e+02,-3.847818750000003547e+02,-4.043600000000003547e+02,-4.229537500000003547e+02,-4.394850000000003547e+02,-4.551412500000003547e+02,-4.695631250000003547e+02,-4.816568750000003547e+02,-4.913443750000003547e+02,-4.992818750000003547e+02,-5.048287500000003547e+02,-5.087350000000003547e+02,-5.115162500000003547e+02,-5.129381250000003547e+02,-5.130943750000003547e+02,-5.130162500000003547e+02,-5.129381250000003547e+02,-5.128912500000003547e+02,-5.128443750000003547e+02,-5.127975000000003547e+02,-5.127506250000003547e+02,-5.127350000000003547e+02,-5.127350000000003547e+02,-5.127975000000003547e+02,-5.128600000000003547e+02,-5.128912500000003547e+02,-5.129225000000003547e+02,-5.129693750000003547e+02,-5.130162500000003547e+02,-5.130475000000003547e+02,-5.130943750000003547e+02,-5.130787500000003547e+02,-5.130475000000003547e+02,-5.130475000000003547e+02,-5.130631250000003547e+02,-5.130318750000003547e+02,-5.130006250000003547e+02,-5.129850000000003547e+02,-5.129537500000003547e+02,-5.129693750000003547e+02,-5.130006250000003547e+02,-5.130162500000003547e+02,-5.130162500000003547e+02,-5.130631250000003547e+02,-5.131100000000003547e+02,-5.131256250000003547e+02,-5.131256250000003547e+02,-5.131100000000003547e+02,-5.131256250000003547e+02,-5.131412500000003547e+02,-5.116881250000003547e+02,-5.097037500000003547e+02,-5.062818750000003547e+02,-5.012037500000003547e+02,-4.950475000000003547e+02,-4.873287500000003547e+02,-4.775475000000003547e+02,-4.642818750000003547e+02,-4.492662500000003547e+02,-4.300631250000003547e+02,-4.099693750000003547e+02,-3.882350000000003547e+02,-3.637350000000002410e+02,-3.380943750000001842e+02,-3.107662500000001842e+02,-2.847975000000001842e+02,-2.611568750000001842e+02,-2.418912500000001842e+02,-2.222818750000001842e+02,-2.038912500000001842e+02,-1.864693750000001842e+02,-1.681256250000001273e+02,-1.520318750000000989e+02,-1.365006250000000989e+02,-1.190006250000000989e+02,-9.967250000000008470e+01,-8.114125000000007049e+01,-6.275062500000005627e+01,-4.595375000000004206e+01,-3.053187500000002785e+01,-1.346937500000002075e+01,4.671249999999990798e+00,2.239000000000000057e+01,4.034312500000001478e+01,5.929625000000002899e+01,7.849937500000004320e+01,9.890562500000005741e+01,1.188431250000000716e+02,1.380150000000000716e+02,1.567181250000000716e+02,1.743587500000001000e+02,1.919681250000001569e+02,2.078900000000001569e+02,2.232337500000001569e+02,2.377025000000001569e+02,2.511400000000001569e+02,2.620150000000001569e+02,2.715462500000001569e+02,2.813118750000001569e+02,2.904525000000001569e+02,2.991712500000001569e+02,3.074837500000001569e+02,3.141400000000001569e+02,3.212025000000001569e+02,3.299368750000001569e+02,3.382181250000001569e+02,3.450931250000001569e+02,3.502493750000001569e+02,3.552650000000001569e+02,3.595618750000001569e+02,3.647962500000001569e+02,3.696712500000001569e+02,3.742337500000001569e+02,3.797806250000002137e+02,3.849993750000003274e+02,3.904368750000003274e+02,3.962025000000003274e+02,4.010775000000003274e+02,4.049212500000003274e+02,4.080618750000003274e+02,4.089837500000003274e+02,4.085775000000003274e+02,4.087650000000003274e+02,4.081087500000003274e+02,4.060462500000003274e+02,4.045306250000003274e+02,4.027962500000003274e+02,4.007181250000003274e+02,3.994837500000003274e+02,3.976087500000003274e+02,3.955462500000003274e+02,3.945306250000003274e+02,3.935618750000003274e+02,3.919056250000003274e+02,3.909681250000003274e+02,3.889837500000003274e+02,3.869993750000003274e+02,3.851556250000003274e+02,3.816556250000002706e+02,3.762962500000002137e+02,3.701400000000001569e+02,3.639525000000001569e+02,3.565462500000001569e+02,3.506087500000001569e+02,3.441087500000001569e+02,3.375306250000001569e+02,3.324993750000001569e+02,3.289056250000001569e+02,3.268587500000001569e+02,3.255618750000001569e+02,3.245462500000001569e+02,3.230150000000001569e+02,3.226243750000001569e+02,3.226087500000001569e+02,3.222806250000001569e+02,3.227806250000001569e+02,3.239525000000001569e+02,3.242337500000001569e+02,3.254056250000001569e+02,3.268587500000001569e+02,3.285618750000001569e+02,3.308275000000001569e+02,3.324368750000001569e+02,3.323587500000001569e+02,3.306868750000001569e+02,3.296087500000001569e+02,3.282181250000001569e+02,3.270775000000001569e+02,3.243587500000001569e+02,3.206400000000001569e+02,3.180775000000001569e+02,3.160775000000001569e+02,3.121868750000001569e+02,3.064681250000001569e+02,2.992025000000001569e+02,2.886556250000001569e+02,2.763587500000001569e+02,2.619212500000001569e+02,2.429837500000001569e+02,2.197181250000001569e+02,1.962493750000001569e+02,1.703275000000001000e+02,1.413275000000000716e+02,1.118587500000000716e+02,8.070250000000004320e+01,4.781187500000001478e+01,1.582750000000000057e+01,-1.492250000000002075e+01,-4.803187500000004206e+01,-8.028187500000007049e+01,-1.129850000000000847e+02,-1.467662500000001273e+02,-1.811881250000001273e+02,-2.160475000000001842e+02,-2.518131250000001842e+02,-2.880787500000001842e+02,-3.225943750000001842e+02,-3.563443750000002410e+02,-3.868131250000003547e+02,-4.144693750000003547e+02,-4.374850000000003547e+02,-4.559850000000003547e+02,-4.717193750000003547e+02,-4.842975000000003547e+02,-4.935787500000003547e+02,-5.000943750000003547e+02,-5.048287500000003547e+02,-5.077350000000003547e+02,-5.102037500000003547e+02,-5.122662500000003547e+02,-5.129537500000003547e+02,-5.129068750000003547e+02,-5.111881250000003547e+02,-5.094537500000003547e+02,-5.068287500000003547e+02,-5.030787500000003547e+02,-4.993287500000003547e+02,-4.954850000000003547e+02,-4.887037500000003547e+02,-4.803287500000003547e+02,-4.738756250000003547e+02,-4.661568750000003547e+02,-4.588443750000003547e+02,-4.493131250000003547e+02,-4.380318750000003547e+02,-4.264693750000003547e+02,-4.177350000000003547e+02,-4.089068750000003547e+02,-3.985943750000003547e+02,-3.857662500000003547e+02,-3.702975000000002410e+02,-3.572818750000002410e+02,-3.424381250000001842e+02,-3.222975000000001842e+02,-2.990006250000001842e+02,-2.742818750000001842e+02,-2.477037500000001842e+02,-2.225943750000001842e+02,-1.998287500000001842e+02,-1.783600000000001273e+02,-1.599693750000000989e+02,-1.473912500000000989e+02,-1.384537500000000989e+02,-1.339850000000000989e+02,-1.329381250000000989e+02,-1.351100000000000989e+02,-1.374381250000000989e+02,-1.383443750000000989e+02,-1.399225000000000989e+02,-1.408600000000000989e+02,-1.408443750000000989e+02,-1.393600000000000989e+02,-1.379068750000000989e+02,-1.358443750000000989e+02,-1.342193750000000989e+02,-1.341100000000000989e+02,-1.336881250000000989e+02,-1.339537500000000989e+02,-1.354693750000000989e+02,-1.367506250000000989e+02,-1.364693750000000989e+02,-1.358912500000000989e+02,-1.349225000000000989e+02,-1.324693750000000989e+02,-1.297662500000000989e+02,-1.276100000000000989e+02,-1.255943750000000989e+02,-1.240787500000000989e+02,-1.256256250000000989e+02,-1.282350000000000989e+02,-1.337506250000000989e+02,-1.417662500000000989e+02,-1.528443750000000989e+02,-1.645787500000000989e+02,-1.763443750000001273e+02,-1.900162500000001842e+02,-2.025943750000001842e+02,-2.157193750000001842e+02,-2.273912500000001842e+02,-2.394381250000001842e+02,-2.498443750000001842e+02,-2.602350000000001842e+02,-2.706568750000001842e+02,-2.781256250000001842e+02,-2.842350000000001842e+02,-2.853912500000001842e+02,-2.822037500000001842e+02,-2.730787500000001842e+02,-2.563131250000001842e+02,-2.292193750000001842e+02,-1.929537500000001273e+02,-1.499850000000001273e+02,-9.836000000000007049e+01,-4.359437500000004206e+01,1.479624999999999524e+01,7.720250000000002899e+01,1.393275000000000716e+02,1.963431250000001000e+02,2.490931250000001569e+02,2.979681250000001569e+02,3.395775000000002137e+02,3.768743750000003274e+02,4.087181250000003274e+02,4.330150000000003274e+02,4.510306250000003274e+02,4.652806250000003274e+02,4.755618750000003274e+02,4.821243750000003274e+02,4.867025000000003274e+02,4.891087500000003274e+02,4.898743750000003274e+02,4.901400000000003274e+02,4.903431250000003274e+02,4.904837500000003274e+02,4.905306250000003274e+02,4.905775000000003274e+02,4.906243750000003274e+02,4.906556250000003274e+02,4.907337500000003274e+02,4.907962500000003274e+02,4.908743750000003274e+02,4.909212500000003274e+02,4.910150000000003274e+02,4.910931250000003274e+02,4.911556250000003274e+02,4.912337500000003274e+02,4.912337500000003274e+02,4.912181250000003274e+02,4.911868750000003274e+02,4.911712500000003274e+02,4.911087500000003274e+02,4.909993750000003274e+02,4.907806250000003274e+02,4.898431250000003274e+02,4.882962500000003274e+02,4.858118750000003274e+02,4.800775000000003274e+02,4.713900000000003274e+02,4.598431250000003274e+02,4.448900000000003274e+02,4.271868750000003274e+02,4.073743750000003274e+02,3.859368750000003274e+02,3.635306250000002137e+02,3.444993750000001569e+02,3.290931250000001569e+02,3.169837500000001569e+02,3.084837500000001569e+02,3.021868750000001569e+02,2.983275000000001569e+02,2.951243750000001569e+02,2.929993750000001569e+02,2.887650000000001569e+02,2.816243750000001569e+02,2.721243750000001569e+02,2.606087500000001569e+02,2.483118750000001569e+02,2.349837500000001569e+02,2.225150000000001569e+02,2.086712500000001569e+02,1.957181250000001569e+02,1.840150000000001000e+02,1.730931250000000716e+02,1.630306250000000716e+02,1.543431250000000716e+02,1.454056250000000716e+02,1.354212500000000716e+02,1.263118750000000716e+02,1.178431250000000716e+02,1.092181250000000716e+02,1.007650000000000716e+02,9.306187500000005741e+01,8.334312500000004320e+01,7.460875000000002899e+01,6.765562500000002899e+01,6.251500000000002899e+01,5.646812500000002899e+01,5.079625000000002899e+01,4.590562500000001478e+01,4.049937500000000767e+01,3.665562500000000767e+01,3.421812500000000767e+01,3.193687500000000767e+01,2.834312500000000767e+01,2.660875000000000767e+01,2.557750000000000767e+01,2.543687500000000767e+01,2.634312500000000767e+01,2.787437500000000767e+01,2.967125000000000767e+01,3.193687500000000767e+01,3.592125000000000767e+01,4.045250000000000767e+01,4.585875000000001478e+01,5.132750000000002899e+01,5.778062500000002899e+01,6.457750000000002899e+01,6.984312500000002899e+01,7.473375000000002899e+01,7.906187500000002899e+01,8.289000000000002899e+01,8.610875000000002899e+01,8.759312500000002899e+01,8.764000000000002899e+01,8.792125000000002899e+01,8.890562500000002899e+01,9.003062500000002899e+01,9.029625000000002899e+01,8.926500000000002899e+01,8.804625000000002899e+01,8.831187500000002899e+01,8.853062500000002899e+01,8.773375000000002899e+01,8.595250000000002899e+01,8.303062500000002899e+01,7.985875000000002899e+01,7.693687500000002899e+01,7.418687500000002899e+01,7.084312500000002899e+01,6.659312500000002899e+01,6.357750000000002899e+01,6.251500000000002899e+01,6.192125000000002899e+01,6.345250000000002899e+01,6.639000000000002899e+01,6.840562500000002899e+01,7.003062500000002899e+01,7.432750000000002899e+01,7.596812500000002899e+01,7.610875000000002899e+01,7.649937500000002899e+01,7.567125000000002899e+01,7.309312500000002899e+01,7.243687500000002899e+01,7.306187500000002899e+01,7.089000000000002899e+01,7.120250000000002899e+01,7.154625000000002899e+01,7.181187500000002899e+01,7.159312500000002899e+01,7.337437500000002899e+01,7.331187500000002899e+01,7.245250000000002899e+01,7.279625000000002899e+01,7.317125000000002899e+01,7.429625000000002899e+01,7.592125000000002899e+01,7.793687500000002899e+01,7.876500000000002899e+01,7.995250000000002899e+01,8.074937500000002899e+01,8.145250000000002899e+01,8.012437500000002899e+01,7.806187500000002899e+01,7.570250000000002899e+01,7.359312500000002899e+01,7.023375000000002899e+01,6.710875000000002899e+01,6.471812500000002899e+01,6.295250000000002899e+01,6.349937500000002899e+01,6.373375000000002899e+01,6.403062500000002899e+01,6.357750000000002899e+01,6.473375000000002899e+01,6.553062500000002899e+01,6.465562500000002899e+01,6.340562500000002899e+01,5.939000000000002899e+01,5.568687500000002899e+01,5.084312500000002899e+01,4.589000000000002188e+01,4.074937500000001478e+01,3.628062500000000767e+01,3.218687500000000767e+01,2.673375000000000767e+01,2.423375000000000412e+01,2.268687500000000057e+01,2.187437500000000057e+01,2.126500000000000057e+01,1.984312500000000057e+01,1.732749999999999702e+01,1.585874999999999702e+01,1.557749999999999702e+01,1.282749999999999524e+01,8.046249999999991687e+00,3.171249999999988578e+00,-1.750625000000014531e+00,-6.703750000000017195e+00,-1.006312500000002075e+01,-1.465687500000002252e+01,-1.898500000000002430e+01,-2.256312500000002785e+01,-2.543812500000003496e+01,-2.790687500000003496e+01,-3.014125000000003496e+01,-3.237562500000003496e+01,-3.656312500000003496e+01,-3.856312500000003496e+01,-4.154750000000004206e+01,-4.348500000000004206e+01,-4.404750000000004206e+01,-4.506312500000004206e+01,-4.525062500000004206e+01,-4.357875000000004206e+01,-4.112562500000003496e+01,-4.000062500000003496e+01,-3.811000000000003496e+01,-3.795375000000003496e+01,-3.870375000000003496e+01,-3.846937500000003496e+01,-3.882875000000003496e+01,-4.109437500000003496e+01,-4.229750000000003496e+01,-4.328187500000003496e+01,-4.448500000000003496e+01,-4.440687500000003496e+01,-4.518812500000003496e+01,-4.636000000000003496e+01,-4.803187500000004206e+01,-4.832875000000004917e+01,-4.954750000000004917e+01,-4.900062500000004917e+01,-4.732875000000004917e+01,-4.665687500000004917e+01,-4.473500000000004206e+01,-4.382875000000004206e+01,-4.268812500000003496e+01,-4.253187500000003496e+01,-4.153187500000003496e+01,-4.423500000000004206e+01,-4.907875000000005627e+01,-5.103187500000005627e+01,-5.186000000000005627e+01,-5.217250000000005627e+01,-5.257875000000005627e+01,-5.106312500000005627e+01,-5.253187500000005627e+01,-5.257875000000005627e+01,-5.084437500000005627e+01,-5.196937500000005627e+01,-5.451625000000005627e+01,-5.651625000000005627e+01,-5.786000000000005627e+01,-6.211000000000005627e+01,-6.270375000000005627e+01,-6.121937500000005627e+01,-6.139125000000005627e+01,-6.078187500000005627e+01,-6.121937500000005627e+01,-6.240687500000005627e+01,-6.506312500000005627e+01,-6.745375000000005627e+01,-7.173500000000005627e+01
-3.125000000000000000e-01,-3.625000000000002220e+00,-3.843750000000002220e+00,-4.734375000000002665e+00,-6.218750000000003553e+00,-5.937500000000003553e+00,-5.421875000000003553e+00,-4.921875000000003553e+00,1.171875000000001110e+00,4.000000000000002665e+00,3.859375000000002665e+00,4.578125000000003553e+00,-2.062500000000001776e+00,-6.500000000000003553e+00,-6.390625000000003553e+00,-7.984375000000005329e+00,-2.484375000000001332e+00,2.281250000000001776e+00,2.703125000000001776e+00,4.562500000000002665e+00,-1.406250000000000000e-01,-4.328125000000002665e+00,-6.453125000000003553e+00,-7.500000000000003553e+00,-2.453125000000001332e+00,1.203125000000000666e+00,6.093750000000003553e+00,7.312500000000003553e+00,3.312500000000001776e+00,9.531250000000002220e-01,-2.453125000000001776e+00,-3.031250000000001776e+00,-8.125000000000005551e-01,1.687500000000001332e+00,1.437500000000001110e+00,2.453125000000001332e+00,4.625000000000002665e+00,3.640625000000001776e+00,8.437500000000005329e+00,9.031250000000005329e+00,7.000000000000003553e+00,9.515625000000007105e+00,5.875000000000003553e+00,4.984375000000003553e+00,4.218750000000003553e+00,-7.500000000000003331e-01,-2.406250000000001332e+00,-3.500000000000002665e+00,-2.234375000000001776e+00,3.171875000000001776e+00,8.875000000000007105e+00,1.264062500000001066e+01,1.300000000000001066e+01,9.171875000000007105e+00,4.828125000000003553e+00,3.125000000000001776e+00,5.000000000000003553e+00,7.468750000000005329e+00,7.656250000000005329e+00,1.453125000000001776e+00,-9.515625000000007105e+00,-1.837500000000001421e+01,-2.523437500000001776e+01,-2.451562500000001776e+01,-1.871875000000001421e+01,-1.309375000000000711e+01,-6.484375000000003553e+00,-2.750000000000001776e+00,-1.015625000000000666e+00,7.812500000000005551e-02,1.562500000000001110e-01,1.562500000000001110e-01,7.812500000000005551e-02,6.938893903907228378e-18,-7.812500000000005551e-02,-1.562500000000001110e-01,-1.406250000000001110e-01,-1.250000000000000833e-01,-9.375000000000005551e-02,1.562500000000001735e-02,6.250000000000005551e-02,1.093750000000000833e-01,1.093750000000000833e-01,6.250000000000004163e-02,3.125000000000002082e-02,1.562500000000001041e-02,1.562500000000001041e-02,-3.125000000000002776e-02,-7.812500000000006939e-02,-1.875000000000001665e-01,-1.875000000000001665e-01,-9.375000000000008327e-02,0.000000000000000000e+00,1.875000000000001665e-01,1.875000000000001665e-01,1.250000000000001110e-01,6.250000000000005551e-02,-6.250000000000004163e-02,-6.250000000000004163e-02,-4.687500000000002776e-02,-3.125000000000002082e-02,0.000000000000000000e+00,0.000000000000000000e+00,0.000000000000000000e+00,1.562500000000001041e-02,1.562500000000001041e-02,0.000000000000000000e+00,-1.562500000000001041e-02,-9.375000000000005551e-02,-1.093750000000000555e-01,-6.250000000000004163e-02,-1.562500000000001041e-02,-5.156250000000003331e-01,-2.750000000000001776e+00,-6.890625000000003553e+00,-1.292187500000000711e+01,-1.887500000000001421e+01,-2.139062500000001421e+01,-2.009375000000001421e+01,-1.535937500000001243e+01,-8.812500000000007105e+00,-3.203125000000002665e+00,1.046875000000000444e+00,5.781250000000003553e+00,9.218750000000007105e+00,1.014062500000000711e+01,9.875000000000007105e+00,5.203125000000003553e+00,1.328125000000001554e+00,3.593750000000002220e-01,-6.250000000000002220e-01,1.390625000000000888e+00,1.218750000000000666e+00,-1.359375000000000666e+00,-2.828125000000001332e+00,-5.250000000000002665e+00,-6.609375000000004441e+00,-4.718750000000003553e+00,-3.359375000000002665e+00,-1.562500000000088818e-02,4.890625000000003553e+00,6.125000000000003553e+00,7.703125000000004441e+00,6.031250000000003553e+00,4.062500000000001776e+00,4.250000000000002665e+00,5.015625000000003553e+00,7.765625000000005329e+00,7.031250000000004441e+00,6.593750000000004441e+00,3.421875000000002220e+00,-1.093750000000002776e-01,4.687499999999983347e-02,-3.843750000000003109e+00,-6.031250000000003553e+00,-8.156250000000003553e+00,-1.084375000000000533e+01,-6.390625000000002665e+00,-9.218750000000002220e-01,3.843750000000002665e+00,7.046875000000004441e+00,4.328125000000001776e+00,1.781250000000000888e+00,-1.875000000000004441e-01,2.187500000000000000e-01,3.937500000000002665e+00,5.140625000000003553e+00,9.203125000000007105e+00,1.007812500000000711e+01,7.656250000000005329e+00,7.328125000000005329e+00,-6.250000000000044409e-02,-3.375000000000002665e+00,-3.062500000000002220e+00,-2.953125000000002220e+00,4.765625000000002665e+00,7.078125000000003553e+00,7.359375000000003553e+00,6.406250000000003553e+00,-9.062500000000004441e-01,-2.156250000000001332e+00,-2.718750000000001776e+00,-3.343750000000002220e+00,1.265625000000001332e+00,5.312500000000006661e-01,-2.171875000000000888e+00,-2.421875000000001776e+00,-5.937500000000003553e+00,-4.390625000000002665e+00,-2.343750000000002776e-01,1.546875000000001110e+00,4.578125000000002665e+00,2.000000000000000888e+00,-1.218750000000000888e+00,-2.859375000000001776e+00,-4.250000000000002665e+00,-1.265625000000000888e+00,2.125000000000001776e+00,3.515625000000002665e+00,4.031250000000002665e+00,4.328125000000002665e+00,2.000000000000001332e+00,1.921875000000001332e+00,1.437500000000000888e+00,-2.687500000000001776e+00,-3.218750000000001776e+00,-5.750000000000003553e+00,-6.234375000000003553e+00,-2.234375000000001776e+00,-1.093750000000003331e-01,4.593750000000002665e+00,6.718750000000003553e+00,6.421875000000003553e+00,5.984375000000003553e+00,1.359375000000000666e+00,-5.781250000000006661e-01,-4.109375000000002665e+00,-8.281250000000005329e+00,-7.046875000000004441e+00,-8.343750000000005329e+00,-5.093750000000003553e+00,1.718750000000001388e-01,-7.812500000000013878e-02,2.515625000000001776e+00,1.359375000000000888e+00,-6.250000000000003331e-01,3.890625000000003109e+00,4.859375000000003553e+00,7.390625000000005329e+00,1.106250000000000711e+01,6.968750000000003553e+00,6.156250000000003553e+00,5.203125000000002665e+00,-3.906250000000003331e-01,9.687500000000006661e-01,2.328125000000001332e+00,3.046875000000001776e+00,1.045312500000000711e+01,1.354687500000001066e+01,1.087500000000000711e+01,8.187500000000007105e+00,5.468750000000017764e-01,-6.984375000000005329e+00,-6.890625000000005329e+00,-5.187500000000003553e+00,-3.281250000000002665e+00,6.875000000000007772e-01,9.375000000000000000e-02,-4.109375000000002665e+00,-6.546875000000004441e+00,-9.203125000000007105e+00,-1.012500000000000711e+01,-7.062500000000004441e+00,-2.031250000000001332e+00,1.718750000000001332e+00,4.640625000000003553e+00,5.843750000000003553e+00,2.234375000000001332e+00,-7.812500000000002220e-01,-3.218750000000001332e+00,-5.531250000000002665e+00,-6.046875000000003553e+00,-6.328125000000005329e+00,-7.531250000000005329e+00,-8.593750000000005329e+00,-5.781250000000003553e+00,-3.281250000000002220e+00,1.203125000000000888e+00,5.234375000000003553e+00,4.062500000000003553e+00,3.515625000000002665e+00,1.890625000000001332e+00,4.531250000000003331e-01,5.156250000000003331e-01,-7.656250000000005551e-01,-2.421875000000001332e+00,-2.343750000000001332e+00,-1.078125000000000666e+00,1.812500000000001332e+00,3.765625000000002665e+00,1.265625000000000888e+00,-1.453125000000000888e+00,-4.343750000000003553e+00,-5.187500000000003553e+00,-5.625000000000006661e-01,2.671875000000001332e+00,3.671875000000001776e+00,3.921875000000002665e+00,6.718750000000004441e-01,-1.046875000000000666e+00,-8.906250000000005551e-01,-7.968750000000004441e-01,9.531250000000007772e-01,2.234375000000001332e+00,3.875000000000001776e+00,3.765625000000001776e+00,8.437500000000004441e-01,-3.062500000000002220e+00,-7.250000000000004441e+00,-7.734375000000005329e+00,-4.609375000000003553e+00,-1.421875000000000666e+00,1.734375000000001110e+00,1.921875000000001332e+00,7.031250000000006661e-01,2.375000000000001776e+00,1.437500000000001110e+00,1.843750000000001110e+00,1.125000000000000666e+00,-2.359375000000001776e+00,-5.625000000000003331e-01,5.937500000000005551e-01,3.484375000000002665e+00,6.296875000000004441e+00,3.703125000000002665e+00,1.578125000000000888e+00,-1.687500000000000888e+00,-4.078125000000002665e+00,-2.390625000000001776e+00,-1.046875000000000444e+00,2.187500000000001110e-01,1.828125000000001110e+00,1.625000000000000888e+00,-1.562499999999998890e-01,-4.687499999999977796e-02,-1.921875000000000888e+00,-4.078125000000002665e+00,-1.218750000000001110e+00,-1.828125000000001110e+00,1.609375000000001332e+00,5.171875000000003553e+00,2.406250000000001776e+00,3.234375000000001776e+00,-1.281250000000000888e+00,-5.031250000000003553e+00,-5.062500000000003553e+00,-6.531250000000003553e+00,-2.843750000000001776e+00,-6.406250000000006661e-01,2.500000000000001776e+00,4.578125000000002665e+00,1.671875000000000888e+00,2.515625000000001776e+00,-5.000000000000000000e-01,-2.343750000000000888e+00,1.140625000000001110e+00,-5.625000000000002220e-01,7.812500000000004441e-01,2.484375000000001332e+00,4.062500000000002776e-01,6.718750000000005551e-01,9.531250000000007772e-01,2.343750000000002220e-01,-9.843750000000007772e-01,1.093750000000000000e-01,-1.546875000000000666e+00,-1.968750000000000888e+00,1.640625000000001110e+00,2.046875000000001332e+00,6.718750000000004441e+00,7.937500000000005329e+00,5.687500000000003553e+00,3.671875000000002665e+00,-3.312500000000002220e+00,-4.281250000000002665e+00,-4.734375000000003553e+00,-3.515625000000002220e+00,1.859375000000001332e+00,1.046875000000000444e+00,1.484375000000000888e+00,2.812500000000000000e-01,-2.203125000000001776e+00,-5.312500000000002220e-01,-8.125000000000004441e-01,2.500000000000002220e-01,-1.093750000000000000e-01,-2.234375000000001332e+00,-3.343750000000001776e+00,-5.828125000000003553e+00,-6.750000000000004441e+00,-6.656250000000004441e+00,-4.531250000000003553e+00,1.406249999999997780e-01,3.875000000000001776e+00,7.203125000000003553e+00,7.375000000000004441e+00,3.515625000000002220e+00,1.515625000000000888e+00,-2.046875000000000888e+00,-3.921875000000001776e+00,-1.296875000000000444e+00,-1.531250000000000444e+00,-6.406250000000001110e-01,-5.468750000000003331e-01,-3.750000000000002220e+00,-5.281250000000003553e+00,-4.281250000000003553e+00,-2.250000000000001776e+00,-5.000000000000002220e-01,2.968750000000002220e+00,2.531250000000002220e+00,1.125000000000000888e+00,3.984375000000002665e+00,2.234375000000001776e+00,2.015625000000001776e+00,9.218750000000006661e-01,-5.390625000000003553e+00,-6.265625000000004441e+00,-6.593750000000004441e+00,-3.843750000000002665e+00,2.937500000000001776e+00,4.375000000000003553e+00,6.781250000000003553e+00,7.812500000000004441e+00,6.734375000000004441e+00,1.146875000000000711e+01,1.214062500000000711e+01,1.117187500000000711e+01,1.020312500000000711e+01,4.781250000000003553e+00,5.953125000000004441e+00,9.578125000000007105e+00,1.417187500000000711e+01,1.871875000000001066e+01,1.451562500000000711e+01,5.687500000000002665e+00,-4.859375000000002665e+00,-1.453125000000000711e+01,-1.834375000000001066e+01,-1.729687500000001066e+01,-1.490625000000001066e+01,-1.010937500000000711e+01,-4.828125000000003553e+00,2.031249999999997780e-01,4.703125000000003553e+00,6.875000000000004441e+00,7.093750000000005329e+00,5.468750000000003553e+00,6.312500000000003553e+00,7.234375000000005329e+00,8.421875000000005329e+00,9.296875000000007105e+00,5.843750000000004441e+00,9.843750000000006661e-01,-4.125000000000003553e+00,-7.531250000000007105e+00,-8.281250000000007105e+00,-4.953125000000003553e+00,-1.000000000000001332e+00,4.687500000000002220e-01,4.999999999999997780e-01,-4.156250000000003553e+00,-1.035937500000000711e+01,-1.382812500000001066e+01,-1.520312500000001066e+01,-1.295312500000000711e+01,-8.218750000000003553e+00,-4.437500000000001776e+00,-1.781250000000000888e+00,-4.218750000000003331e-01,-2.031250000000001388e-01,-9.375000000000006939e-02,1.562500000000001735e-02,9.375000000000006939e-02,1.093750000000000833e-01,1.250000000000001110e-01,1.406250000000001110e-01,1.250000000000000833e-01,1.250000000000000833e-01,6.250000000000004163e-02,0.000000000000000000e+00,-3.125000000000002082e-02,-6.250000000000004163e-02,-7.812500000000005551e-02,-9.375000000000006939e-02,-6.250000000000004163e-02,-1.562500000000001041e-02,3.125000000000002082e-02,6.250000000000004163e-02,-6.938893903907228378e-18,-1.093750000000000833e-01,-1.406250000000001110e-01,-1.093750000000000833e-01,-6.938893903907228378e-18,1.562500000000001110e-01,2.343750000000001665e-01,2.031250000000001388e-01,9.375000000000005551e-02,-3.125000000000004163e-02,-1.718750000000001110e-01,-1.875000000000001110e-01,-1.093750000000000833e-01,-4.687500000000004163e-02,6.250000000000004163e-02,7.812500000000005551e-02,3.125000000000002082e-02,-1.421875000000000666e+00,-3.406250000000001776e+00,-6.828125000000003553e+00,-1.190625000000000711e+01,-1.231250000000000711e+01,-1.221875000000000711e+01,-8.312500000000005329e+00,-1.203125000000001110e+00,-3.093750000000002665e+00,-7.046875000000004441e+00,-1.539062500000000888e+01,-2.481250000000001421e+01,-2.125000000000001421e+01,-8.390625000000005329e+00,7.468750000000006217e+00,2.343750000000001421e+01,2.854687500000002132e+01,1.959375000000001421e+01,1.117187500000000711e+01,4.687500000000000000e-01,-7.953125000000005329e+00,-8.359375000000005329e+00,-1.157812500000000711e+01,-1.085937500000000711e+01,-5.421875000000004441e+00,2.437500000000001776e+00,1.134375000000000888e+01,1.489062500000001066e+01,1.321875000000000888e+01,2.796875000000000888e+00,-7.890625000000006217e+00,-1.259375000000000888e+01,-1.631250000000001066e+01,-9.765625000000005329e+00,-6.562499999999993339e-01,3.890625000000002665e+00,1.123437500000000711e+01,9.109375000000007105e+00,3.250000000000002665e+00,4.218750000000011102e-01,-5.093750000000002665e+00,-3.078125000000001332e+00,3.000000000000001776e+00,6.968750000000003553e+00,1.106250000000000711e+01,1.100000000000000711e+01,6.500000000000003553e+00,3.843750000000003109e+00,2.703125000000002220e+00,9.375000000000008882e-01,9.687500000000008882e-01,-2.281250000000001776e+00,-5.687500000000003553e+00,-4.312500000000001776e+00,-2.046875000000001332e+00,5.921875000000003553e+00,1.054687500000000711e+01,9.390625000000005329e+00,8.562500000000005329e+00,-1.718750000000004441e-01,-4.156250000000002665e+00,-4.843750000000002665e+00,-8.718750000000007105e+00,-4.453125000000003553e+00,-2.734375000000002220e+00,-1.046875000000000888e+00,5.875000000000003553e+00,8.000000000000005329e+00,9.906250000000007105e+00,1.007812500000000711e+01,6.156250000000003553e+00,2.250000000000001332e+00,-1.000000000000000666e+00,-1.531250000000000888e+00,-2.468750000000001776e+00,-9.531250000000006661e-01,1.906250000000001332e+00,4.218750000000003331e-01,2.406250000000001332e+00,2.531250000000001332e+00,-1.531250000000000888e+00,-5.156250000000003331e-01,-2.984375000000002220e+00,-5.328125000000003553e+00,-1.515625000000001110e+00,-3.124999999999977796e-02,4.203125000000002665e+00,9.171875000000007105e+00,9.296875000000007105e+00,7.718750000000005329e+00,4.875000000000003553e+00,1.437500000000000888e+00,-1.281250000000000444e+00,-2.406250000000001332e+00,-4.781250000000002665e+00,-6.828125000000004441e+00,-7.796875000000005329e+00,-6.890625000000003553e+00,-4.093750000000002665e+00,-2.234375000000001332e+00,7.812500000000005551e-01,3.750000000000002220e-01,-4.687500000000000000e-02,2.281250000000001776e+00,5.468750000000003331e-01,4.843750000000001110e-01,-1.375000000000001110e+00,-6.906250000000004441e+00,-7.265625000000004441e+00,-5.656250000000003553e+00,-4.843750000000000000e-01,6.562500000000004441e+00,1.007812500000000711e+01,9.406250000000007105e+00,4.828125000000003553e+00,1.593750000000000666e+00,-1.640625000000001110e+00,-2.375000000000001776e+00,-7.187500000000006661e-01,-2.000000000000001776e+00,-8.750000000000007772e-01,1.062500000000000666e+00,2.453125000000001776e+00,7.609375000000005329e+00,1.212500000000000711e+01,1.667187500000001066e+01,1.946875000000001421e+01,1.715625000000001066e+01,1.396875000000001066e+01,7.109375000000005329e+00,2.890625000000002220e+00,5.125000000000004441e+00,5.375000000000003553e+00,8.031250000000003553e+00,1.018750000000000355e+01,3.515625000000001776e+00,-8.750000000000002220e-01,-4.250000000000001776e+00,-1.007812500000000355e+01,-6.578125000000003553e+00,-3.125000000000003331e-01,5.531250000000001776e+00,1.439062500000000533e+01,1.731250000000000711e+01,1.151562500000000533e+01,2.656250000000000888e+00,-1.045312500000000533e+01,-2.351562500000001421e+01,-2.654687500000001421e+01,-2.576562500000001421e+01,-2.000000000000001421e+01,-1.093750000000000711e+01,-8.515625000000007105e+00,-7.687500000000004441e+00,-8.343750000000003553e+00,-1.014062500000000533e+01,-8.218750000000003553e+00,-5.250000000000003553e+00,-2.781250000000001776e+00,-7.187500000000003331e-01,-3.125000000000002082e-02,-7.812500000000005551e-02,-1.734375000000001332e+00,-3.406250000000002665e+00,-5.968750000000003553e+00,-9.593750000000007105e+00,-6.593750000000003553e+00,-3.625000000000001776e+00,-3.125000000000000000e-02,6.343750000000003553e+00,1.328125000000000444e+00,-4.703125000000003553e+00,-5.703125000000003553e+00,-1.135937500000000711e+01,-6.453125000000004441e+00,2.671875000000001776e+00,1.875000000000002220e-01,6.984375000000005329e+00,7.984375000000005329e+00,-1.656250000000001110e+00,-1.000000000000000444e+00,-1.382812500000001066e+01,-2.623437500000001776e+01,-2.212500000000001421e+01,-2.204687500000001421e+01,-1.070312500000000711e+01,5.906250000000003553e+00,9.671875000000005329e+00,1.721875000000001066e+01,2.231250000000001421e+01,2.142187500000001421e+01,2.728125000000001421e+01,2.540625000000001421e+01,1.762500000000001066e+01,1.195312500000000711e+01,-1.312500000000000000e+00,-7.671875000000003553e+00,-8.828125000000005329e+00,-1.131250000000000711e+01,-6.625000000000003553e+00,-5.640625000000003553e+00,-3.312500000000001776e+00,1.671875000000001554e+00,3.796875000000002665e+00,8.921875000000007105e+00,9.187500000000007105e+00,5.765625000000003553e+00,2.156250000000001332e+00,-4.328125000000003553e+00,-7.171875000000005329e+00,-6.203125000000004441e+00,-4.281250000000002665e+00,-2.062500000000001332e+00,-1.765625000000000888e+00,-2.843750000000001776e+00,-3.812500000000002665e+00,-3.281250000000002220e-01,6.593750000000004441e+00,1.445312500000001066e+01,2.081250000000001421e+01,2.020312500000001066e+01,1.465625000000000711e+01,5.296875000000002665e+00,-2.093750000000000888e+00,-5.640625000000003553e+00,-5.343750000000003553e+00,-2.515625000000001776e+00,-1.828125000000001776e+00,-4.687500000000006661e-01,-2.796875000000002665e+00,-2.765625000000002665e+00,-8.750000000000002220e-01,-1.203125000000000444e+00,2.031250000000003886e-01,-4.812500000000002665e+00,-1.578125000000001066e+01,-2.884375000000001776e+01,-4.134375000000002842e+01,-4.992187500000004263e+01,-4.889062500000003553e+01,-4.190625000000002842e+01,-3.556250000000002132e+01,-2.537500000000001421e+01,-1.589062500000000888e+01,-5.843750000000003553e+00,8.375000000000005329e+00,2.093750000000001421e+01,2.635937500000001776e+01,2.704687500000002132e+01,2.523437500000001421e+01,2.093750000000001066e+01,2.257812500000001421e+01,2.642187500000001421e+01,2.687500000000002132e+01,2.598437500000002132e+01,2.060937500000001421e+01,1.289062500000000711e+01,6.953125000000003553e+00,2.875000000000001776e+00,7.812500000000004441e-01,3.281250000000002220e-01,3.125000000000002220e-01,2.968750000000002220e-01,2.812500000000001665e-01,1.093750000000000694e-01,0.000000000000000000e+00,-1.093750000000000833e-01,-1.406250000000001110e-01,-9.375000000000008327e-02,-9.375000000000008327e-02,-4.687500000000004163e-02,-9.375000000000008327e-02,-1.387778780781445676e-17,1.093750000000000833e-01,1.718750000000001110e-01,2.812500000000001665e-01,1.562500000000000833e-01,4.687500000000002776e-02,-4.687500000000003469e-02,-9.375000000000006939e-02,3.125000000000001388e-02,1.406250000000000833e-01,3.593750000000002220e-01,1.171875000000000888e+00,2.468750000000001776e+00,4.640625000000003553e+00,9.625000000000005329e+00,1.487500000000000888e+01,2.067187500000001421e+01,2.631250000000002132e+01,2.257812500000001776e+01,1.464062500000001066e+01,1.640625000000000888e+00,-1.682812500000001066e+01,-2.498437500000002132e+01,-2.989062500000002132e+01,-2.890625000000001776e+01,-1.896875000000001421e+01,-1.298437500000000711e+01,-2.375000000000000444e+00,9.078125000000007105e+00,1.520312500000001066e+01,2.206250000000001421e+01,2.057812500000001421e+01,1.189062500000000711e+01,5.468750000000003553e+00,-4.109375000000001776e+00,-8.843750000000003553e+00,-6.250000000000003553e+00,-6.593750000000004441e+00,-1.703125000000001332e+00,1.437500000000000888e+00,4.218750000000002220e-01,1.421875000000001110e+00,-3.703125000000002220e+00,-6.390625000000003553e+00,-6.343750000000003553e+00,-5.171875000000003553e+00,4.234375000000001776e+00,8.921875000000005329e+00,9.250000000000005329e+00,5.453125000000002665e+00,-6.765625000000004441e+00,-1.303125000000000888e+01,-1.370312500000001066e+01,-8.437500000000007105e+00,1.671875000000000666e+00,6.343750000000003553e+00,6.796875000000005329e+00,2.890625000000002220e+00,-3.640625000000002220e+00,-6.890625000000004441e+00,-7.671875000000005329e+00,-7.203125000000005329e+00,-4.156250000000002665e+00,-5.000000000000001110e-01,1.078125000000000888e+00,1.359375000000000888e+00,6.406250000000005551e-01,-4.843750000000002665e+00,-7.484375000000004441e+00,-7.093750000000004441e+00,-8.437500000000005329e+00,-1.906250000000001776e+00,1.000000000000000222e+00,5.468750000000004441e-01,4.687500000000002665e+00,8.593750000000004441e-01,1.468750000000000888e+00,6.578125000000003553e+00,4.875000000000002665e+00,7.906250000000005329e+00,6.609375000000004441e+00,-1.000000000000000888e+00,-1.156250000000001110e+00,-3.203125000000002665e+00,-4.265625000000003553e+00,1.343750000000000888e+00,1.125000000000000888e+00,2.156250000000001776e+00,6.078125000000004441e+00,2.734375000000002220e+00,1.781250000000001332e+00,1.250000000000000000e-01,-4.328125000000003553e+00,9.375000000000000000e-02,4.578125000000003553e+00,7.265625000000005329e+00,9.484375000000007105e+00,1.671875000000001332e+00,-8.375000000000005329e+00,-1.475000000000001066e+01,-1.790625000000001421e+01,-1.356250000000001066e+01,-4.000000000000001776e+00,4.671875000000003553e+00,9.296875000000007105e+00,1.143750000000000711e+01,9.609375000000007105e+00,3.593750000000002220e+00,9.531250000000004441e-01,2.187500000000001110e-01,-2.765625000000001776e+00,-4.843750000000000000e-01,-1.296875000000000000e+00,-5.750000000000003553e+00,-5.062500000000003553e+00,-5.406250000000003553e+00,-5.468750000000008882e-01,5.796875000000004441e+00,8.828125000000007105e+00,8.640625000000007105e+00,5.000000000000013323e-01,-6.343750000000003553e+00,-1.021875000000000711e+01,-1.109375000000000711e+01,-3.281250000000001776e+00,2.953125000000001776e+00,5.812500000000003553e+00,8.875000000000005329e+00,4.703125000000002665e+00,2.062500000000001332e+00,2.828125000000001776e+00,8.906250000000006661e-01,3.750000000000002665e+00,4.296875000000002665e+00,-2.187499999999998890e-01,-1.593750000000000666e+00,-6.265625000000003553e+00,-7.875000000000003553e+00,-5.546875000000003553e+00,-5.281250000000003553e+00,-1.515625000000000888e+00,1.875000000000000000e-01,3.343750000000002220e+00,6.984375000000005329e+00,7.984375000000005329e+00,8.296875000000005329e+00,5.437500000000003553e+00,2.953125000000001776e+00,-1.562500000000000000e-02,5.625000000000002220e-01,-9.218750000000008882e-01,-3.328125000000002665e+00,-3.109375000000002665e+00,-7.781250000000004441e+00,-5.718750000000002665e+00,-2.109375000000001332e+00,-2.109375000000001332e+00,1.312500000000000888e+00,2.343750000000002220e-01,-6.875000000000005551e-01,3.031250000000001776e+00,5.375000000000002665e+00,7.875000000000003553e+00,7.406250000000003553e+00,2.718750000000001332e+00,-4.218750000000003886e-01,-3.468750000000002220e+00,-5.296875000000003553e+00,-3.328125000000002220e+00,-4.625000000000003553e+00,-4.609375000000003553e+00,4.531250000000002220e-01,-6.406250000000006661e-01,3.593750000000001332e+00,6.640625000000003553e+00,1.406250000000000000e-01,2.015625000000000888e+00,-2.312500000000000888e+00,-7.375000000000004441e+00,-4.375000000000003553e+00,-7.546875000000005329e+00,-6.671875000000004441e+00,-2.906250000000001776e+00,-1.796875000000001110e+00,1.515625000000001110e+00,4.812500000000003553e+00,7.468750000000005329e+00,8.468750000000005329e+00,8.046875000000005329e+00,4.906250000000003553e+00,-3.265625000000001776e+00,-9.125000000000005329e+00,-1.126562500000000711e+01,-9.687500000000007105e+00,-7.656250000000013323e-01,9.078125000000005329e+00,1.275000000000000888e+01,1.235937500000000888e+01,5.406250000000003553e+00,-7.562500000000006217e+00,-1.467187500000001066e+01,-1.928125000000001421e+01,-1.564062500000001066e+01,-3.125000000000001776e+00,8.781250000000007105e+00,2.226562500000001421e+01,2.342187500000001421e+01,1.542187500000000888e+01,2.687500000000000888e+00,-1.421875000000001066e+01,-1.857812500000001421e+01,-1.418750000000001066e+01,-6.625000000000005329e+00,3.281250000000002220e+00,5.265625000000003553e+00,3.296875000000002220e+00,3.031250000000002220e+00,2.421875000000001776e+00,8.921875000000005329e+00,8.906250000000005329e+00,4.093750000000001776e+00,6.250000000000000000e-01,-1.387500000000000888e+01,-1.490625000000001066e+01,-1.045312500000000711e+01,-7.156250000000005329e+00,7.359375000000005329e+00,1.123437500000000711e+01,1.329687500000001066e+01,1.382812500000001066e+01,7.156250000000005329e+00,4.437500000000003553e+00
-7.000000000000002665e+00,-6.250000000000002665e+00,3.062500000000000888e+00,1.250000000000000000e-01,-1.875000000000000222e+00,3.250000000000001776e+00,-5.812500000000002665e+00,-1.125000000000000533e+01,4.375000000000001776e+00,7.500000000000003553e+00,1.250000000000000278e-01,4.687500000000001776e+00,3.062500000000000888e+00,-6.000000000000002665e+00,-9.250000000000003553e+00,-4.562500000000001776e+00,5.500000000000001776e+00,2.000000000000000000e+00,-4.437500000000001776e+00,6.750000000000003553e+00,8.750000000000003553e+00,-5.625000000000003553e+00,-1.031250000000000533e+01,-3.187500000000001776e+00,4.375000000000000555e-01,1.875000000000002776e-01,3.750000000000002220e+00,4.125000000000001776e+00,5.062500000000001776e+00,5.562500000000002665e+00,-9.812500000000005329e+00,-1.531250000000000711e+01,6.687500000000003553e+00,1.500000000000000711e+01,-1.687500000000000888e+00,-6.625000000000003553e+00,-2.437500000000001332e+00,-1.062500000000000666e+00,8.687500000000003553e+00,9.125000000000003553e+00,-1.562500000000000222e+00,-4.062500000000001776e+00,-6.875000000000002220e-01,8.500000000000003553e+00,7.812500000000003553e+00,-7.000000000000003553e+00,-6.062500000000003553e+00,4.062500000000001776e+00,-1.437500000000000000e+00,-7.187500000000003553e+00,1.937500000000000444e+00,9.875000000000003553e+00,8.375000000000003553e+00,7.062500000000002665e+00,2.187499999999999556e+00,-1.225000000000000533e+01,-1.331250000000000355e+01,1.100000000000000711e+01,2.400000000000001421e+01,3.875000000000001776e+00,-1.325000000000000711e+01,-9.687500000000005329e+00,-9.312500000000005329e+00,-1.043750000000000533e+01,-4.000000000000001776e+00,-1.250000000000000555e-01,-6.250000000000002776e-02,-6.250000000000002776e-02,-1.250000000000000555e-01,6.250000000000002776e-02,2.500000000000001110e-01,6.250000000000002776e-02,-6.250000000000002776e-02,6.250000000000002776e-02,-6.250000000000002776e-02,-1.875000000000000833e-01,6.250000000000002776e-02,6.250000000000002776e-02,-1.875000000000000833e-01,-6.250000000000002776e-02,1.250000000000000555e-01,6.250000000000002776e-02,6.250000000000002776e-02,1.250000000000000555e-01,-6.250000000000002776e-02,-2.500000000000001110e-01,0.000000000000000000e+00,3.125000000000001665e-01,1.250000000000000833e-01,-2.500000000000001110e-01,-2.500000000000001110e-01,-1.250000000000000555e-01,0.000000000000000000e+00,2.500000000000001110e-01,2.500000000000001110e-01,6.250000000000002776e-02,-1.250000000000000555e-01,-2.500000000000001110e-01,0.000000000000000000e+00,2.500000000000001110e-01,0.000000000000000000e+00,-2.500000000000001110e-01,0.000000000000000000e+00,2.500000000000001110e-01,0.000000000000000000e+00,-2.500000000000001110e-01,0.000000000000000000e+00,2.500000000000001110e-01,6.250000000000002776e-02,-1.875000000000000833e-01,-2.500000000000001110e-01,-6.250000000000002776e-02,2.500000000000001110e-01,1.875000000000001110e-01,0.000000000000000000e+00,6.250000000000002776e-02,-2.625000000000000888e+00,-1.193750000000000355e+01,-1.781250000000000711e+01,-5.000000000000001776e+00,1.125000000000000355e+01,5.625000000000001776e+00,-8.000000000000003553e+00,-6.250000000000001776e+00,3.125000000000000888e+00,1.037500000000000355e+01,1.250000000000000711e+01,1.625000000000000888e+00,-1.112500000000000533e+01,-8.812500000000005329e+00,4.500000000000001776e+00,1.106250000000000711e+01,9.375000000000017764e-01,-6.812500000000001776e+00,-1.250000000000000444e+00,6.249999999999911182e-02,-2.625000000000001776e+00,-2.499999999999991118e-01,-1.562500000000000222e+00,-4.187500000000002665e+00,-3.750000000000011102e-01,5.937500000000002665e+00,9.187500000000005329e+00,2.250000000000001776e+00,-6.062500000000001776e+00,-3.125000000000001332e+00,3.000000000000000888e+00,3.562500000000000888e+00,4.250000000000001776e+00,6.562500000000003553e+00,1.250000000000004441e-01,-6.312500000000002665e+00,-3.812500000000001776e+00,1.125000000000000222e+00,8.187500000000003553e+00,3.125000000000001776e+00,-1.443750000000000533e+01,-1.593750000000000533e+01,-3.750000000000000000e-01,1.418750000000000533e+01,1.581250000000000533e+01,-3.125000000000017764e-01,-1.512500000000000711e+01,-7.875000000000003553e+00,9.750000000000003553e+00,9.875000000000003553e+00,-4.000000000000000888e+00,-5.937500000000002665e+00,3.062500000000000888e+00,1.206250000000000533e+01,8.437500000000003553e+00,-7.437500000000003553e+00,-5.562500000000002665e+00,1.875000000000000888e+00,-7.312500000000003553e+00,-5.437500000000002665e+00,1.231250000000000355e+01,1.593750000000000533e+01,-3.375000000000001776e+00,-1.212500000000000533e+01,2.750000000000001776e+00,2.187500000000001776e+00,-7.062500000000003553e+00,2.062500000000001332e+00,4.312500000000001776e+00,3.125000000000002220e-01,4.125000000000002665e+00,-5.187500000000001776e+00,-1.475000000000000711e+01,-2.500000000000008882e-01,1.437500000000000711e+01,5.062500000000001776e+00,-7.375000000000003553e+00,7.500000000000008882e-01,4.312500000000001776e+00,-8.875000000000003553e+00,-7.750000000000003553e+00,6.125000000000001776e+00,8.812500000000003553e+00,3.687500000000002220e+00,-3.687500000000001332e+00,-8.250000000000003553e+00,2.625000000000001776e+00,1.137500000000000533e+01,1.437500000000000000e+00,-8.875000000000003553e+00,-7.875000000000002665e+00,2.312500000000000888e+00,5.312500000000001776e+00,-6.125000000000003553e+00,-5.375000000000002665e+00,9.812500000000003553e+00,1.075000000000000355e+01,-3.312500000000001776e+00,-5.750000000000002665e+00,3.437500000000001776e+00,3.750000000000000000e-01,-3.062500000000001776e+00,8.125000000000002220e-01,-7.250000000000003553e+00,-9.687500000000003553e+00,3.812500000000000888e+00,9.937500000000003553e+00,3.687500000000001776e+00,-5.625000000000002665e+00,-4.875000000000002665e+00,5.000000000000005551e-01,-5.625000000000000000e-01,7.125000000000002665e+00,1.043750000000000533e+01,-3.375000000000000444e+00,-3.125000000000000444e+00,3.937500000000001776e+00,1.250000000000000666e+00,3.375000000000001776e+00,-2.812500000000001776e+00,-9.937500000000005329e+00,4.250000000000001776e+00,1.100000000000000533e+01,7.312500000000003553e+00,1.037500000000000355e+01,-2.937500000000000888e+00,-1.693750000000000711e+01,-2.812500000000001776e+00,4.187500000000001776e+00,-2.437500000000000888e+00,4.437500000000003553e+00,3.500000000000002220e+00,-6.250000000000003553e+00,1.687500000000000888e+00,1.312500000000000888e+00,-1.481250000000000711e+01,-6.125000000000003553e+00,1.137500000000000533e+01,3.750000000000000000e-01,-7.375000000000003553e+00,8.000000000000003553e+00,1.068750000000000355e+01,-4.187500000000001776e+00,-1.062500000000000355e+01,-3.250000000000000888e+00,5.437500000000002665e+00,2.625000000000000888e+00,-6.250000000000003553e+00,-4.375000000000002665e+00,2.220446049250313081e-16,-6.375000000000001776e+00,-3.750000000000000888e+00,1.012500000000000355e+01,1.143750000000000533e+01,-5.000000000000000000e-01,-1.218750000000000533e+01,-7.937500000000003553e+00,1.137500000000000533e+01,1.468750000000000711e+01,-6.812500000000003553e+00,-1.743750000000000711e+01,-1.625000000000001776e+00,1.081250000000000355e+01,4.375000000000001776e+00,1.187500000000000888e+00,3.812500000000001776e+00,-7.312500000000002665e+00,-1.312500000000000533e+01,1.375000000000000000e+00,7.937500000000002665e+00,5.437500000000002665e+00,6.625000000000003553e+00,-4.187500000000001776e+00,-1.475000000000000711e+01,6.250000000000000000e-01,1.631250000000000711e+01,2.187500000000000000e+00,-1.537500000000000711e+01,-4.750000000000001776e+00,1.281250000000000533e+01,1.137500000000000533e+01,-5.625000000000004441e-01,-1.087500000000000533e+01,-1.437500000000000711e+01,-4.562500000000001776e+00,1.275000000000000533e+01,1.375000000000000533e+01,-6.250000000000001776e+00,-1.393750000000000533e+01,8.750000000000000000e-01,9.312500000000003553e+00,5.062500000000002665e+00,-1.250000000000000222e+00,-3.750000000000001776e+00,-3.125000000000001332e+00,-5.250000000000002665e+00,1.187500000000000000e+00,1.293750000000000533e+01,7.437500000000003553e+00,-7.937500000000003553e+00,-9.187500000000003553e+00,4.062500000000002665e+00,5.312500000000003553e+00,-8.812500000000003553e+00,-3.812500000000001776e+00,1.337500000000000533e+01,3.125000000000000000e+00,-1.312500000000000711e+01,-8.125000000000000000e-01,1.075000000000000533e+01,9.375000000000000000e-01,-9.562500000000005329e+00,-7.750000000000004441e+00,5.187500000000002665e+00,9.187500000000003553e+00,1.875000000000000888e+00,-5.000000000000002220e-01,-4.687500000000001776e+00,-2.375000000000000888e+00,5.937500000000002665e+00,-3.562500000000001776e+00,-1.343750000000000711e+01,1.187500000000000888e+00,1.475000000000000711e+01,5.000000000000000000e-01,-8.812500000000003553e+00,4.937500000000002665e+00,4.562500000000002665e+00,-5.625000000000001776e+00,-4.250000000000001776e+00,-2.500000000000000000e-01,8.125000000000003553e+00,5.125000000000002665e+00,-1.187500000000000355e+01,-3.687500000000000888e+00,1.431250000000000711e+01,5.625000000000000000e-01,-1.262500000000000533e+01,2.312500000000001776e+00,7.812500000000003553e+00,-2.062500000000000444e+00,-4.812500000000001776e+00,-3.750000000000001776e+00,2.375000000000000888e+00,9.687500000000003553e+00,7.312500000000003553e+00,-2.125000000000000888e+00,-5.187500000000002665e+00,-8.125000000000004441e-01,-5.062500000000002665e+00,-4.312500000000001776e+00,6.500000000000003553e+00,3.812500000000001776e+00,-1.125000000000000666e+00,1.937500000000000888e+00,-1.625000000000000888e+00,-8.375000000000003553e+00,-1.750000000000000888e+00,1.206250000000000533e+01,5.937500000000002665e+00,-1.168750000000000355e+01,-8.875000000000003553e+00,6.937500000000003553e+00,8.062500000000003553e+00,-6.437500000000003553e+00,-1.437500000000000711e+01,-4.500000000000001776e+00,1.168750000000000355e+01,1.393750000000000533e+01,-2.000000000000001776e+00,-9.375000000000003553e+00,2.812500000000000888e+00,7.125000000000002665e+00,-2.125000000000000888e+00,-9.437500000000003553e+00,-6.000000000000001776e+00,1.037500000000000355e+01,1.181250000000000355e+01,-9.187500000000003553e+00,-1.168750000000000355e+01,2.562500000000000888e+00,-1.875000000000000000e-01,-2.187500000000000888e+00,8.500000000000003553e+00,2.625000000000001776e+00,-6.937500000000003553e+00,-4.375000000000000000e-01,1.062500000000000888e+00,2.312500000000001332e+00,8.062500000000003553e+00,1.000000000000000000e+00,-1.043750000000000533e+01,-1.068750000000000533e+01,-2.500000000000000000e-01,6.375000000000002665e+00,5.250000000000001776e+00,5.937500000000002665e+00,-1.187500000000000000e+00,-8.500000000000003553e+00,2.187500000000000888e+00,1.068750000000000533e+01,8.875000000000005329e+00,5.062500000000002665e+00,-3.250000000000002665e+00,-7.750000000000004441e+00,-3.125000000000001776e+00,7.187500000000003553e+00,1.343750000000000711e+01,1.062500000000000355e+01,7.437500000000003553e+00,-3.000000000000000000e+00,-1.975000000000001066e+01,-1.468750000000000711e+01,6.500000000000003553e+00,7.625000000000003553e+00,-8.812500000000003553e+00,-1.437500000000000711e+01,-1.375000000000000888e+00,1.387500000000000533e+01,1.168750000000000355e+01,-4.375000000000002665e+00,-8.937500000000003553e+00,2.937500000000000888e+00,7.437500000000002665e+00,1.750000000000000888e+00,3.750000000000001110e-01,4.250000000000001776e+00,6.875000000000003553e+00,-1.187500000000000000e+00,-1.337500000000000533e+01,-7.312500000000003553e+00,7.250000000000002665e+00,1.125000000000000888e+00,-6.750000000000003553e+00,6.750000000000001776e+00,1.031250000000000355e+01,-7.312500000000003553e+00,-1.450000000000000533e+01,-6.437500000000001776e+00,-7.500000000000004441e-01,6.250000000000002776e-02,1.875000000000000833e-01,6.250000000000002776e-02,-3.750000000000002220e-01,-4.375000000000002220e-01,1.250000000000000555e-01,4.375000000000002220e-01,6.250000000000005551e-02,-2.500000000000001110e-01,-6.250000000000002776e-02,1.250000000000000555e-01,1.250000000000000555e-01,1.250000000000000555e-01,0.000000000000000000e+00,-1.250000000000000555e-01,-6.250000000000002776e-02,0.000000000000000000e+00,6.250000000000002776e-02,1.250000000000000555e-01,-1.250000000000000833e-01,-3.750000000000002220e-01,6.250000000000000000e-02,5.000000000000002220e-01,6.250000000000000000e-02,-3.125000000000001665e-01,-6.250000000000002776e-02,-1.250000000000000833e-01,-2.500000000000001110e-01,3.125000000000002220e-01,5.000000000000002220e-01,-1.875000000000001110e-01,-3.125000000000001665e-01,3.125000000000001665e-01,2.500000000000001110e-01,-4.375000000000002220e-01,-5.000000000000002220e-01,1.875000000000001110e-01,5.625000000000002220e-01,6.250000000000000000e-02,-3.750000000000002220e-01,-1.250000000000000833e-01,1.250000000000000555e-01,1.250000000000000555e-01,1.250000000000000555e-01,-5.875000000000001776e+00,-1.393750000000000533e+01,-4.125000000000001776e+00,7.250000000000003553e+00,2.125000000000000888e+00,5.125000000000002665e+00,6.375000000000003553e+00,-1.318750000000000533e+01,-2.825000000000001421e+01,-2.125000000000001066e+01,8.812500000000003553e+00,3.712500000000001421e+01,2.162500000000000711e+01,-6.937500000000003553e+00,-2.875000000000001776e+00,-3.062500000000001776e+00,-1.106250000000000533e+01,5.000000000000001776e+00,1.087500000000000355e+01,-9.125000000000003553e+00,-1.906250000000000711e+01,-7.750000000000001776e+00,1.181250000000000355e+01,2.537500000000001066e+01,1.300000000000000711e+01,-1.375000000000000711e+01,-1.212500000000000711e+01,2.437500000000001332e+00,-4.812500000000001776e+00,-9.812500000000005329e+00,-3.375000000000001332e+00,3.875000000000001776e+00,1.262500000000000533e+01,8.312500000000003553e+00,-1.500000000000000666e+00,-4.125000000000000888e+00,-6.500000000000002665e+00,-2.625000000000001776e+00,8.750000000000001110e-01,-1.875000000000000555e-01,8.500000000000003553e+00,1.237500000000000533e+01,2.500000000000000000e-01,-5.875000000000002665e+00,-4.750000000000001776e+00,-3.375000000000000888e+00,8.625000000000003553e+00,1.481250000000000533e+01,-4.687500000000003553e+00,-2.412500000000001066e+01,-1.037500000000000355e+01,1.787500000000001066e+01,1.712500000000000711e+01,1.249999999999995559e-01,-4.312500000000001776e+00,-2.375000000000000888e+00,2.875000000000001776e+00,-1.062500000000000000e+00,-9.500000000000003553e+00,-5.625000000000000000e-01,4.250000000000000888e+00,-1.375000000000001110e+00,-2.062500000000000888e+00,-2.312500000000000888e+00,6.937500000000002665e+00,1.662500000000000711e+01,6.250000000000000000e-01,-1.456250000000000711e+01,-5.000000000000000000e-01,9.437500000000003553e+00,-2.812500000000001776e+00,-5.562500000000002665e+00,8.125000000000004441e-01,1.125000000000000444e+00,5.125000000000001776e+00,1.875000000000000444e+00,-6.000000000000003553e+00,2.500000000000000000e-01,2.437500000000001332e+00,-1.062500000000000444e+00,-1.187500000000000666e+00,-7.937500000000004441e+00,-2.937500000000001776e+00,1.393750000000000533e+01,9.062500000000003553e+00,-4.250000000000001776e+00,5.000000000000004441e-01,2.875000000000001332e+00,-6.250000000000001776e+00,-2.937500000000000444e+00,8.187500000000003553e+00,3.312500000000000444e+00,-1.143750000000000533e+01,-1.250000000000000533e+01,2.000000000000000888e+00,1.168750000000000711e+01,2.937500000000001776e+00,-9.625000000000005329e+00,-2.562500000000001776e+00,6.125000000000002665e+00,-8.125000000000008882e-01,5.000000000000000000e-01,4.687500000000001776e+00,-2.812500000000001332e+00,-4.375000000000001776e+00,-4.687500000000001776e+00,-1.031250000000000533e+01,-1.250000000000008882e-01,2.050000000000001066e+01,1.675000000000000711e+01,-9.250000000000003553e+00,-1.843750000000000711e+01,-6.250000000000000000e-02,1.606250000000000711e+01,3.375000000000000888e+00,-1.412500000000000711e+01,-3.187500000000001776e+00,7.625000000000002665e+00,-8.750000000000004441e-01,4.375000000000004441e-01,5.687500000000002665e+00,-2.812500000000000888e+00,1.687500000000001776e+00,2.268750000000001066e+01,1.431250000000000533e+01,-1.656250000000000711e+01,-1.137500000000000533e+01,9.562500000000005329e+00,3.062500000000001776e+00,1.625000000000000888e+00,8.625000000000003553e+00,1.874999999999991118e-01,-1.875000000000000000e-01,-6.249999999999911182e-02,-1.112500000000000711e+01,-2.875000000000002665e+00,4.562500000000001776e+00,-7.500000000000003553e+00,3.124999999999991118e-01,2.100000000000001066e+01,1.481250000000000888e+01,-5.312500000000001776e+00,-1.068750000000000711e+01,-2.625000000000002665e+00,-5.875000000000003553e+00,-2.350000000000001066e+01,-1.375000000000000711e+01,1.593750000000000711e+01,1.200000000000000711e+01,-1.000000000000000355e+01,-1.131250000000000355e+01,-2.750000000000000888e+00,6.250000000000002776e-02,0.000000000000000000e+00,0.000000000000000000e+00,0.000000000000000000e+00,0.000000000000000000e+00,0.000000000000000000e+00,-6.250000000000002776e-02,-1.250000000000000555e-01,6.250000000000002776e-02,1.875000000000000833e-01,-6.812500000000003553e+00,-1.362500000000000711e+01,3.250000000000001776e+00,1.550000000000000711e+01,1.312500000000000888e+00,4.625000000000001776e+00,2.312500000000000000e+00,-3.181250000000001776e+01,-1.800000000000001066e+01,3.231250000000001421e+01,2.681250000000001421e+01,-1.781250000000001066e+01,-3.562500000000001421e+01,1.068750000000000711e+01,5.206250000000002842e+01,-5.375000000000000000e+00,-5.181250000000002132e+01,-1.031250000000000178e+01,6.562500000000002665e+00,-6.750000000000003553e+00,7.062500000000003553e+00,1.118750000000000533e+01,-6.250000000000008882e-01,-4.375000000000000000e-01,9.312500000000005329e+00,1.062500000000000533e+01,5.625000000000000000e-01,1.137500000000000533e+01,2.300000000000001066e+01,-9.562500000000007105e+00,-3.037500000000001421e+01,-1.562500000000000000e+00,1.975000000000000711e+01,2.250000000000000000e+00,-2.000000000000001066e+01,-8.062500000000005329e+00,1.475000000000000533e+01,8.062500000000003553e+00,-1.018750000000000355e+01,-4.562500000000001776e+00,1.918750000000000711e+01,1.506250000000000711e+01,-1.893750000000000711e+01,-2.031250000000000711e+01,9.687500000000003553e+00,9.687500000000003553e+00,-9.000000000000003553e+00,-1.250000000000000888e+00,9.625000000000003553e+00,-4.062500000000001776e+00,-1.256250000000000533e+01,-1.750000000000000888e+00,7.437500000000002665e+00,1.143750000000000533e+01,1.481250000000000711e+01,8.625000000000003553e+00,-5.437500000000003553e+00,-8.812500000000003553e+00,-3.500000000000000888e+00,-1.875000000000000444e+00,1.125000000000000666e+00,6.062500000000001776e+00,8.749999999999995559e-01,-7.750000000000003553e+00,-8.750000000000000000e-01,3.625000000000001776e+00,-4.625000000000001776e+00,-1.562500000000000444e+00,8.062500000000003553e+00,5.937500000000001776e+00,-6.687500000000003553e+00,-2.031250000000001066e+01,-2.150000000000001066e+01,-1.487500000000000711e+01,-1.687500000000000711e+01,-6.187500000000000888e+00,1.550000000000000711e+01,-6.250000000000007105e+00,-3.568750000000002132e+01,-3.125000000000000000e-01,3.725000000000002132e+01,1.481250000000000711e+01,-3.375000000000002665e+00,7.312500000000003553e+00,1.000000000000000888e+00,-5.187500000000002665e+00,1.112500000000000533e+01,1.887500000000000711e+01,9.500000000000003553e+00,1.875000000000000888e+00,3.125000000000001110e-01,1.875000000000000833e-01,1.875000000000000833e-01,1.250000000000000555e-01,-1.875000000000001110e-01,-1.875000000000001110e-01,3.750000000000002220e-01,5.000000000000002220e-01,-1.250000000000000555e-01,-3.125000000000001110e-01,0.000000000000000000e+00,0.000000000000000000e+00,-1.250000000000000555e-01,6.250000000000002776e-02,1.875000000000000833e-01,-6.250000000000002776e-02,-2.500000000000001110e-01,-1.875000000000000833e-01,1.875000000000000833e-01,5.000000000000002220e-01,1.250000000000000555e-01,-2.500000000000001110e-01,-1.250000000000000555e-01,-6.250000000000002776e-02,-1.250000000000000555e-01,1.250000000000000833e-01,3.750000000000002220e-01,0.000000000000000000e+00,-2.500000000000001110e-01,3.125000000000001110e-01,8.125000000000004441e-01,3.000000000000000888e+00,6.750000000000002665e+00,4.562500000000002665e+00,7.250000000000003553e+00,2.200000000000001066e+01,1.018750000000000711e+01,-2.243750000000000711e+01,-2.175000000000001066e+01,-4.937500000000002665e+00,-3.312500000000001332e+00,-5.500000000000001776e+00,-4.187500000000001776e+00,-1.875000000000004441e-01,-2.187500000000000888e+00,6.250000000000044409e-02,1.693750000000000711e+01,1.831250000000001066e+01,1.750000000000000888e+00,-6.562500000000003553e+00,-7.437500000000003553e+00,-1.375000000000000888e+00,1.249999999999999778e+00,-6.562500000000002665e+00,-7.500000000000000000e-01,7.062500000000002665e+00,-1.500000000000000888e+00,-3.187500000000000888e+00,6.125000000000003553e+00,3.750000000000001776e+00,-1.206250000000000711e+01,-1.187500000000000533e+01,3.437500000000000888e+00,5.125000000000001776e+00,1.025000000000000355e+01,1.825000000000000711e+01,-2.562500000000000000e+00,-2.431250000000001066e+01,-1.593750000000000711e+01,9.375000000000008882e-01,7.625000000000003553e+00,1.187500000000000533e+01,1.031250000000000355e+01,-7.875000000000004441e+00,-1.400000000000000711e+01,6.187500000000003553e+00,6.750000000000004441e+00,-1.437500000000000711e+01,-6.437500000000003553e+00,1.243750000000000533e+01,2.500000000000000000e-01,-9.187500000000003553e+00,8.000000000000003553e+00,1.143750000000000355e+01,-1.018750000000000533e+01,-2.056250000000000711e+01,7.500000000000017764e-01,1.856250000000000711e+01,-4.062500000000003553e+00,-1.581250000000000711e+01,1.075000000000000711e+01,1.506250000000000711e+01,-7.437500000000003553e+00,-1.687500000000000711e+01,-5.000000000000000000e-01,2.525000000000001066e+01,1.356250000000000533e+01,-1.787500000000000711e+01,-1.275000000000000711e+01,4.062500000000001776e+00,5.500000000000002665e+00,2.875000000000001332e+00,-3.875000000000001332e+00,-2.437500000000000888e+00,2.875000000000001332e+00,-5.000000000000002220e-01,7.000000000000002665e+00,9.687500000000003553e+00,-1.093750000000000711e+01,-1.793750000000000711e+01,1.250000000000001776e+00,1.856250000000000711e+01,1.243750000000000533e+01,-4.500000000000002665e+00,-2.187500000000001332e+00,-2.250000000000001332e+00,-2.200000000000001066e+01,-1.362500000000000533e+01,1.662500000000000711e+01,8.437500000000005329e+00,-9.812500000000003553e+00,7.250000000000000888e+00,1.368750000000000355e+01,-4.187500000000001776e+00,-3.187500000000001332e+00,-1.125000000000000444e+00,-8.312500000000003553e+00,6.562500000000003553e+00,1.125000000000000533e+01,-9.125000000000003553e+00,-7.125000000000001776e+00,3.875000000000001776e+00,-7.750000000000002665e+00,-8.875000000000003553e+00,1.681250000000000711e+01,2.056250000000000711e+01,-5.687500000000001776e+00,-1.218750000000000533e+01,-4.687500000000002665e+00,-8.437500000000003553e+00,-4.625000000000001776e+00,8.125000000000003553e+00,1.168750000000000533e+01,1.937500000000000888e+00,-7.687500000000003553e+00,1.250000000000000888e+00,7.062500000000003553e+00,-5.187500000000003553e+00,-5.437500000000003553e+00,5.625000000000001776e+00,9.750000000000003553e+00,5.250000000000002665e+00,-1.193750000000000711e+01,-1.806250000000001066e+01,3.062500000000001776e+00,1.706250000000000711e+01,7.500000000000000000e-01,-1.800000000000000711e+01,-5.562500000000003553e+00,1.550000000000000711e+01,1.137500000000000533e+01,-3.437500000000001332e+00,-4.812500000000001776e+00,3.625000000000001776e+00,4.437500000000001776e+00,-4.687500000000002665e+00,-7.062500000000003553e+00,7.062500000000002665e+00,9.437500000000003553e+00,-8.937500000000003553e+00,-1.200000000000000533e+01,-4.812500000000001776e+00,2.750000000000001776e+00,1.818750000000001066e+01,7.437500000000004441e+00,-2.362500000000001066e+01,-1.612500000000000711e+01,1.881250000000000711e+01,2.181250000000000711e+01,-4.187500000000001776e+00,-1.087500000000000355e+01,1.687500000000000888e+00,1.187500000000000888e+00,-3.625000000000001332e+00,2.500000000000000000e-01,6.250000000000001110e-01,-3.125000000000000000e-01,-4.500000000000001776e+00,-7.437500000000003553e+00,8.562500000000003553e+00,1.100000000000000533e+01,-4.312500000000002665e+00,-9.375000000000008882e-01,-2.375000000000000888e+00,-5.625000000000002665e+00,6.187500000000003553e+00,-3.750000000000000000e-01,-1.106250000000000533e+01,-1.500000000000000000e+00,3.437500000000001776e+00,1.500000000000000444e+00,3.562500000000001332e+00,-1.500000000000000888e+00,-4.000000000000001776e+00,9.437500000000005329e+00,1.118750000000000711e+01,-3.375000000000001776e+00,-4.562500000000002665e+00,-6.437500000000002665e+00,-1.681250000000000711e+01,-3.312500000000000888e+00,1.737500000000000711e+01,1.087500000000000533e+01,-3.125000000000005551e-01,2.437500000000000888e+00,5.125000000000001776e+00,-4.312500000000002665e+00,-2.187500000000001066e+01,-1.593750000000000711e+01,1.037500000000000355e+01,1.031250000000000355e+01,-7.562500000000003553e+00,6.625000000000003553e+00,3.787500000000002132e+01,1.481250000000001066e+01,-3.668750000000001421e+01,-3.062500000000001421e+01,1.062500000000000000e+00,7.562500000000003553e+00,1.506250000000000888e+01,1.331250000000000711e+01,-1.450000000000000711e+01,-1.743750000000000711e+01,1.318750000000000711e+01,1.131250000000000533e+01,-1.387500000000000711e+01,1.068750000000000178e+01,2.900000000000001066e+01,-1.850000000000001066e+01,-3.537500000000001421e+01,-1.562500000000000000e+00,1.231250000000000533e+01,7.687500000000002665e+00,1.250000000000000222e+00,1.250000000000002220e-01,5.000000000000001776e+00,7.562500000000001776e+00,3.562500000000000888e+00
-3.525000000000000711e+01,1.750000000000000355e+01,-1.125000000000000355e+01,1.725000000000000355e+01,-2.400000000000000711e+01,2.050000000000000355e+01,-3.250000000000000888e+00,-1.825000000000000355e+01,1.125000000000000355e+01,1.200000000000000178e+01,-2.175000000000000355e+01,1.825000000000000355e+01,-1.250000000000000000e+00,-1.075000000000000355e+01,1.150000000000000355e+01,-1.875000000000000711e+01,1.325000000000000355e+01,6.000000000000001776e+00,-1.800000000000000355e+01,9.750000000000001776e+00,1.400000000000000355e+01,-2.150000000000000711e+01,1.600000000000000355e+01,-2.325000000000000711e+01,2.775000000000000711e+01,-2.675000000000000711e+01,1.925000000000000355e+01,-3.500000000000000888e+00,-7.250000000000001776e+00,1.625000000000000355e+01,-6.500000000000000888e+00,-1.675000000000000355e+01,9.000000000000003553e+00,1.300000000000000355e+01,-5.750000000000000888e+00,-1.425000000000000355e+01,2.375000000000000711e+01,-2.600000000000000711e+01,1.450000000000000355e+01,1.300000000000000355e+01,-2.400000000000000711e+01,2.250000000000000711e+01,-1.875000000000000711e+01,6.750000000000001776e+00,1.675000000000000355e+01,-2.100000000000000355e+01,6.500000000000001776e+00,-1.750000000000000222e+00,1.100000000000000355e+01,-2.225000000000000711e+01,1.775000000000000355e+01,-8.500000000000001776e+00,1.325000000000000355e+01,-1.125000000000000355e+01,1.525000000000000355e+01,-9.750000000000001776e+00,-1.200000000000000355e+01,7.750000000000001776e+00,1.150000000000000355e+01,9.250000000000000000e+00,-2.900000000000000711e+01,2.225000000000000711e+01,-1.650000000000000355e+01,5.000000000000001110e-01,-2.500000000000000555e-01,0.000000000000000000e+00,0.000000000000000000e+00,0.000000000000000000e+00,0.000000000000000000e+00,-2.500000000000000555e-01,5.000000000000001110e-01,-2.500000000000000555e-01,0.000000000000000000e+00,0.000000000000000000e+00,2.500000000000000555e-01,-5.000000000000001110e-01,2.500000000000000555e-01,2.500000000000000555e-01,-5.000000000000001110e-01,2.500000000000000555e-01,0.000000000000000000e+00,0.000000000000000000e+00,0.000000000000000000e+00,0.000000000000000000e+00,2.500000000000000555e-01,-5.000000000000001110e-01,2.500000000000000555e-01,0.000000000000000000e+00,2.500000000000000555e-01,-2.500000000000000555e-01,-2.500000000000000555e-01,5.000000000000001110e-01,-7.500000000000002220e-01,7.500000000000002220e-01,-2.500000000000000555e-01,0.000000000000000000e+00,2.500000000000000555e-01,-5.000000000000001110e-01,2.500000000000000555e-01,0.000000000000000000e+00,2.500000000000000555e-01,-5.000000000000001110e-01,2.500000000000000555e-01,0.000000000000000000e+00,2.500000000000000555e-01,-5.000000000000001110e-01,2.500000000000000555e-01,0.000000000000000000e+00,2.500000000000000555e-01,-5.000000000000001110e-01,5.000000000000001110e-01,-7.500000000000002220e-01,7.500000000000002220e-01,-2.500000000000000555e-01,0.000000000000000000e+00,0.000000000000000000e+00,2.500000000000000555e-01,-5.000000000000001110e-01,-1.000000000000000178e+01,-5.750000000000001776e+00,1.350000000000000355e+01,1.000000000000000000e+00,-7.000000000000001776e+00,-3.750000000000001776e+00,7.500000000000002665e+00,-5.500000000000000888e+00,1.150000000000000178e+01,2.250000000000000888e+00,-1.350000000000000355e+01,6.500000000000000888e+00,-1.000000000000000355e+01,1.750000000000000355e+01,-4.500000000000000888e+00,-9.250000000000001776e+00,7.750000000000001776e+00,-2.250000000000000444e+00,-1.000000000000000000e+00,-4.000000000000000888e+00,1.275000000000000355e+01,-2.175000000000000355e+01,2.125000000000000355e+01,-1.825000000000000355e+01,1.825000000000000355e+01,-3.000000000000000888e+00,-9.000000000000001776e+00,8.250000000000001776e+00,-9.500000000000001776e+00,1.500000000000000355e+01,-1.500000000000000355e+01,1.400000000000000355e+01,5.000000000000000000e-01,-1.475000000000000355e+01,1.550000000000000355e+01,-1.475000000000000355e+01,9.250000000000001776e+00,8.750000000000001776e+00,-1.425000000000000355e+01,-5.250000000000000000e+00,4.500000000000000000e+00,-2.000000000000000000e+00,1.475000000000000355e+01,-3.000000000000000888e+00,-9.750000000000003553e+00,-1.250000000000000000e+00,2.500000000000000000e-01,1.700000000000000355e+01,-1.575000000000000355e+01,7.500000000000008882e-01,7.250000000000001776e+00,-1.125000000000000178e+01,2.650000000000000711e+01,-2.000000000000000355e+01,-7.500000000000000888e+00,2.550000000000000711e+01,-2.575000000000000711e+01,7.500000000000000888e+00,7.500000000000004441e-01,7.750000000000001776e+00,9.500000000000003553e+00,-3.125000000000000711e+01,2.275000000000000711e+01,2.250000000000000000e+00,-1.900000000000000355e+01,1.150000000000000178e+01,8.000000000000001776e+00,-1.900000000000000355e+01,1.825000000000000355e+01,-1.250000000000000000e+00,-2.000000000000000711e+01,1.275000000000000355e+01,-3.250000000000000888e+00,1.675000000000000355e+01,-2.100000000000000711e+01,4.000000000000000888e+00,1.675000000000000355e+01,-2.075000000000000711e+01,4.750000000000000888e+00,-1.000000000000000000e+00,1.075000000000000355e+01,-1.075000000000000355e+01,1.300000000000000355e+01,-1.475000000000000355e+01,-1.500000000000000000e+00,2.025000000000000711e+01,-1.550000000000000355e+01,6.750000000000001776e+00,-7.750000000000001776e+00,-3.250000000000000888e+00,1.650000000000000355e+01,-1.300000000000000355e+01,-5.000000000000000888e+00,1.075000000000000178e+01,1.000000000000000444e+00,3.750000000000000888e+00,-1.600000000000000355e+01,1.350000000000000355e+01,3.000000000000000888e+00,-1.900000000000000355e+01,2.150000000000000355e+01,-9.750000000000001776e+00,-1.375000000000000355e+01,1.750000000000000355e+01,-8.750000000000001776e+00,1.000000000000000178e+01,-4.000000000000000888e+00,-1.175000000000000178e+01,1.725000000000000355e+01,-1.200000000000000355e+01,-2.500000000000000888e+00,2.250000000000000711e+01,-1.575000000000000355e+01,-8.250000000000001776e+00,2.650000000000000711e+01,-2.850000000000000711e+01,1.950000000000000355e+01,2.500000000000000000e-01,-1.700000000000000355e+01,5.750000000000001776e+00,1.875000000000000355e+01,-2.475000000000000711e+01,2.450000000000000711e+01,-1.000000000000000000e+00,-2.125000000000000711e+01,6.000000000000001776e+00,1.525000000000000355e+01,-2.225000000000000711e+01,1.150000000000000355e+01,1.075000000000000355e+01,-2.050000000000000355e+01,7.750000000000001776e+00,1.250000000000000355e+01,-1.850000000000000355e+01,-6.250000000000000888e+00,1.900000000000000355e+01,-1.500000000000000000e+00,-1.900000000000000355e+01,1.675000000000000355e+01,4.500000000000000888e+00,-9.000000000000001776e+00,3.750000000000000888e+00,-1.250000000000000355e+01,1.650000000000000355e+01,-1.000000000000000178e+01,9.000000000000001776e+00,-1.900000000000000355e+01,2.050000000000000355e+01,-1.150000000000000178e+01,-1.000000000000000355e+01,2.050000000000000711e+01,-1.150000000000000355e+01,1.500000000000000355e+01,-1.725000000000000355e+01,2.500000000000000888e+00,-3.750000000000000888e+00,2.225000000000000711e+01,-1.375000000000000355e+01,-7.250000000000001776e+00,-1.000000000000000000e+00,1.050000000000000355e+01,2.500000000000000000e-01,-9.500000000000001776e+00,1.300000000000000355e+01,-1.750000000000000888e+00,-1.800000000000000355e+01,1.075000000000000355e+01,6.500000000000001776e+00,-1.125000000000000355e+01,1.275000000000000355e+01,1.500000000000000000e+00,-1.750000000000000355e+01,4.500000000000000888e+00,9.250000000000001776e+00,7.000000000000000888e+00,-1.875000000000000355e+01,2.500000000000000000e-01,1.275000000000000355e+01,-3.500000000000000444e+00,6.500000000000001776e+00,-1.075000000000000178e+01,3.000000000000000444e+00,-1.350000000000000355e+01,1.500000000000000355e+01,1.500000000000000444e+00,6.000000000000000888e+00,-2.450000000000000711e+01,1.600000000000000355e+01,1.750000000000000222e+00,-7.500000000000001776e+00,1.725000000000000355e+01,-2.675000000000000711e+01,2.675000000000000711e+01,-2.300000000000000711e+01,8.750000000000001776e+00,1.750000000000000444e+00,1.050000000000000178e+01,-1.275000000000000178e+01,2.000000000000000444e+00,-7.000000000000001776e+00,1.975000000000000711e+01,-1.600000000000000355e+01,-7.250000000000000888e+00,1.775000000000000355e+01,1.500000000000000000e+00,-1.400000000000000355e+01,-4.250000000000000888e+00,2.475000000000000711e+01,-2.225000000000000711e+01,1.450000000000000355e+01,-1.550000000000000355e+01,1.000000000000000000e+00,2.225000000000000711e+01,-2.675000000000000711e+01,2.175000000000000355e+01,-9.000000000000001776e+00,-1.175000000000000178e+01,2.200000000000000355e+01,-1.275000000000000178e+01,-1.250000000000000000e+00,-9.000000000000001776e+00,1.875000000000000355e+01,1.500000000000000000e+00,-2.225000000000000711e+01,1.600000000000000355e+01,9.500000000000001776e+00,-2.675000000000000711e+01,2.650000000000000711e+01,-2.200000000000000355e+01,9.500000000000001776e+00,1.375000000000000355e+01,-1.800000000000000355e+01,-6.000000000000000888e+00,2.000000000000000355e+01,-5.000000000000000000e-01,-1.875000000000000355e+01,6.250000000000000888e+00,1.900000000000000355e+01,-2.875000000000000711e+01,2.600000000000000711e+01,-2.200000000000000711e+01,8.750000000000001776e+00,6.750000000000000888e+00,-8.000000000000001776e+00,1.725000000000000355e+01,-2.750000000000000711e+01,2.325000000000000711e+01,-9.750000000000001776e+00,-1.100000000000000178e+01,1.675000000000000355e+01,-2.500000000000000888e+00,-1.075000000000000355e+01,1.725000000000000355e+01,-1.575000000000000355e+01,1.275000000000000355e+01,-2.125000000000000711e+01,2.075000000000000711e+01,2.250000000000000000e+00,-1.300000000000000355e+01,5.000000000000000000e-01,-5.000000000000000000e-01,1.325000000000000355e+01,-1.125000000000000178e+01,-7.500000000000000000e-01,-7.750000000000001776e+00,9.750000000000001776e+00,3.750000000000000888e+00,5.000000000000000888e+00,-1.800000000000000355e+01,9.250000000000001776e+00,9.750000000000001776e+00,-1.625000000000000355e+01,1.600000000000000355e+01,-2.325000000000000711e+01,1.450000000000000355e+01,9.750000000000001776e+00,-7.500000000000001776e+00,-1.600000000000000355e+01,1.875000000000000355e+01,-5.500000000000000888e+00,-8.750000000000001776e+00,8.250000000000001776e+00,1.400000000000000355e+01,-3.100000000000000711e+01,2.625000000000000711e+01,-1.100000000000000178e+01,-5.250000000000001776e+00,1.725000000000000355e+01,-1.050000000000000178e+01,2.750000000000000888e+00,-7.750000000000001776e+00,-2.500000000000000000e+00,1.325000000000000355e+01,-1.075000000000000355e+01,6.750000000000001776e+00,8.000000000000001776e+00,-1.900000000000000355e+01,7.000000000000000888e+00,1.325000000000000355e+01,-1.825000000000000355e+01,2.725000000000000711e+01,-2.400000000000000355e+01,1.250000000000000355e+01,-9.750000000000001776e+00,1.750000000000000444e+00,1.300000000000000355e+01,-7.250000000000002665e+00,7.500000000000002665e+00,2.250000000000000000e+00,-8.250000000000001776e+00,-1.525000000000000355e+01,1.500000000000000355e+01,3.500000000000000000e+00,-8.750000000000001776e+00,-2.500000000000000000e-01,-1.075000000000000178e+01,1.850000000000000355e+01,-5.250000000000000888e+00,8.750000000000003553e+00,-2.000000000000000711e+01,1.250000000000000355e+01,4.500000000000000888e+00,-1.000000000000000178e+01,1.275000000000000355e+01,-1.450000000000000355e+01,1.850000000000000355e+01,-1.100000000000000355e+01,5.750000000000000888e+00,-2.125000000000000355e+01,2.250000000000000711e+01,-3.750000000000001776e+00,-1.175000000000000355e+01,5.250000000000001776e+00,1.500000000000000355e+01,-1.375000000000000355e+01,-3.000000000000000888e+00,0.000000000000000000e+00,0.000000000000000000e+00,0.000000000000000000e+00,0.000000000000000000e+00,2.500000000000000555e-01,-2.500000000000000555e-01,-2.500000000000000555e-01,0.000000000000000000e+00,5.000000000000001110e-01,-2.500000000000000555e-01,0.000000000000000000e+00,-2.500000000000000555e-01,5.000000000000001110e-01,-5.000000000000001110e-01,5.000000000000001110e-01,-2.500000000000000555e-01,0.000000000000000000e+00,0.000000000000000000e+00,0.000000000000000000e+00,0.000000000000000000e+00,0.000000000000000000e+00,2.500000000000000555e-01,-5.000000000000001110e-01,0.000000000000000000e+00,5.000000000000001110e-01,0.000000000000000000e+00,-5.000000000000001110e-01,2.500000000000000555e-01,2.500000000000000555e-01,-7.500000000000002220e-01,5.000000000000001110e-01,2.500000000000000555e-01,0.000000000000000000e+00,-7.500000000000002220e-01,7.500000000000002220e-01,0.000000000000000000e+00,-2.500000000000000555e-01,-2.500000000000000555e-01,0.000000000000000000e+00,5.000000000000001110e-01,0.000000000000000000e+00,-5.000000000000001110e-01,2.500000000000000555e-01,0.000000000000000000e+00,0.000000000000000000e+00,0.000000000000000000e+00,2.500000000000000555e-01,-5.000000000000001110e-01,-2.300000000000000355e+01,3.825000000000000711e+01,-2.975000000000000711e+01,1.100000000000000355e+01,1.300000000000000355e+01,-1.675000000000000355e+01,2.500000000000000000e-01,-1.625000000000000000e+01,4.500000000000000000e+00,1.025000000000000178e+01,3.200000000000000711e+01,-4.275000000000000711e+01,2.000000000000000355e+01,1.050000000000000178e+01,-3.450000000000000711e+01,2.550000000000000355e+01,-1.250000000000000222e+00,-5.000000000000002220e-01,-1.450000000000000355e+01,4.000000000000001776e+00,-2.000000000000001776e+00,1.150000000000000355e+01,1.175000000000000178e+01,-1.050000000000000178e+01,-2.050000000000000355e+01,3.150000000000000711e+01,-2.125000000000000355e+01,-1.750000000000000000e+00,9.750000000000001776e+00,-1.425000000000000355e+01,1.325000000000000355e+01,1.075000000000000178e+01,-2.475000000000000711e+01,2.900000000000000711e+01,-2.975000000000000711e+01,1.675000000000000355e+01,-5.750000000000001776e+00,2.000000000000000888e+00,-7.250000000000000888e+00,2.250000000000000355e+01,-1.475000000000000355e+01,5.000000000000000000e-01,4.750000000000000888e+00,-9.000000000000001776e+00,1.250000000000000000e+00,1.600000000000000355e+01,-5.750000000000000888e+00,-9.750000000000003553e+00,-1.050000000000000178e+01,1.100000000000000355e+01,2.225000000000000355e+01,-3.175000000000000711e+01,2.850000000000000711e+01,-2.300000000000000711e+01,8.500000000000001776e+00,1.225000000000000178e+01,-2.500000000000000711e+01,1.125000000000000355e+01,9.500000000000001776e+00,-2.000000000000000711e+01,2.000000000000000711e+01,-1.475000000000000355e+01,1.250000000000000000e+00,1.425000000000000355e+01,2.250000000000000000e+00,-1.825000000000000355e+01,3.750000000000000888e+00,1.300000000000000355e+01,-5.750000000000001776e+00,-1.400000000000000178e+01,2.350000000000000711e+01,-2.225000000000000711e+01,1.300000000000000355e+01,6.000000000000000888e+00,-1.600000000000000355e+01,5.750000000000001776e+00,1.200000000000000178e+01,-2.350000000000000711e+01,2.475000000000000711e+01,-1.600000000000000355e+01,-7.250000000000000888e+00,1.775000000000000355e+01,0.000000000000000000e+00,-5.750000000000001776e+00,-4.500000000000000888e+00,1.775000000000000355e+01,-1.900000000000000355e+01,4.750000000000000888e+00,3.500000000000000888e+00,4.000000000000000888e+00,-4.250000000000000888e+00,-1.250000000000000355e+01,1.025000000000000178e+01,-3.000000000000000888e+00,1.275000000000000178e+01,-1.475000000000000355e+01,-4.000000000000000888e+00,1.800000000000000355e+01,-1.200000000000000178e+01,-4.750000000000001776e+00,1.975000000000000711e+01,-1.850000000000000355e+01,5.250000000000000888e+00,4.500000000000000888e+00,-1.275000000000000355e+01,2.750000000000000000e+00,1.000000000000000888e+00,2.550000000000000355e+01,-2.425000000000000355e+01,4.250000000000000888e+00,-1.150000000000000178e+01,1.825000000000000355e+01,3.000000000000000000e+00,-1.550000000000000355e+01,-4.000000000000000888e+00,2.225000000000000711e+01,-1.875000000000000355e+01,3.500000000000000444e+00,1.000000000000000178e+01,-6.500000000000001776e+00,-6.500000000000000888e+00,1.025000000000000178e+01,2.075000000000000711e+01,-2.125000000000000711e+01,-1.675000000000000355e+01,3.500000000000000711e+01,-2.075000000000000355e+01,-5.000000000000000000e-01,1.550000000000000355e+01,-4.500000000000000000e+00,-1.775000000000000355e+01,3.725000000000000711e+01,-4.075000000000000711e+01,1.475000000000000355e+01,9.750000000000001776e+00,-1.325000000000000355e+01,-5.500000000000001776e+00,1.775000000000000355e+01,6.500000000000000000e+00,-1.325000000000000178e+01,7.750000000000001776e+00,-1.650000000000000355e+01,2.325000000000000355e+01,-2.225000000000000355e+01,-1.575000000000000355e+01,2.600000000000000711e+01,1.250000000000000000e+00,-1.200000000000000178e+01,2.500000000000000555e-01,0.000000000000000000e+00,0.000000000000000000e+00,0.000000000000000000e+00,0.000000000000000000e+00,0.000000000000000000e+00,0.000000000000000000e+00,0.000000000000000000e+00,0.000000000000000000e+00,0.000000000000000000e+00,-2.500000000000000555e-01,5.000000000000001110e-01,-2.500000000000000555e-01,-2.500000000000000555e-01,-2.650000000000000711e+01,5.350000000000001421e+01,-4.075000000000001421e+01,1.025000000000000355e+01,2.125000000000000355e+01,-1.850000000000000355e+01,-4.450000000000000711e+01,6.650000000000001421e+01,-1.825000000000000355e+01,-2.500000000000000000e-01,-3.750000000000000888e+00,-4.825000000000001421e+01,9.225000000000002842e+01,-2.150000000000000355e+01,-6.250000000000001421e+01,3.675000000000000711e+01,1.450000000000000355e+01,-4.825000000000000711e+01,4.775000000000000711e+01,-2.325000000000000711e+01,1.325000000000000355e+01,-1.150000000000000355e+01,9.250000000000003553e+00,5.000000000000000000e-01,1.250000000000000178e+01,-3.600000000000000711e+01,6.000000000000001421e+01,-2.900000000000000711e+01,-2.050000000000000355e+01,1.375000000000000355e+01,2.500000000000000888e+00,1.225000000000000355e+01,-1.950000000000000711e+01,-1.025000000000000178e+01,2.650000000000000711e+01,-1.100000000000000178e+01,4.500000000000000888e+00,-1.550000000000000355e+01,1.175000000000000355e+01,2.075000000000000355e+01,-1.925000000000000355e+01,-1.875000000000000355e+01,2.000000000000000355e+01,7.500000000000001776e+00,-1.700000000000000355e+01,5.000000000000000000e-01,1.400000000000000355e+01,-3.500000000000000888e+00,-1.650000000000000355e+01,1.425000000000000355e+01,-8.250000000000001776e+00,1.000000000000000355e+01,-1.250000000000000444e+00,9.500000000000001776e+00,-3.000000000000000000e+00,-1.550000000000000355e+01,2.150000000000000711e+01,-2.575000000000000711e+01,2.500000000000000711e+01,-2.350000000000000711e+01,3.000000000000000711e+01,-2.900000000000000711e+01,8.500000000000001776e+00,1.250000000000000355e+01,-1.850000000000000711e+01,8.500000000000001776e+00,0.000000000000000000e+00,4.250000000000001776e+00,-2.500000000000000000e-01,-9.250000000000001776e+00,-5.250000000000001776e+00,-8.000000000000001776e+00,1.475000000000000355e+01,-4.025000000000000711e+01,4.225000000000000711e+01,-3.250000000000000888e+00,-3.225000000000000711e+01,-5.250000000000000000e+00,4.250000000000000711e+01,-7.500000000000001776e+00,-2.275000000000000711e+01,3.050000000000000711e+01,-1.150000000000000178e+01,-9.250000000000001776e+00,1.075000000000000178e+01,7.250000000000001776e+00,-5.000000000000001110e-01,2.500000000000000555e-01,2.500000000000000555e-01,-2.500000000000000555e-01,2.500000000000000555e-01,0.000000000000000000e+00,0.000000000000000000e+00,-2.500000000000000555e-01,0.000000000000000000e+00,7.500000000000002220e-01,-5.000000000000001110e-01,-2.500000000000000555e-01,5.000000000000001110e-01,-5.000000000000001110e-01,5.000000000000001110e-01,-7.500000000000002220e-01,1.000000000000000222e+00,-7.500000000000002220e-01,2.500000000000000555e-01,0.000000000000000000e+00,-5.000000000000001110e-01,1.000000000000000222e+00,-5.000000000000001110e-01,0.000000000000000000e+00,0.000000000000000000e+00,0.000000000000000000e+00,0.000000000000000000e+00,-2.500000000000000555e-01,5.000000000000001110e-01,0.000000000000000000e+00,-5.000000000000001110e-01,2.500000000000000555e-01,5.000000000000001110e-01,-2.500000000000000555e-01,7.500000000000002220e-01,8.250000000000001776e+00,-1.000000000000000178e+01,6.000000000000000888e+00,3.125000000000000711e+01,-4.125000000000000711e+01,4.250000000000000888e+00,9.750000000000001776e+00,-1.775000000000000355e+01,1.700000000000000355e+01,-1.800000000000000355e+01,9.250000000000001776e+00,4.000000000000000888e+00,-1.725000000000000355e+01,1.725000000000000355e+01,9.500000000000003553e+00,-8.750000000000003553e+00,-5.000000000000000000e-01,6.250000000000000888e+00,-2.275000000000000711e+01,3.450000000000000711e+01,-3.150000000000000711e+01,8.750000000000001776e+00,1.250000000000000178e+01,-1.400000000000000178e+01,5.750000000000001776e+00,-3.750000000000000888e+00,1.125000000000000178e+01,-7.000000000000000888e+00,-1.525000000000000355e+01,1.350000000000000178e+01,6.750000000000001776e+00,-2.625000000000000711e+01,4.625000000000001421e+01,-2.700000000000000711e+01,1.750000000000000444e+00,-1.400000000000000355e+01,1.000000000000000178e+01,2.500000000000000555e-01,-3.000000000000000888e+00,1.500000000000000355e+01,-5.500000000000001776e+00,-1.500000000000000355e+01,4.500000000000000888e+00,2.300000000000000355e+01,-2.875000000000000711e+01,1.000000000000000000e+00,1.450000000000000355e+01,2.250000000000000888e+00,-2.150000000000000711e+01,1.450000000000000355e+01,1.075000000000000178e+01,-1.425000000000000178e+01,1.750000000000000222e+00,-1.975000000000000355e+01,3.250000000000000711e+01,-1.250000000000001776e+00,-3.850000000000000711e+01,3.500000000000000711e+01,2.500000000000000000e-01,-1.275000000000000355e+01,8.250000000000001776e+00,-2.225000000000000355e+01,2.275000000000000355e+01,2.025000000000000355e+01,-3.575000000000000711e+01,7.000000000000002665e+00,1.125000000000000355e+01,-1.525000000000000355e+01,1.750000000000000355e+01,-8.500000000000001776e+00,-9.750000000000001776e+00,1.975000000000000355e+01,-1.375000000000000355e+01,-4.500000000000000888e+00,2.925000000000000711e+01,-2.675000000000000355e+01,2.000000000000000000e+00,-3.750000000000000888e+00,9.000000000000001776e+00,1.025000000000000178e+01,-7.750000000000000888e+00,-1.300000000000000355e+01,3.050000000000000711e+01,-3.200000000000000711e+01,-4.250000000000001776e+00,1.200000000000000355e+01,2.050000000000000355e+01,-3.850000000000000711e+01,2.100000000000000355e+01,1.375000000000000355e+01,-1.850000000000000355e+01,7.500000000000000000e-01,1.525000000000000355e+01,-1.800000000000000355e+01,-8.500000000000001776e+00,4.700000000000001421e+01,-5.400000000000001421e+01,3.100000000000000711e+01,-1.600000000000000355e+01,1.850000000000000355e+01,-3.250000000000000711e+01,2.100000000000000355e+01,1.750000000000000355e+01,-1.725000000000000355e+01,-5.250000000000000888e+00,1.075000000000000178e+01,-8.750000000000001776e+00,-1.000000000000000355e+01,2.100000000000000711e+01,-1.825000000000000355e+01,2.825000000000000711e+01,-3.075000000000000711e+01,1.325000000000000355e+01,6.000000000000001776e+00,-3.750000000000001332e+00,-1.500000000000000355e+01,2.450000000000000711e+01,-2.075000000000000711e+01,2.225000000000000711e+01,-8.500000000000003553e+00,-2.000000000000000355e+01,1.500000000000000355e+01,-5.000000000000001110e-01,1.275000000000000355e+01,-1.975000000000000711e+01,-7.500000000000001776e+00,2.600000000000000711e+01,-1.500000000000000355e+01,1.575000000000000355e+01,-2.400000000000000711e+01,2.175000000000000711e+01,-1.025000000000000178e+01,5.250000000000000888e+00,-4.750000000000000888e+00,-1.200000000000000355e+01,3.750000000000001421e+01,-3.600000000000000711e+01,9.500000000000001776e+00,4.250000000000000888e+00,-1.550000000000000355e+01,1.525000000000000355e+01,1.650000000000000355e+01,-2.700000000000000711e+01,-6.750000000000001776e+00,1.325000000000000355e+01,1.450000000000000355e+01,-8.250000000000003553e+00,-1.300000000000000355e+01,1.350000000000000355e+01,-1.000000000000000000e+00,-1.000000000000000178e+01,9.750000000000001776e+00,-3.000000000000000444e+00,-4.500000000000001776e+00,9.500000000000003553e+00,-1.000000000000000355e+01,-1.400000000000000355e+01,5.275000000000001421e+01,-6.225000000000001421e+01,4.250000000000001421e+01,-1.075000000000000355e+01,-1.950000000000000355e+01,2.525000000000000711e+01,-6.000000000000000888e+00,-1.400000000000000355e+01,9.000000000000001776e+00,2.500000000000000444e+00,-8.000000000000001776e+00,8.750000000000001776e+00,0.000000000000000000e+00,-8.750000000000001776e+00,2.000000000000000888e+00,1.975000000000000355e+01,-1.825000000000000355e+01,0.000000000000000000e+00,1.500000000000000355e+01,-2.500000000000000711e+01,2.500000000000001776e+00,1.275000000000000178e+01,5.750000000000001776e+00,-1.500000000000000355e+01,1.550000000000000355e+01,-9.000000000000001776e+00,7.000000000000001776e+00,-5.000000000000000000e-01,-3.675000000000000711e+01,4.350000000000001421e+01,-2.225000000000000711e+01,1.700000000000000355e+01,-3.050000000000000711e+01,3.525000000000000711e+01,2.275000000000000355e+01,-4.600000000000000711e+01,-3.750000000000001776e+00,1.800000000000000355e+01,-1.075000000000000355e+01,2.500000000000000000e-01,2.550000000000000711e+01,-1.825000000000000355e+01,-1.700000000000000355e+01,1.725000000000000355e+01,1.075000000000000178e+01,-7.500000000000000888e+00,-4.125000000000000711e+01,9.425000000000002842e+01,-6.750000000000001421e+01,-7.000000000000001776e+00,2.325000000000000355e+01,-1.675000000000000355e+01,1.675000000000000355e+01,-3.250000000000000444e+00,-1.300000000000000178e+01,2.625000000000000711e+01,-3.025000000000000711e+01,3.875000000000001421e+01
