3.573868750000001455e+02,3.527150000000001455e+02,3.511368750000001455e+02,3.533712500000001455e+02,3.610275000000001455e+02,3.719181250000001455e+02,3.860431250000002592e+02,4.005900000000002592e+02,4.140275000000002592e+02,4.299025000000002592e+02,4.452462500000002592e+02,4.609650000000002592e+02,4.739962500000002592e+02,4.849181250000002592e+02,4.932775000000002592e+02,5.001368750000002592e+02,5.057306250000002592e+02,5.090431250000002592e+02,5.116525000000002592e+02,5.123087500000002592e+02,5.125118750000002592e+02,5.125900000000002592e+02,5.126368750000002592e+02,5.126681250000002592e+02,5.126681250000002592e+02,5.126212500000002592e+02,5.125587500000002592e+02,5.124806250000002592e+02,5.123712500000002592e+02,5.122618750000002592e+02,5.121681250000002592e+02,5.120587500000002592e+02,5.119650000000002592e+02,5.118868750000002592e+02,5.118243750000002592e+02,5.117775000000002592e+02,5.117150000000002592e+02,5.116525000000002592e+02,5.115587500000002592e+02,5.112931250000002592e+02,5.104493750000002592e+02,5.094806250000002592e+02,5.083868750000002592e+02,5.072618750000002592e+02,5.061681250000002592e+02,5.051212500000002592e+02,5.041525000000002592e+02,5.035743750000002592e+02,5.041368750000002592e+02,5.049493750000002592e+02,5.060118750000002592e+02,5.071525000000002592e+02,5.082931250000002592e+02,5.093868750000002592e+02,5.104025000000002592e+02,5.111993750000002592e+02,5.114337500000002592e+02,5.115118750000002592e+02,5.114806250000002592e+02,5.114181250000002592e+02,5.113868750000002592e+02,5.114025000000002592e+02,5.114806250000002592e+02,5.115743750000002592e+02,5.116837500000002592e+02,5.118243750000002592e+02,5.119181250000002592e+02,5.119806250000002592e+02,5.119962500000002592e+02,5.119806250000002592e+02,5.119493750000002592e+02,5.119337500000002592e+02,5.119181250000002592e+02,5.119493750000002592e+02,5.120431250000002592e+02,5.121681250000002592e+02,5.123400000000002592e+02,5.124962500000002592e+02,5.126056250000002592e+02,5.126525000000002592e+02,5.126681250000002592e+02,5.125743750000002592e+02,5.124025000000002592e+02,5.121525000000002592e+02,5.118400000000002592e+02,5.115431250000002592e+02,5.112931250000002592e+02,5.111368750000002592e+02,5.110275000000002592e+02,5.110743750000002592e+02,5.112306250000002592e+02,5.115275000000002592e+02,5.119025000000002592e+02,5.123087500000002592e+02,5.127150000000002592e+02,5.130743750000002592e+02,5.133868750000002592e+02,5.135743750000002592e+02,5.136837500000002592e+02,5.136993750000002592e+02,5.136681250000002592e+02,5.136056250000002592e+02,5.135431250000002592e+02,5.134806250000002592e+02,5.134493750000002592e+02,5.134650000000002592e+02,5.135118750000002592e+02,5.135900000000002592e+02,5.136681250000002592e+02,5.137306250000002592e+02,5.137775000000002592e+02,5.138400000000002592e+02,5.139025000000002592e+02,5.139493750000002592e+02,5.139806250000002592e+02,5.139962500000002592e+02,5.140118750000002592e+02,5.140743750000002592e+02,5.141368750000002592e+02,5.142150000000002592e+02,5.142775000000002592e+02,5.143400000000002592e+02,5.144025000000002592e+02,5.144493750000002592e+02,5.144962500000002592e+02,5.144962500000002592e+02,5.144962500000002592e+02,5.144337500000002592e+02,5.143556250000002592e+02,5.142618750000002592e+02,5.141525000000002592e+02,5.140587500000002592e+02,5.139493750000002592e+02,5.138400000000002592e+02,5.136993750000002592e+02,5.135587500000002592e+02,5.134181250000002592e+02,5.132775000000002592e+02,5.131368750000002592e+02,5.129650000000002592e+02,5.121212500000002592e+02,5.106993750000002592e+02,5.073087500000002592e+02,5.030743750000002592e+02,4.981368750000002592e+02,4.911368750000002592e+02,4.813712500000002592e+02,4.682462500000002592e+02,4.547931250000002592e+02,4.414962500000002592e+02,4.305587500000002592e+02,4.203243750000002592e+02,4.094650000000002592e+02,4.000118750000002592e+02,3.938712500000002592e+02,3.912306250000002592e+02,3.881837500000002592e+02,3.820275000000002592e+02,3.732775000000001455e+02,3.624337500000001455e+02,3.510587500000001455e+02,3.397775000000001455e+02,3.252306250000001455e+02,3.086837500000001455e+02,2.926525000000001455e+02,2.790587500000001455e+02,2.649181250000001455e+02,2.500118750000001455e+02,2.340900000000001455e+02,2.156681250000001455e+02,1.987306250000001455e+02,1.817462500000000887e+02,1.639650000000000603e+02,1.454493750000000603e+02,1.292150000000000603e+02,1.141681250000000603e+02,1.010118750000000603e+02,9.059000000000003183e+01,7.998062500000001762e+01,7.118375000000001762e+01,6.165250000000001762e+01,5.310562500000001762e+01,4.330875000000000341e+01,3.332437499999999631e+01,2.318374999999998920e+01,9.589999999999980318e+00,-4.253750000000028564e+00,-2.123812500000003922e+01,-3.748812500000005343e+01,-5.626937500000006054e+01,-7.551937500000008185e+01,-9.436312500000009607e+01,-1.141287500000001103e+02,-1.320662500000001103e+02,-1.518318750000001103e+02,-1.696131250000001387e+02,-1.873787500000001955e+02,-2.027225000000001955e+02,-2.169881250000001955e+02,-2.301287500000001955e+02,-2.416443750000001955e+02,-2.506287500000001955e+02,-2.560662500000001955e+02,-2.620350000000001955e+02,-2.676131250000001955e+02,-2.730662500000001955e+02,-2.786131250000001955e+02,-2.838943750000001955e+02,-2.892381250000001955e+02,-2.961912500000001955e+02,-3.038943750000001955e+02,-3.094100000000001955e+02,-3.147693750000001955e+02,-3.190350000000001955e+02,-3.228475000000001955e+02,-3.275506250000001955e+02,-3.342850000000001955e+02,-3.402381250000001955e+02,-3.459412500000001955e+02,-3.528318750000001955e+02,-3.597381250000001955e+02,-3.676912500000001955e+02,-3.744568750000001955e+02,-3.820506250000002524e+02,-3.878162500000003092e+02,-3.949881250000003092e+02,-4.029412500000003092e+02,-4.116756250000003661e+02,-4.197693750000003661e+02,-4.285818750000003661e+02,-4.395818750000003661e+02,-4.486131250000003661e+02,-4.573162500000003661e+02,-4.650662500000003661e+02,-4.719412500000003661e+02,-4.772381250000003661e+02,-4.820193750000003661e+02,-4.853006250000003661e+02,-4.868006250000003661e+02,-4.883162500000003661e+02,-4.894256250000003661e+02,-4.898006250000003661e+02,-4.898006250000003661e+02,-4.897850000000003661e+02,-4.897850000000003661e+02,-4.897693750000003661e+02,-4.897537500000003661e+02,-4.897693750000003661e+02,-4.898006250000003661e+02,-4.898631250000003661e+02,-4.899256250000003661e+02,-4.899725000000003661e+02,-4.900037500000003661e+02,-4.900350000000003661e+02,-4.900662500000003661e+02,-4.900506250000003661e+02,-4.900193750000003661e+02,-4.899725000000003661e+02,-4.899412500000003661e+02,-4.899568750000003661e+02,-4.899412500000003661e+02,-4.899256250000003661e+02,-4.899100000000003661e+02,-4.899256250000003661e+02,-4.899881250000003661e+02,-4.900506250000003661e+02,-4.900818750000003661e+02,-4.900662500000003661e+02,-4.900818750000003661e+02,-4.900818750000003661e+02,-4.900818750000003661e+02,-4.900350000000003661e+02,-4.899412500000003661e+02,-4.898475000000003661e+02,-4.897693750000003661e+02,-4.897068750000003661e+02,-4.896600000000003661e+02,-4.896443750000003661e+02,-4.896287500000003661e+02,-4.896756250000003661e+02,-4.897225000000003661e+02,-4.897693750000003661e+02,-4.898162500000003661e+02,-4.898631250000003661e+02,-4.898943750000003661e+02,-4.899100000000003661e+02,-4.899256250000003661e+02,-4.898943750000003661e+02,-4.898943750000003661e+02,-4.898943750000003661e+02,-4.898943750000003661e+02,-4.898943750000003661e+02,-4.898943750000003661e+02,-4.898943750000003661e+02,-4.898943750000003661e+02,-4.899256250000003661e+02,-4.894881250000003661e+02,-4.890506250000003661e+02,-4.879568750000003661e+02,-4.852693750000003661e+02,-4.824568750000003661e+02,-4.787537500000003661e+02,-4.742381250000003661e+02,-4.668631250000003661e+02,-4.585662500000003661e+02,-4.492850000000003661e+02,-4.398318750000003661e+02,-4.317068750000003661e+02,-4.222693750000003661e+02,-4.114881250000003092e+02,-3.989725000000003092e+02,-3.889881250000003092e+02,-3.799881250000002524e+02,-3.692537500000001955e+02,-3.574100000000001955e+02,-3.431600000000001955e+02,-3.279725000000001955e+02,-3.128631250000001955e+02,-2.988631250000001955e+02,-2.837068750000001955e+02,-2.660506250000001955e+02,-2.487850000000001955e+02,-2.310350000000001955e+02,-2.150975000000001955e+02,-1.989100000000001955e+02,-1.846131250000001387e+02,-1.701287500000001387e+02,-1.553006250000001103e+02,-1.428162500000001103e+02,-1.319100000000001103e+02,-1.228006250000001103e+02,-1.140975000000001103e+02,-1.077693750000001103e+02,-9.995687500000011028e+01,-9.387875000000008185e+01,-8.962875000000008185e+01,-8.423812500000006764e+01,-7.897250000000006764e+01,-7.400375000000006764e+01,-6.764437500000006764e+01,-6.048812500000006764e+01,-5.362875000000006764e+01,-4.381625000000005343e+01,-3.192562500000004633e+01,-1.962875000000003922e+01,-5.597500000000028564e+00,1.046499999999998209e+01,2.693374999999998920e+01,4.437125000000000341e+01,6.238687500000001762e+01,7.843375000000003183e+01,9.443375000000004604e+01,1.088712500000000603e+02,1.222618750000000603e+02,1.354181250000000603e+02,1.466681250000000603e+02,1.572931250000000603e+02,1.653400000000000603e+02,1.723087500000000603e+02,1.774337500000000603e+02,1.823556250000000603e+02,1.846681250000000603e+02,1.834181250000000603e+02,1.799493750000000603e+02,1.720743750000000603e+02,1.637306250000000603e+02,1.540900000000000603e+02,1.411368750000000603e+02,1.253868750000000603e+02,1.077775000000000603e+02,8.877750000000003183e+01,7.115250000000001762e+01,5.612125000000001052e+01,4.059000000000000341e+01,2.802749999999999275e+01,1.952749999999998920e+01,1.508999999999998565e+01,1.690249999999998920e+01,2.327749999999998920e+01,3.165249999999999631e+01,4.287125000000000341e+01,5.734000000000001762e+01,6.966812500000001762e+01,8.340250000000003183e+01,9.601187500000006025e+01,1.067150000000000603e+02,1.168868750000000603e+02,1.264806250000000603e+02,1.331368750000000603e+02,1.391837500000000603e+02,1.463087500000000603e+02,1.493868750000000603e+02,1.512306250000000603e+02,1.487462500000000603e+02,1.425900000000000603e+02,1.339806250000000603e+02,1.244806250000000603e+02,1.119025000000000603e+02,9.705875000000004604e+01,8.293375000000003183e+01,6.969937500000001762e+01,5.988687500000001762e+01,5.421500000000001762e+01,4.919937500000001052e+01,4.619937500000000341e+01,4.577750000000000341e+01,4.896500000000001052e+01,5.387125000000001762e+01,5.769937500000001762e+01,6.177750000000001762e+01,6.274625000000001762e+01,6.551187500000001762e+01,6.652750000000001762e+01,6.469937500000001762e+01,5.957437500000001762e+01,5.196500000000001762e+01,4.543375000000000341e+01,3.773062499999999631e+01,3.296499999999999631e+01,2.710562499999998920e+01,2.433999999999998920e+01,2.699624999999999631e+01,3.298062499999999631e+01,4.387125000000000341e+01,5.619937500000001762e+01,7.065250000000001762e+01,8.441812500000003183e+01,9.977750000000004604e+01,1.128712500000000603e+02,1.214650000000000603e+02,1.269962500000000603e+02,1.274181250000000603e+02,1.246993750000000603e+02,1.186212500000000603e+02,1.099337500000000603e+02,9.848062500000006025e+01,8.527750000000003183e+01,7.219937500000001762e+01,6.044937500000001762e+01,5.062125000000001762e+01,4.121500000000000341e+01,3.296499999999999631e+01,2.576187499999999275e+01,1.827749999999998920e+01,1.229312499999998209e+01,7.043124999999978542e+00,1.230624999999975655e+00,-5.441250000000028564e+00,-1.133187500000003212e+01,-1.580062500000003567e+01,-1.903500000000003567e+01,-2.055062500000003567e+01,-2.087875000000003567e+01,-2.050375000000003567e+01,-1.984750000000003567e+01,-1.658187500000003567e+01,-1.169125000000003212e+01,-5.597500000000027676e+00,9.024999999999756550e-01,8.824374999999980318e+00,1.723062499999998565e+01,2.690249999999998920e+01,3.904312500000000341e+01,4.988687500000001052e+01,6.030875000000001762e+01,6.894937500000001762e+01,7.794937500000001762e+01,8.590250000000003183e+01,9.379312500000004604e+01,1.011056250000000603e+02,1.056056250000000603e+02,1.091368750000000603e+02,1.125743750000000603e+02,1.162150000000000603e+02,1.179962500000000603e+02,1.202150000000000603e+02,1.212462500000000603e+02,1.214337500000000603e+02,1.234025000000000603e+02,1.266681250000000603e+02,1.296368750000000603e+02,1.323868750000000603e+02,1.354337500000000603e+02,1.370743750000000603e+02,1.395743750000000603e+02,1.410587500000000603e+02,1.404025000000000603e+02,1.385118750000000603e+02,1.358400000000000603e+02,1.331368750000000603e+02,1.309337500000000603e+02,1.292462500000000603e+02,1.269025000000000603e+02,1.255743750000000603e+02,1.247150000000000603e+02,1.256525000000000603e+02,1.265743750000000603e+02,1.277618750000000603e+02,1.291681250000000603e+02,1.302462500000000603e+02,1.310900000000000603e+02,1.323243750000000603e+02,1.346993750000000603e+02,1.345587500000000603e+02,1.354337500000000603e+02,1.346681250000000603e+02,1.334337500000000603e+02,1.320587500000000603e+02,1.294962500000000603e+02,1.257775000000000603e+02,1.198243750000000603e+02,1.146056250000000603e+02,1.067306250000000603e+02,9.934000000000006025e+01,8.946500000000003183e+01,7.909000000000001762e+01,6.846500000000001762e+01,5.740250000000001762e+01,4.741812500000000341e+01,3.632437499999999631e+01,2.702749999999998920e+01,1.701187499999998565e+01,9.418124999999980318e+00,2.621249999999976765e+00,-3.081875000000027232e+00,-8.222500000000030340e+00,-1.376937500000003567e+01,-1.842562500000003922e+01,-2.359750000000004277e+01,-2.676937500000004633e+01,-3.066000000000004633e+01,-3.575375000000004633e+01,-3.978500000000004633e+01,-4.464437500000005343e+01,-4.945687500000006764e+01,-5.286312500000006764e+01,-5.680062500000006764e+01,-6.189437500000006764e+01,-6.655062500000006764e+01,-7.039437500000006764e+01,-7.601937500000006764e+01,-8.084750000000006764e+01,-8.541000000000006764e+01,-9.226937500000008185e+01,-9.753500000000011028e+01,-1.032693750000001103e+02,-1.094568750000001103e+02,-1.153006250000001103e+02,-1.208787500000001103e+02,-1.257537500000001103e+02,-1.304725000000001103e+02,-1.338318750000001103e+02,-1.379412500000001103e+02,-1.411600000000001103e+02,-1.436756250000001103e+02,-1.469568750000001103e+02,-1.493475000000001103e+02,-1.530662500000001103e+02,-1.560975000000001103e+02,-1.594412500000001103e+02,-1.628787500000001103e+02,-1.665350000000001103e+02,-1.694412500000001103e+02,-1.712850000000001103e+02,-1.734725000000001103e+02,-1.740506250000001103e+02,-1.756131250000001103e+02,-1.768943750000001103e+02,-1.777068750000001103e+02,-1.779568750000001103e+02,-1.790662500000001103e+02,-1.803318750000001103e+02,-1.813006250000001103e+02,-1.829100000000001103e+02,-1.830037500000001103e+02,-1.818162500000001103e+02,-1.817068750000001103e+02,-1.813787500000001103e+02,-1.815193750000001103e+02,-1.815818750000001103e+02,-1.804568750000001103e+02,-1.793162500000001103e+02,-1.798162500000001103e+02,-1.825193750000001103e+02,-1.840193750000001103e+02,-1.857225000000001387e+02,-1.861600000000001387e+02,-1.871912500000001387e+02,-1.897068750000001387e+02,-1.918318750000001671e+02,-1.923475000000001671e+02,-1.915193750000001387e+02,-1.898006250000001387e+02,-1.891287500000001387e+02,-1.891600000000001387e+02,-1.874256250000001103e+02,-1.855662500000001103e+02,-1.843943750000001103e+02,-1.843475000000001103e+02,-1.834881250000001103e+02,-1.843631250000001103e+02,-1.830975000000001103e+02,-1.820818750000001103e+02,-1.821287500000001103e+02,-1.817850000000001103e+02,-1.806287500000001103e+02,-1.786443750000001103e+02,-1.782537500000001103e+02,-1.771600000000001103e+02,-1.771756250000001103e+02,-1.762068750000001103e+02,-1.764256250000001103e+02,-1.765662500000001103e+02,-1.761287500000001103e+02,-1.767225000000001103e+02,-1.769412500000001103e+02,-1.764412500000001103e+02,-1.769725000000001103e+02,-1.781912500000001103e+02,-1.776600000000001103e+02,-1.768631250000001103e+02,-1.778943750000001103e+02,-1.782537500000001103e+02,-1.777068750000001103e+02,-1.778006250000001103e+02,-1.769256250000001103e+02,-1.755193750000001103e+02,-1.745818750000001103e+02,-1.737537500000001103e+02,-1.718631250000001103e+02,-1.703787500000001103e+02,-1.697850000000001103e+02,-1.697068750000001103e+02,-1.686756250000001103e+02,-1.680818750000001103e+02,-1.682381250000001103e+02,-1.689100000000001103e+02,-1.694725000000001103e+02,-1.691287500000001103e+02,-1.687850000000001103e+02,-1.670350000000001103e+02,-1.665350000000001103e+02,-1.655193750000001103e+02,-1.636600000000001103e+02,-1.615506250000001103e+02,-1.592850000000001103e+02,-1.584412500000001103e+02,-1.568631250000001103e+02,-1.573943750000001103e+02,-1.578475000000001103e+02,-1.588787500000001103e+02,-1.606756250000001103e+02,-1.626131250000001103e+02,-1.654568750000001103e+02,-1.675037500000001103e+02,-1.700350000000001103e+02,-1.714100000000001103e+02,-1.729725000000001103e+02,-1.750350000000001103e+02,-1.758475000000001103e+02,-1.771912500000001103e+02,-1.785037500000001103e+02,-1.799568750000001103e+02,-1.812850000000001103e+02,-1.826912500000001103e+02,-1.839100000000001103e+02,-1.843162500000001103e+02,-1.860818750000001103e+02,-1.868631250000001103e+02,-1.872537500000001103e+02,-1.865975000000001103e+02,-1.864725000000001103e+02,-1.864881250000001103e+02,-1.862850000000001103e+02,-1.874256250000001103e+02,-1.882068750000001103e+02,-1.895193750000001387e+02,-1.906912500000001387e+02,-1.935818750000001671e+02,-1.968943750000001955e+02,-1.991756250000001955e+02,-2.019100000000001955e+02,-2.030506250000001955e+02,-2.036287500000001955e+02,-2.048631250000001955e+02,-2.064725000000001955e+02,-2.070037500000001955e+02,-2.065975000000001955e+02,-2.078318750000001955e+02,-2.081443750000001955e+02,-2.094100000000001955e+02,-2.118006250000001955e+02,-2.137381250000001955e+02,-2.144256250000001955e+02,-2.153787500000001955e+02,-2.168006250000001955e+02,-2.167537500000001955e+02,-2.168787500000001955e+02,-2.159256250000001955e+02,-2.146131250000001955e+02,-2.130975000000001955e+02,-2.137850000000001955e+02,-2.153475000000001955e+02,-2.161131250000001955e+02,-2.189256250000001955e+02,-2.232225000000001955e+02,-2.285975000000001955e+02,-2.343787500000001955e+02,-2.405975000000001955e+02,-2.456287500000001955e+02,-2.506443750000001955e+02,-2.565818750000001955e+02,-2.613631250000001955e+02,-2.650662500000001955e+02,-2.696443750000001955e+02,-2.729100000000001955e+02,-2.754100000000001955e+02,-2.786912500000001955e+02,-2.806287500000001955e+02,-2.823631250000001955e+02,-2.837068750000001955e+02,-2.848162500000001955e+02,-2.843006250000001955e+02,-2.851912500000001955e+02,-2.861912500000001955e+02,-2.853006250000001955e+02,-2.855975000000001955e+02,-2.855662500000001955e+02,-2.854412500000001955e+02,-2.858943750000001955e+02,-2.861756250000001955e+02,-2.852225000000001955e+02,-2.840506250000001955e+02,-2.845350000000001955e+02,-2.843006250000001955e+02,-2.848475000000001955e+02,-2.850506250000001955e+02,-2.843162500000001955e+02,-2.843631250000001955e+02,-2.845818750000001955e+02,-2.848631250000001955e+02,-2.844412500000001955e+02,-2.833631250000001955e+02,-2.805662500000001955e+02,-2.778475000000001955e+02,-2.751443750000001955e+02,-2.707068750000001955e+02,-2.660193750000001955e+02,-2.618006250000001955e+02,-2.560350000000001955e+02,-2.505350000000001955e+02,-2.460975000000001955e+02,-2.416600000000001955e+02,-2.382068750000001955e+02,-2.365662500000001955e+02,-2.339881250000001955e+02,-2.308943750000001955e+02,-2.291756250000001955e+02,-2.268318750000001955e+02,-2.244568750000001955e+02,-2.222225000000001955e+02,-2.189881250000001955e+02,-2.144725000000001955e+02,-2.115975000000001955e+02,-2.085818750000001955e+02,-2.056756250000001955e+02,-2.044725000000001955e+02,-2.026131250000001955e+02,-2.010506250000001955e+02,-1.998787500000001955e+02,-2.005193750000001955e+02,-2.004100000000001955e+02,-1.999568750000001955e+02,-2.006443750000001955e+02,-1.995350000000001955e+02,-1.990037500000001955e+02,-1.983318750000001955e+02,-1.968631250000001955e+02,-1.939725000000001955e+02,-1.924568750000001955e+02,-1.916443750000001671e+02,-1.894725000000001387e+02,-1.881287500000001387e+02,-1.861756250000001103e+02,-1.853318750000001103e+02,-1.852693750000001103e+02,-1.858943750000001103e+02,-1.851131250000001103e+02,-1.851287500000001103e+02,-1.844256250000001103e+02,-1.848162500000001103e+02,-1.864881250000001103e+02,-1.858787500000001103e+02,-1.851131250000001103e+02,-1.835506250000001103e+02,-1.820350000000001103e+02,-1.789100000000001103e+02,-1.773787500000001103e+02,-1.742537500000001103e+02,-1.690662500000001103e+02,-1.647381250000001103e+02,-1.609568750000001103e+02,-1.565193750000001103e+02,-1.522537500000001103e+02,-1.480037500000001103e+02,-1.419568750000001103e+02,-1.357068750000001103e+02,-1.313631250000001103e+02,-1.279100000000001103e+02,-1.230818750000001103e+02,-1.197068750000001103e+02,-1.152537500000001103e+02,-1.111600000000001103e+02,-1.089100000000001103e+02,-1.080662500000001103e+02,-1.055975000000001103e+02,-1.018475000000001103e+02,-9.909750000000011028e+01,-9.534750000000009607e+01,-9.358187500000008185e+01,-9.206625000000008185e+01,-8.836312500000006764e+01,-8.384750000000006764e+01,-8.008187500000006764e+01,-7.666000000000006764e+01,-7.364437500000006764e+01,-7.114437500000006764e+01,-6.725375000000006764e+01,-6.325375000000006764e+01,-6.042562500000006764e+01,-5.742562500000006764e+01,-5.528500000000006764e+01,-5.341000000000006764e+01,-5.037875000000006764e+01,-4.667562500000006054e+01,-4.373812500000005343e+01,-4.095687500000005343e+01,-3.939437500000004633e+01,-3.816000000000004633e+01,-3.584750000000004633e+01,-3.339437500000004633e+01,-3.053500000000004633e+01,-2.875375000000004633e+01,-2.526937500000004277e+01,-2.116000000000003922e+01,-1.439437500000003567e+01,-6.722500000000028564e+00,1.636874999999976321e+00,9.683749999999982094e+00,1.633999999999998565e+01,2.316812499999998920e+01,2.755874999999999631e+01,3.137124999999999631e+01,3.271499999999999631e+01,3.237124999999999631e+01,3.065249999999999631e+01,2.858999999999999631e+01,2.602749999999999631e+01,2.362124999999998920e+01,2.174624999999998920e+01,1.949624999999998565e+01,1.763687499999998565e+01,1.532437499999998565e+01,1.104312499999998209e+01,5.714999999999979430e+00,1.993749999999752109e-01,-6.847500000000028564e+00,-1.489437500000003212e+01,-2.484750000000003922e+01,-3.767562500000004633e+01,-5.120687500000005343e+01,-6.380062500000006764e+01,-7.766000000000008185e+01,-9.361312500000009607e+01,-1.113006250000001103e+02,-1.314412500000001103e+02,-1.534568750000001103e+02,-1.763318750000001387e+02,-2.018787500000001955e+02,-2.316131250000001955e+02,-2.625193750000001955e+02,-2.944568750000001955e+02,-3.267850000000001955e+02,-3.579881250000001955e+02,-3.875193750000003092e+02,-4.140350000000003092e+02,-4.367225000000003092e+02,-4.542068750000003092e+02,-4.679568750000003661e+02,-4.777537500000003661e+02,-4.840818750000003661e+02,-4.878631250000003661e+02,-4.893787500000003661e+02,-4.899568750000003661e+02,-4.899725000000003661e+02,-4.899100000000003661e+02,-4.898475000000003661e+02,-4.898006250000003661e+02,-4.897693750000003661e+02,-4.897537500000003661e+02,-4.897693750000003661e+02,-4.898006250000003661e+02,-4.898631250000003661e+02,-4.899412500000003661e+02,-4.900193750000003661e+02,-4.900975000000003661e+02,-4.901600000000003661e+02,-4.901912500000003661e+02,-4.902068750000003661e+02,-4.902225000000003661e+02,-4.902225000000003661e+02,-4.877381250000003661e+02,-4.827693750000003661e+02,-4.766756250000003661e+02,-4.691443750000003661e+02,-4.591131250000003661e+02,-4.462693750000003661e+02,-4.301600000000003092e+02,-4.122068750000003092e+02,-3.930662500000003092e+02,-3.698631250000002524e+02,-3.384412500000001955e+02,-2.970975000000001955e+02,-2.454100000000001955e+02,-1.837850000000001387e+02,-1.130350000000000819e+02,-3.030062500000004633e+01,5.834000000000001052e+01,1.470900000000000603e+02,2.316837500000000887e+02,3.078243750000001455e+02,3.714181250000002592e+02,4.224025000000002592e+02,4.610431250000002592e+02,4.858868750000002592e+02,5.011993750000002592e+02,5.098712500000002592e+02,5.134181250000002592e+02,5.140587500000002592e+02,5.144025000000002592e+02,5.145900000000002592e+02,5.147150000000002592e+02,5.148087500000002592e+02,5.148712500000002592e+02,5.149181250000002592e+02,5.148556250000002592e+02,5.148087500000002592e+02,5.147462500000002592e+02,5.146993750000002592e+02,5.146681250000002592e+02,5.146368750000002592e+02,5.146056250000002592e+02,5.145587500000002592e+02,5.146056250000002592e+02,5.146368750000002592e+02,5.146525000000002592e+02,5.146681250000002592e+02,5.146681250000002592e+02,5.146837500000002592e+02,5.146993750000002592e+02,5.147462500000002592e+02,5.147306250000002592e+02,5.146993750000002592e+02,5.146837500000002592e+02,5.146681250000002592e+02,5.146837500000002592e+02,5.146681250000002592e+02,5.146368750000002592e+02,5.145743750000002592e+02,5.145118750000002592e+02,5.144650000000002592e+02,5.144181250000002592e+02,5.143712500000002592e+02,5.143243750000002592e+02,5.142931250000002592e+02,5.142775000000002592e+02,5.142775000000002592e+02,5.142931250000002592e+02,5.143087500000002592e+02,5.143087500000002592e+02,5.142931250000002592e+02,5.142306250000002592e+02,5.141525000000002592e+02,5.140587500000002592e+02,5.139493750000002592e+02,5.138243750000002592e+02,5.136056250000002592e+02,5.120900000000002592e+02,5.092150000000002592e+02,5.050587500000002592e+02,4.989493750000002592e+02,4.902306250000002592e+02,4.778400000000002592e+02,4.632462500000002592e+02,4.468868750000002592e+02,4.296056250000002592e+02,4.114337500000002592e+02,3.935587500000002592e+02,3.769962500000002024e+02,3.641525000000001455e+02
-1.904687500000001066e+01,-1.825000000000001066e+01,-2.329687500000001421e+01,-2.040625000000001421e+01,-1.375000000000001066e+01,-9.953125000000007105e+00,9.218750000000000000e-01,1.562500000000004885e+00,-2.812499999999994227e+00,-6.249999999999896749e-01,-2.843749999999987566e+00,4.125000000000008882e+00,1.240625000000000711e+01,1.417187500000000178e+01,1.593749999999999645e+01,1.139062499999999645e+01,6.234374999999996447e+00,3.171874999999998224e+00,6.250000000000003331e-01,9.375000000000005551e-02,7.812500000000005551e-02,6.250000000000004163e-02,2.031250000000001388e-01,2.343750000000001665e-01,2.343750000000001665e-01,2.187500000000001665e-01,3.125000000000003469e-02,-1.562499999999999653e-02,-9.375000000000006939e-02,-1.093750000000000833e-01,4.687500000000002082e-02,3.125000000000001388e-02,6.250000000000002776e-02,1.562500000000000000e-02,-1.718750000000001110e-01,-1.875000000000001388e-01,-1.875000000000001388e-01,-6.250000000000005551e-02,2.187499999999965861e-01,5.468749999999931166e-01,1.328124999999990230e+00,2.046874999999987121e+00,2.640624999999994671e+00,2.640625000000001776e+00,5.468750000000074385e-01,-1.843749999999983569e+00,-4.437499999999985789e+00,-6.171874999999987566e+00,-4.671874999999985789e+00,-2.546874999999995115e+00,1.406249999999998890e-01,2.437499999999994227e+00,2.609374999999987121e+00,2.328124999999990674e+00,1.624999999999993783e+00,8.281249999999968914e-01,4.687500000000002220e-01,2.031250000000001110e-01,-7.812500000000005551e-02,-2.656250000000001665e-01,-3.593750000000002220e-01,-5.000000000000003331e-01,-3.906250000000002220e-01,-2.343750000000001665e-01,-9.375000000000005551e-02,2.656250000000002220e-01,4.218750000000003331e-01,4.843750000000003331e-01,5.312500000000004441e-01,2.343750000000001943e-01,-4.687500000000001388e-02,-2.812500000000002220e-01,-5.781250000000004441e-01,-5.468750000000003331e-01,-3.906250000000003331e-01,-2.031250000000001665e-01,1.250000000000000833e-01,2.812500000000001665e-01,3.593750000000002220e-01,4.375000000000003331e-01,4.218750000000003331e-01,4.531250000000003331e-01,4.375000000000003331e-01,3.125000000000002220e-01,1.874999999999965583e-01,-7.812500000000360822e-02,-3.281250000000037748e-01,-5.468750000000039968e-01,-8.124999999999934497e-01,-8.593749999999935607e-01,-8.281249999999935607e-01,-6.249999999999933387e-01,-2.500000000000037748e-01,9.374999999999647504e-02,4.374999999999967248e-01,6.406249999999968914e-01,7.031250000000005551e-01,6.406250000000004441e-01,4.687500000000003886e-01,2.656250000000002220e-01,4.687500000000004163e-02,-1.406250000000001110e-01,-2.656250000000002220e-01,-3.281250000000002220e-01,-2.968750000000002220e-01,-1.875000000000001110e-01,-4.687500000000002776e-02,6.250000000000005551e-02,1.093750000000000833e-01,1.093750000000000833e-01,6.250000000000005551e-02,6.250000000000004163e-02,6.250000000000004163e-02,1.562500000000001041e-02,-1.562500000000001041e-02,-9.375000000000006939e-02,-1.093750000000000833e-01,-4.687500000000004163e-02,1.562500000000000347e-02,6.250000000000004163e-02,0.000000000000000000e+00,-6.250000000000004163e-02,-1.250000000000000833e-01,-4.687500000000002776e-02,1.562500000000001110e-01,2.812500000000002220e-01,4.062500000000003331e-01,2.812500000000002220e-01,4.687500000000005551e-02,-1.093750000000000694e-01,-2.500000000000001665e-01,-1.562500000000000833e-01,1.562500000000000347e-02,1.250000000000000833e-01,2.031250000000001665e-01,1.562500000000001110e-01,4.687500000000004857e-02,6.938893903907229918e-18,-4.687500000000004163e-02,-6.250000000000005551e-02,6.562500000000003331e-01,1.890625000000000888e+00,5.156250000000000000e+00,9.265624999999998224e+00,1.132812499999999645e+01,1.320312499999999645e+01,9.843750000000000000e+00,6.468750000000004441e+00,6.046875000000010658e+00,1.781250000000014877e+00,3.125000000000988098e-02,-9.109374999999998224e+00,-2.143750000000000711e+01,-2.492187500000001421e+01,-2.403125000000001421e+01,-7.078125000000002665e+00,1.278125000000000711e+01,2.456250000000001421e+01,3.193750000000002132e+01,2.296875000000001421e+01,1.171875000000000888e+01,6.250000000000177636e-02,-1.239062500000000711e+01,-1.390625000000001066e+01,-1.493750000000001066e+01,-6.218750000000003553e+00,5.109375000000002665e+00,9.765625000000005329e+00,1.831250000000001066e+01,1.504687500000001066e+01,8.046875000000007105e+00,3.968750000000005329e+00,-1.012500000000000533e+01,-1.704687500000001066e+01,-1.787500000000001066e+01,-1.839062500000001066e+01,-5.234375000000003553e+00,3.687500000000001776e+00,7.421875000000004441e+00,8.218750000000005329e+00,-3.000000000000002220e+00,-7.703125000000005329e+00,-9.531250000000007105e+00,-3.171875000000001776e+00,1.034375000000000711e+01,1.775000000000001421e+01,2.253125000000001421e+01,1.482812500000001066e+01,4.515625000000003553e+00,-5.453125000000003553e+00,-1.182812500000000888e+01,-7.921875000000007105e+00,-3.406250000000003997e+00,3.093750000000000888e+00,6.171875000000003553e+00,3.140625000000001776e+00,-1.093750000000000444e+00,-5.875000000000003553e+00,-1.167187500000000711e+01,-1.309375000000000711e+01,-1.339062500000000711e+01,-1.409375000000001066e+01,-8.906250000000007105e+00,-5.562500000000003553e+00,-4.218750000000008882e-01,8.593750000000005329e+00,1.295312500000000711e+01,1.417187500000000888e+01,9.890625000000005329e+00,-2.406250000000002220e+00,-1.426562500000000888e+01,-1.912500000000001421e+01,-1.545312500000001066e+01,-4.062500000000001776e+00,9.250000000000007105e+00,1.670312500000001066e+01,1.500000000000001066e+01,8.890625000000007105e+00,-9.375000000000044409e-02,-7.140625000000004441e+00,-8.609375000000005329e+00,-7.468750000000005329e+00,-3.640625000000002665e+00,1.515625000000001110e+00,4.843750000000003553e+00,5.890625000000003553e+00,7.343750000000004441e+00,4.515625000000002665e+00,2.796875000000001332e+00,1.984375000000001110e+00,-2.890625000000001776e+00,-3.234375000000002665e+00,-4.843750000000003553e+00,-6.968750000000004441e+00,-5.843750000000003553e+00,-6.359375000000003553e+00,-5.953125000000003553e+00,-4.296875000000002665e+00,-2.921875000000001776e+00,-1.593750000000001110e+00,-5.468750000000004441e-01,-1.718750000000001110e-01,-1.718750000000001110e-01,-6.250000000000004163e-02,0.000000000000000000e+00,1.093750000000000833e-01,2.187500000000001665e-01,2.343750000000001665e-01,2.031250000000001388e-01,7.812500000000005551e-02,-4.687500000000004163e-02,-1.875000000000001665e-01,-2.187500000000001665e-01,-1.875000000000001388e-01,-1.562500000000001110e-01,1.562500000000000694e-02,4.687500000000002776e-02,6.250000000000004163e-02,9.375000000000006939e-02,-1.562500000000001041e-02,3.125000000000002082e-02,7.812500000000005551e-02,6.250000000000005551e-02,7.812500000000006939e-02,1.562500000000001735e-02,-4.687500000000002776e-02,-1.562500000000001041e-02,3.125000000000002082e-02,-1.562500000000001041e-02,-7.812500000000005551e-02,-2.031250000000001388e-01,-3.125000000000002220e-01,-2.187500000000001110e-01,-6.250000000000004163e-02,1.093750000000000833e-01,2.968750000000002220e-01,3.125000000000002220e-01,2.343750000000001665e-01,1.562500000000001110e-01,1.562500000000001388e-02,-6.250000000000005551e-02,-7.812500000000005551e-02,-9.375000000000008327e-02,-1.093750000000000833e-01,-7.812500000000005551e-02,-6.250000000000005551e-02,-4.687500000000004163e-02,4.687500000000004163e-02,4.687500000000004163e-02,4.687500000000004163e-02,4.687500000000004163e-02,-1.562500000000001041e-02,-1.562500000000001041e-02,-1.562500000000001041e-02,-1.562500000000001041e-02,1.562500000000001041e-02,-4.218750000000003331e-01,-8.593750000000006661e-01,-1.953125000000001332e+00,-4.703125000000002665e+00,-5.765625000000003553e+00,-7.718750000000004441e+00,-7.859375000000004441e+00,-4.359375000000002665e+00,-4.906250000000003553e+00,-2.875000000000002220e+00,-3.015625000000002665e+00,-3.328125000000003109e+00,3.171875000000001332e+00,5.140625000000003553e+00,7.437500000000005329e+00,3.453125000000002665e+00,-7.421875000000003553e+00,-1.184375000000000711e+01,-1.256250000000000711e+01,-6.687500000000004441e+00,1.937500000000000888e+00,4.390625000000001776e+00,7.031249999999993339e-01,-3.703125000000003553e+00,-6.359375000000004441e+00,-4.625000000000003553e+00,1.875000000000001332e+00,4.937500000000003553e+00,5.562500000000003553e+00,4.765625000000003553e+00,2.468750000000002220e+00,2.640625000000002665e+00,6.281250000000005329e+00,6.562500000000005329e+00,6.765625000000003553e+00,8.375000000000003553e+00,2.921875000000001332e+00,2.859375000000001776e+00,2.406250000000000888e+00,-2.656250000000001776e+00,-6.093750000000000000e-01,-1.312500000000000666e+00,-2.531250000000001332e+00,-5.781250000000002220e-01,-1.921875000000001332e+00,-4.593750000000003553e+00,-7.656250000000004441e+00,-9.921875000000005329e+00,-1.265625000000000711e+01,-1.218750000000000711e+01,-6.250000000000005329e+00,-2.718750000000002665e+00,4.093750000000003553e+00,9.015625000000005329e+00,6.468750000000004441e+00,6.718750000000005329e+00,3.968750000000002665e+00,2.265625000000001332e+00,4.296875000000002665e+00,4.546875000000002665e+00,4.046875000000002665e+00,3.250000000000002220e+00,5.031250000000003553e+00,5.656250000000003553e+00,1.129687500000000711e+01,1.498437500000001066e+01,1.142187500000000711e+01,1.239062500000000711e+01,8.703125000000007105e+00,7.046875000000005329e+00,1.256250000000000888e+01,1.089062500000000711e+01,7.703125000000005329e+00,5.937500000000004441e+00,-5.625000000000008882e-01,-3.000000000000001776e+00,-1.531250000000001554e+00,-7.687500000000005329e+00,-1.600000000000000711e+01,-2.325000000000001421e+01,-3.287500000000002132e+01,-3.406250000000002132e+01,-2.343750000000001421e+01,-1.425000000000001066e+01,-1.531250000000001776e+00,1.168750000000000711e+01,1.173437500000000711e+01,1.212500000000000888e+01,1.057812500000000711e+01,1.750000000000001332e+00,-8.593750000000004441e-01,-1.328125000000001110e+00,-3.609375000000002665e+00,1.718750000000000444e+00,7.781250000000004441e+00,1.070312500000000711e+01,1.567187500000001066e+01,1.771875000000001066e+01,1.843750000000001066e+01,1.823437500000001066e+01,1.710937500000001066e+01,9.250000000000005329e+00,-2.843750000000002665e+00,-1.153125000000000888e+01,-2.185937500000001421e+01,-2.104687500000001421e+01,-1.543750000000001066e+01,-1.248437500000000711e+01,-4.671875000000002665e+00,-5.062500000000002665e+00,-3.875000000000002220e+00,-1.906250000000000888e+00,-3.796875000000002220e+00,1.062500000000000444e+00,4.156250000000002665e+00,9.328125000000005329e+00,1.493750000000001066e+01,1.601562500000001066e+01,1.251562500000000711e+01,8.437500000000007105e+00,3.843750000000003553e+00,-3.203125000000001776e+00,-5.750000000000003553e+00,-1.489062500000000888e+01,-2.262500000000001421e+01,-2.584375000000001776e+01,-2.764062500000002132e+01,-2.028125000000001421e+01,-1.154687500000000711e+01,5.000000000000008882e-01,9.609375000000007105e+00,1.631250000000000711e+01,2.090625000000001066e+01,1.768750000000001066e+01,1.728125000000001066e+01,1.592187500000001066e+01,1.457812500000001066e+01,1.778125000000001066e+01,1.546875000000000888e+01,8.421875000000005329e+00,1.187500000000000666e+00,-9.671875000000005329e+00,-1.579687500000001066e+01,-1.384375000000000888e+01,-1.231250000000000711e+01,-5.625000000000004441e+00,1.328125000000000222e+00,3.750000000000001776e+00,8.296875000000003553e+00,7.609375000000003553e+00,2.984375000000001776e+00,-2.281250000000000888e+00,-9.578125000000007105e+00,-1.267187500000000888e+01,-1.156250000000000711e+01,-7.796875000000004441e+00,-3.218750000000002665e+00,-4.062500000000003886e-01,6.875000000000004441e-01,-1.203125000000000888e+00,-2.718750000000001776e+00,-6.125000000000004441e+00,-1.137500000000000711e+01,-1.123437500000000711e+01,-1.107812500000000711e+01,-4.937500000000003553e+00,4.671875000000002665e+00,8.015625000000003553e+00,1.071875000000000711e+01,6.453125000000005329e+00,1.265625000000001332e+00,2.500000000000006661e-01,-7.656250000000001110e-01,1.921875000000001332e+00,4.046875000000002665e+00,4.265625000000002665e+00,5.515625000000003553e+00,6.750000000000005329e+00,5.906250000000003553e+00,3.375000000000001776e+00,-1.562500000000004441e-01,-5.531250000000003553e+00,-8.875000000000005329e+00,-6.390625000000003553e+00,-4.921875000000003553e+00,-1.421875000000000666e+00,5.218750000000003553e+00,5.453125000000003553e+00,8.453125000000005329e+00,1.065625000000000711e+01,5.500000000000003553e+00,4.453125000000002665e+00,1.687500000000001554e+00,-3.296875000000001776e+00,-1.781250000000000888e+00,-3.656250000000002665e+00,-6.625000000000005329e+00,-4.421875000000003553e+00,-5.187500000000003553e+00,-2.812500000000002220e+00,2.953125000000001776e+00,2.390625000000001332e+00,1.484375000000001110e+00,1.093750000000000666e+00,-4.125000000000002665e+00,-2.734375000000001776e+00,1.140625000000001110e+00,9.062500000000011102e-01,5.468750000000003553e+00,5.296875000000003553e+00,3.031250000000001776e+00,3.906250000000002665e+00,3.468750000000002665e+00,3.375000000000002665e+00,5.140625000000003553e+00,6.234375000000004441e+00,4.421875000000003553e+00,5.500000000000004441e+00,3.437500000000003109e+00,1.687500000000001332e+00,3.187500000000002220e+00,1.125000000000000444e+00,-3.281250000000005551e-01,-2.359375000000001776e+00,-7.625000000000005329e+00,-9.296875000000005329e+00,-6.828125000000004441e+00,-6.031250000000003553e+00,7.343750000000004441e-01,2.312500000000000888e+00,-8.281250000000009992e-01,1.765625000000000888e+00,-3.437500000000001776e+00,-2.015625000000000888e+00,2.187500000000001776e+00,-1.218750000000000888e+00,1.812500000000000888e+00,1.046875000000000666e+00,-1.640625000000001110e+00,4.531250000000005551e-01,6.406250000000006661e-01,-7.031250000000006661e-01,-6.093750000000004441e-01,7.343750000000006661e-01,-8.906250000000005551e-01,2.062500000000001776e+00,4.625000000000003553e+00,2.421875000000001776e+00,3.437500000000002665e+00,4.687500000000000000e-02,-3.453125000000002220e+00,-4.421875000000003553e+00,-4.156250000000003553e+00,-2.093750000000001776e+00,-7.500000000000006661e-01,1.921875000000001332e+00,-1.406250000000001110e+00,-2.937500000000002220e+00,-2.859375000000001776e+00,-4.828125000000003553e+00,1.312500000000001332e+00,4.468750000000003553e+00,5.687500000000004441e+00,7.093750000000005329e+00,9.062500000000006661e-01,-4.437500000000002665e+00,-7.593750000000005329e+00,-1.000000000000000711e+01,-6.062500000000004441e+00,-1.546875000000001332e+00,2.328125000000001332e+00,6.671875000000004441e+00,4.859375000000003553e+00,3.921875000000002665e+00,2.187500000000004441e-01,-5.515625000000003553e+00,-4.296875000000003553e+00,-5.250000000000003553e+00,-2.281250000000001776e+00,2.406250000000001776e+00,5.468750000000002220e-01,9.374999999999983347e-02,-1.078125000000000888e+00,-1.015625000000000444e+00,1.546875000000001332e+00,4.531250000000003553e+00,4.218750000000003553e+00,7.968750000000004441e-01,1.171875000000000888e+00,-6.875000000000004441e-01,6.875000000000004441e-01,3.156250000000002220e+00,-1.765625000000001332e+00,-3.453125000000002665e+00,-5.750000000000003553e+00,-7.453125000000004441e+00,-3.234375000000001776e+00,-1.218750000000000444e+00,1.437500000000000888e+00,3.328125000000002220e+00,3.906250000000002220e+00,3.859375000000001776e+00,1.250000000000000888e+00,9.531250000000007772e-01,-1.546875000000000888e+00,-3.062500000000001776e+00,-1.390625000000000888e+00,-2.656250000000001776e+00,-2.187500000000001776e+00,1.093750000000000444e+00,3.593750000000000000e-01,1.843750000000001110e+00,3.875000000000002665e+00,-1.093750000000000000e-01,1.671875000000000666e+00,1.015625000000000000e+00,-1.531250000000001332e+00,1.531250000000000666e+00,-7.500000000000006661e-01,-1.531250000000001332e+00,-3.437500000000003331e-01,-1.062500000000000666e+00,7.812500000000004441e-01,2.250000000000001776e+00,2.765625000000001776e+00,6.718750000000003331e-01,-2.218750000000001776e+00,-3.640625000000002665e+00,-4.671875000000003553e+00,-2.171875000000001332e+00,8.593750000000004441e-01,1.859375000000000888e+00,1.593750000000000888e+00,-4.218750000000003331e-01,-1.906250000000001332e+00,-1.750000000000000888e+00,1.484375000000000888e+00,4.890625000000002665e+00,5.796875000000003553e+00,4.890625000000003553e+00,-1.312500000000001554e+00,-5.375000000000003553e+00,-6.343750000000003553e+00,-5.937500000000003553e+00,6.249999999999977796e-02,2.125000000000001332e+00,2.234375000000001332e+00,1.312500000000000888e+00,-2.421875000000001776e+00,-3.187500000000002220e+00,-1.593750000000001110e+00,1.640625000000000888e+00,6.109375000000003553e+00,1.006250000000000711e+01,8.468750000000005329e+00,6.015625000000005329e+00,-4.218750000000000000e-01,-7.890625000000005329e+00,-7.156250000000005329e+00,-8.125000000000005329e+00,-1.687500000000000000e+00,5.625000000000004441e+00,4.750000000000003553e+00,6.687500000000005329e+00,7.812500000000004441e-01,-5.343750000000003553e+00,-4.953125000000003553e+00,-5.625000000000003553e+00,-1.562500000000000000e-01,4.937500000000003553e+00,4.593750000000002665e+00,3.921875000000002665e+00,-1.796875000000001554e+00,-6.593750000000004441e+00,-6.312500000000004441e+00,-6.625000000000005329e+00,-7.968750000000008882e-01,3.937500000000001776e+00,6.578125000000003553e+00,1.067187500000000711e+01,6.796875000000004441e+00,4.093750000000002665e+00,-1.515625000000000444e+00,-7.765625000000005329e+00,-6.171875000000005329e+00,-5.312500000000003553e+00,-2.343750000000004441e-01,2.906250000000001776e+00,1.578125000000000888e+00,-1.250000000000002220e-01,-3.531250000000002220e+00,-1.812500000000000888e+00,2.968750000000000555e-01,2.671875000000001332e+00,5.750000000000003553e+00,2.953125000000001776e+00,7.656250000000005551e-01,-6.093750000000003331e-01,-4.406250000000003553e+00,-4.296875000000003553e+00,-4.718750000000003553e+00,-5.281250000000003553e+00,-2.359375000000001332e+00,-1.546875000000000666e+00,2.000000000000001332e+00,5.625000000000003553e+00,8.000000000000003553e+00,1.107812500000000533e+01,1.020312500000000533e+01,6.562500000000003553e+00,1.875000000000000000e-01,-3.843750000000002665e+00,-6.562500000000003553e+00,-5.781250000000003553e+00,4.218750000000002220e-01,5.468750000000002220e-01,2.015625000000000888e+00,2.031250000000000888e+00,-4.078125000000002665e+00,-3.125000000000002220e+00,-4.187500000000002665e+00,-4.093750000000002665e+00,-2.812500000000001665e-01,-1.171875000000000666e+00,6.093750000000003331e-01,-1.343750000000000888e+00,-2.671875000000001776e+00,-1.156250000000000888e+00,-2.843750000000002220e+00,1.140625000000000000e+00,3.250000000000001776e+00,1.031250000000000444e+00,1.843750000000000888e+00,-8.281250000000008882e-01,-4.546875000000003553e+00,-1.625000000000000888e+00,-1.484375000000000888e+00,-1.437500000000000666e+00,3.390625000000001776e+00,2.187500000000000888e+00,3.515625000000001776e+00,4.843750000000002665e+00,-2.968750000000000000e-01,-2.640625000000001332e+00,-6.734375000000003553e+00,-7.906250000000003553e+00,-3.859375000000002665e+00,-6.562500000000005551e-01,3.125000000000001776e+00,1.546875000000000888e+00,-3.640625000000001776e+00,-6.578125000000003553e+00,-8.546875000000005329e+00,-5.000000000000002665e+00,3.625000000000002220e+00,8.437500000000005329e+00,9.875000000000005329e+00,9.734375000000005329e+00,2.593750000000001332e+00,-2.484375000000001776e+00,-1.828125000000001110e+00,-5.671875000000003553e+00,-4.578125000000002665e+00,-8.906250000000002220e-01,-4.125000000000002665e+00,4.531250000000004441e-01,3.937500000000002665e+00,9.375000000000006661e-01,5.109375000000003553e+00,1.640625000000001332e+00,-9.375000000000000000e-01,2.890625000000001776e+00,1.562499999999988898e-02,3.781250000000001776e+00,3.984375000000001776e+00,6.249999999999955591e-02,1.296875000000000444e+00,-2.640625000000002220e+00,-4.062500000000003553e+00,-2.218750000000001776e+00,-3.140625000000002220e+00,-3.046875000000001776e+00,-4.375000000000003331e-01,-7.656250000000005551e-01,-7.812500000000000000e-02,5.125000000000003553e+00,4.656250000000003553e+00,4.015625000000002665e+00,3.671875000000002665e+00,-4.015625000000002665e+00,-5.265625000000002665e+00,-2.046875000000000888e+00,-1.156250000000000444e+00,6.265625000000005329e+00,7.031250000000006217e+00,2.515625000000001776e+00,-4.062500000000000000e-01,-6.984375000000005329e+00,-8.984375000000007105e+00,-8.812500000000007105e+00,-5.750000000000004441e+00,-7.187500000000005551e-01,2.906250000000001776e+00,6.593750000000004441e+00,4.703125000000003553e+00,-2.656250000000001110e-01,-5.265625000000004441e+00,-8.218750000000007105e+00,-6.218750000000003553e+00,-1.328125000000000888e+00,4.546875000000003553e+00,5.765625000000003553e+00,4.375000000000003553e+00,3.046875000000002220e+00,9.843750000000005551e-01,1.468750000000000888e+00,8.125000000000004441e-01,-6.250000000000011102e-02,-2.156250000000001332e+00,-2.250000000000001332e+00,1.437500000000001332e+00,1.437500000000001332e+00,2.250000000000001332e+00,6.718750000000004441e-01,-4.156250000000002665e+00,-3.734375000000002665e+00,-1.125000000000000666e+00,-5.781250000000004441e-01,1.250000000000000666e+00,2.046875000000001332e+00,-1.203125000000000888e+00,1.156250000000000666e+00,3.656250000000002665e+00,1.140625000000000666e+00,2.515625000000001332e+00,-8.750000000000013323e-01,-5.000000000000003553e+00,-1.156250000000000888e+00,-8.593750000000007772e-01,1.015625000000000222e+00,3.734375000000001776e+00,2.343749999999997780e-01,1.437500000000000888e+00,2.500000000000001776e+00,2.421875000000001332e+00,2.812500000000001776e+00,-2.906250000000002220e+00,-8.703125000000005329e+00,-1.325000000000000711e+01,-1.314062500000000711e+01,-8.250000000000003553e+00,-1.421875000000000222e+00,5.468750000000005329e+00,8.875000000000007105e+00,1.154687500000000711e+01,1.253125000000001066e+01,1.146875000000000711e+01,9.750000000000007105e+00,5.843750000000003553e+00,-8.125000000000006661e-01,-3.937500000000002665e+00,-5.312500000000003553e+00,-5.281250000000003553e+00,1.093750000000001110e+00,2.718750000000002220e+00,2.578125000000002220e+00,4.265625000000003553e+00,4.218750000000004441e-01,3.187500000000001776e+00,9.203125000000005329e+00,1.062500000000000711e+01,1.329687500000000888e+01,7.687500000000005329e+00,-5.468749999999995559e-01,-3.328125000000001332e+00,-4.046875000000002665e+00,3.687500000000002665e+00,9.953125000000007105e+00,1.176562500000000711e+01,1.353125000000001066e+01,7.921875000000006217e+00,7.421875000000005329e+00,1.028125000000000711e+01,9.515625000000005329e+00,1.373437500000000711e+01,1.060937500000000711e+01,2.000000000000000888e+00,-6.359375000000004441e+00,-1.945312500000001066e+01,-2.718750000000001776e+01,-2.925000000000002132e+01,-2.695312500000001776e+01,-1.939062500000001421e+01,-1.209375000000000888e+01,-6.078125000000003553e+00,-2.296875000000001776e+00,-7.812500000000004441e-01,-1.406250000000000833e-01,-6.250000000000004163e-02,-6.250000000000004163e-02,0.000000000000000000e+00,1.562500000000001041e-02,1.093750000000000833e-01,2.187500000000001665e-01,2.343750000000001665e-01,2.656250000000002220e-01,1.406250000000001110e-01,-3.125000000000000694e-02,-1.406250000000000833e-01,-2.500000000000001665e-01,-1.875000000000001110e-01,-9.375000000000006939e-02,-1.562500000000001388e-02,6.250000000000004163e-02,-6.938893903907228378e-18,-2.484375000000001332e+00,-7.453125000000003553e+00,-1.354687500000000711e+01,-2.095312500000001421e+01,-2.110937500000001421e+01,-1.414062500000000888e+01,-5.937500000000003553e+00,6.046875000000005329e+00,7.281250000000005329e+00,-4.171875000000003553e+00,-1.978125000000001421e+01,-4.931250000000004263e+01,-7.506250000000005684e+01,-8.718750000000005684e+01,-8.818750000000005684e+01,-5.910937500000002842e+01,-1.324999999999999645e+01,3.375000000000003553e+01,7.684375000000005684e+01,9.620312500000005684e+01,9.223437500000005684e+01,7.525000000000002842e+01,4.985937500000002132e+01,2.676562500000001421e+01,1.207812500000000355e+01,3.593750000000002665e+00,4.218750000000002776e-01,1.562500000000001110e-01,1.875000000000001665e-01,3.125000000000002220e-01,3.750000000000002776e-01,3.437500000000002220e-01,2.812500000000001665e-01,1.718750000000001110e-01,-1.562500000000000000e-02,-9.375000000000005551e-02,-1.562500000000001110e-01,-1.093750000000000694e-01,-1.562500000000001041e-02,1.562500000000001041e-02,4.687500000000002776e-02,-3.125000000000002776e-02,-7.812500000000005551e-02,-1.093750000000000833e-01,-1.250000000000000833e-01,-7.812500000000005551e-02,4.687500000000004857e-02,1.562500000000001110e-01,2.031250000000001388e-01,2.187500000000001665e-01,-1.562499999999998612e-02,-1.718750000000001110e-01,-2.187500000000001110e-01,-2.031250000000001110e-01,9.375000000000004163e-02,2.343750000000001665e-01,2.656250000000001665e-01,2.031250000000001110e-01,-4.687500000000002082e-02,-1.250000000000000833e-01,-1.406250000000001110e-01,-9.375000000000006939e-02,1.562500000000001041e-02,-1.562500000000001735e-02,-6.250000000000005551e-02,-1.250000000000001110e-01,-1.406250000000001110e-01,-3.125000000000004163e-02,9.375000000000005551e-02,2.343750000000001665e-01,2.968750000000002220e-01,2.500000000000001665e-01,1.562500000000001110e-01,1.562500000000000694e-02,-1.093750000000000833e-01,-7.812500000000005551e-02,1.312500000000000666e+00,4.125000000000001776e+00,8.281250000000000000e+00,1.401562500000000000e+01,1.710937500000000000e+01,1.837499999999999645e+01,1.659375000000000355e+01,9.453125000000008882e+00,3.234375000000011102e+00,-5.843749999999989342e+00,-1.359375000000000000e+01,-1.509375000000000355e+01,-1.875000000000000711e+01
1.375000000000000711e+01,2.437500000000001421e+01,-1.750000000000000711e+01,-3.037500000000001421e+01,-8.687500000000003553e+00,5.875000000000002665e+00,1.462500000000000711e+01,7.437500000000002665e+00,-5.125000000000002665e+00,-7.687500000000003553e+00,-1.131250000000000533e+01,-7.499999999999928946e-01,1.493750000000002132e+01,1.100000000000000355e+01,2.624999999999986677e+00,3.124999999999930611e-01,-1.250000000000000555e-01,1.250000000000000555e-01,6.250000000000002776e-02,-6.250000000000002776e-02,0.000000000000000000e+00,-6.250000000000002776e-02,0.000000000000000000e+00,1.875000000000000833e-01,1.875000000000000833e-01,0.000000000000000000e+00,0.000000000000000000e+00,1.250000000000000555e-01,-1.875000000000000833e-01,-3.125000000000001110e-01,1.250000000000000833e-01,2.500000000000001110e-01,6.250000000000002776e-02,-6.250000000000002776e-02,-6.250000000000713318e-02,-7.105427357601003436e-15,-1.874999999999858724e-01,-2.499999999999859002e-01,6.249999999999292233e-02,2.499999999999930056e-01,3.124999999999930056e-01,3.124999999999859002e-01,6.250000000000002776e-02,4.375000000000144329e-01,3.125000000000007994e+00,3.812500000000001776e+00,-3.625000000000000888e+00,-8.812500000000003553e+00,-2.625000000000000888e+00,2.937500000000008882e+00,1.937500000000015321e+00,7.500000000000002220e-01,6.874999999999860112e-01,6.249999999999931166e-01,3.125000000000001665e-01,-1.875000000000001110e-01,-6.250000000000005551e-02,3.749999999999930611e-01,1.874999999999858724e-01,-3.124999999999930056e-01,-4.374999999999718003e-01,-6.250000000000002776e-02,2.499999999999787947e-01,-2.499999999999929501e-01,-4.999999999999859557e-01,2.499999999999929501e-01,4.999999999999930611e-01,1.250000000000000555e-01,6.250000000000002776e-02,1.250000000000000555e-01,1.874999999999929501e-01,-6.250000000000717482e-02,-4.999999999999860112e-01,-3.124999999999859002e-01,-6.250000000000714706e-02,-1.250000000000071609e-01,1.250000000000000833e-01,3.125000000000001665e-01,1.250000000000000555e-01,0.000000000000000000e+00,0.000000000000000000e+00,6.250000000000002776e-02,2.500000000000001110e-01,3.749999999999931166e-01,6.249999999999289457e-02,-3.749999999999860112e-01,-1.249999999999929640e-01,2.499999999999787947e-01,-1.250000000000071609e-01,-6.249999999999789058e-01,-5.624999999999789058e-01,-6.250000000000002776e-02,1.874999999999858447e-01,-6.250000000000714706e-02,-6.250000000000001388e-02,3.750000000000001665e-01,5.000000000000002220e-01,1.250000000000000833e-01,-6.250000000000002776e-02,1.250000000000000555e-01,1.250000000000000555e-01,-1.250000000000000555e-01,-1.875000000000000833e-01,-6.250000000000002776e-02,-6.250000000000002776e-02,-1.875000000000000833e-01,-1.250000000000000555e-01,1.875000000000001110e-01,3.125000000000001665e-01,0.000000000000000000e+00,-2.500000000000001110e-01,-6.250000000000002776e-02,1.250000000000000555e-01,1.250000000000000555e-01,1.250000000000000555e-01,-6.250000000000002776e-02,-3.125000000000001665e-01,-1.875000000000001110e-01,1.875000000000001110e-01,3.125000000000001665e-01,6.250000000000002776e-02,-1.875000000000000833e-01,-1.875000000000000833e-01,-6.250000000000002776e-02,-6.250000000000002776e-02,6.250000000000002776e-02,4.375000000000002220e-01,3.750000000000002220e-01,-6.250000000000005551e-02,-3.125000000000002220e-01,-3.125000000000001665e-01,-6.250000000000002776e-02,1.250000000000000555e-01,1.250000000000000555e-01,1.875000000000000833e-01,1.250000000000000555e-01,-1.250000000000000555e-01,-1.875000000000000833e-01,0.000000000000000000e+00,1.875000000000000833e-01,6.250000000000002776e-02,-2.500000000000001110e-01,-1.250000000000000833e-01,2.500000000000001110e-01,2.874999999999993783e+00,7.499999999999988454e+00,9.625000000000003553e+00,6.375000000000017764e+00,-9.999999999999996447e+00,-1.843750000000000711e+01,1.025000000000000355e+01,3.112500000000001421e+01,1.812500000000000000e+00,-3.975000000000002132e+01,-3.825000000000001421e+01,3.187500000000003553e+00,2.537500000000001066e+01,2.000000000000000711e+01,1.437500000000000711e+01,4.375000000000008882e-01,-7.437500000000003553e+00,3.500000000000000444e+00,8.000000000000003553e+00,-7.937500000000001776e+00,-2.337500000000001066e+01,-1.075000000000000711e+01,1.131250000000000355e+01,2.056250000000000711e+01,1.068750000000000355e+01,-1.437500000000000533e+01,-4.687500000000000000e+00,2.412500000000001421e+01,6.000000000000001776e+00,-2.156250000000001421e+01,-1.775000000000001066e+01,-5.687500000000002665e+00,2.562500000000001332e+00,1.812500000000000888e+00,5.437500000000003553e+00,1.543750000000000711e+01,6.937500000000001776e+00,-1.356250000000000711e+01,-2.318750000000001066e+01,-7.062500000000003553e+00,1.481250000000000711e+01,1.525000000000000711e+01,8.562500000000003553e+00,7.500000000000002665e+00,4.062500000000000888e+00,-8.687500000000003553e+00,-1.356250000000000711e+01,-4.875000000000002665e+00,-1.125000000000000444e+00,4.562500000000002665e+00,1.375000000000000711e+01,6.562500000000001776e+00,-1.168750000000000533e+01,-1.306250000000000533e+01,7.000000000000001776e+00,1.206250000000000355e+01,-1.612500000000000711e+01,-2.418750000000001066e+01,8.812500000000003553e+00,1.768750000000000711e+01,-8.375000000000003553e+00,-1.718750000000000711e+01,2.500000000000001776e+00,2.506250000000001066e+01,1.943750000000000711e+01,-9.312500000000005329e+00,-1.625000000000001066e+01,-5.375000000000003553e+00,-1.368750000000000533e+01,-1.531250000000000711e+01,1.493750000000000533e+01,2.918750000000001421e+01,6.125000000000002665e+00,-1.031250000000000533e+01,-6.125000000000002665e+00,-4.375000000000001110e-01,1.687500000000000444e+00,-2.250000000000000888e+00,-9.812500000000005329e+00,-4.875000000000002665e+00,1.306250000000000711e+01,1.518750000000000711e+01,-8.562500000000005329e+00,-1.600000000000000711e+01,1.281250000000000533e+01,1.818750000000000711e+01,-1.293750000000000533e+01,-1.456250000000000533e+01,7.250000000000003553e+00,5.875000000000003553e+00,-5.625000000000001776e+00,-5.812500000000002665e+00,-1.437500000000000888e+00,1.875000000000000833e-01,6.250000000000002776e-02,-2.500000000000001110e-01,-1.875000000000001110e-01,6.250000000000002776e-02,6.250000000000002776e-02,-6.250000000000002776e-02,-1.250000000000000555e-01,0.000000000000000000e+00,1.250000000000000555e-01,1.250000000000000555e-01,1.875000000000000833e-01,1.250000000000000555e-01,-1.875000000000001110e-01,-2.500000000000001110e-01,6.250000000000002776e-02,6.250000000000002776e-02,-1.875000000000000833e-01,-1.250000000000000555e-01,6.250000000000002776e-02,2.500000000000001110e-01,1.875000000000001110e-01,-1.875000000000001110e-01,-2.500000000000001110e-01,-6.250000000000002776e-02,1.875000000000001110e-01,4.375000000000002220e-01,6.250000000000000000e-02,-5.625000000000003331e-01,-3.125000000000002220e-01,3.750000000000002220e-01,4.375000000000002220e-01,0.000000000000000000e+00,-3.750000000000001665e-01,-3.125000000000001110e-01,0.000000000000000000e+00,0.000000000000000000e+00,0.000000000000000000e+00,2.500000000000001110e-01,1.875000000000001110e-01,0.000000000000000000e+00,6.250000000000002776e-02,0.000000000000000000e+00,-1.250000000000000555e-01,-6.250000000000002776e-02,0.000000000000000000e+00,6.250000000000002776e-02,6.250000000000002776e-02,-1.875000000000001110e-01,-1.875000000000001110e-01,1.875000000000001110e-01,1.875000000000001110e-01,-6.250000000000002776e-02,-6.250000000000002776e-02,0.000000000000000000e+00,0.000000000000000000e+00,0.000000000000000000e+00,0.000000000000000000e+00,0.000000000000000000e+00,0.000000000000000000e+00,0.000000000000000000e+00,0.000000000000000000e+00,6.250000000000002776e-02,-1.687500000000000888e+00,-3.687500000000001776e+00,-1.062500000000000444e+00,-4.437500000000001776e+00,-8.687500000000003553e+00,8.750000000000005329e+00,1.643750000000000711e+01,-1.112500000000000533e+01,-2.731250000000001066e+01,1.937500000000003553e+00,3.437500000000001421e+01,1.512500000000000355e+01,-1.800000000000001066e+01,-1.581250000000000888e+01,-1.168750000000000711e+01,-1.031250000000000711e+01,1.487500000000000533e+01,2.631250000000001066e+01,-2.000000000000001776e+00,-2.200000000000000711e+01,-8.750000000000001776e+00,4.750000000000003553e+00,2.000000000000000888e+00,3.250000000000000888e+00,1.218750000000000533e+01,1.687500000000000000e+00,-1.625000000000000711e+01,-3.500000000000000000e+00,1.487500000000000711e+01,5.187500000000001776e+00,-2.875000000000001776e+00,8.125000000000006661e-01,1.875000000000003331e-01,4.187500000000001776e+00,3.125000000000000000e-01,-5.375000000000002665e+00,5.937500000000002665e+00,-6.250000000000000000e-01,-1.387500000000000711e+01,6.562500000000003553e+00,1.600000000000000711e+01,-1.043750000000000533e+01,-1.493750000000000711e+01,7.937500000000002665e+00,5.625000000000001776e+00,-1.312500000000000533e+01,-1.362500000000000533e+01,3.750000000000000000e-01,1.387500000000000533e+01,7.187500000000001776e+00,-6.312500000000003553e+00,2.687500000000001776e+00,7.250000000000003553e+00,-6.187500000000003553e+00,-7.125000000000003553e+00,6.375000000000003553e+00,1.225000000000000533e+01,2.750000000000000888e+00,-1.175000000000000355e+01,-9.000000000000003553e+00,1.093750000000000533e+01,1.318750000000000711e+01,5.000000000000001776e+00,6.500000000000001776e+00,-5.687500000000001776e+00,-1.193750000000000355e+01,6.437500000000002665e+00,1.456250000000000711e+01,1.225000000000000533e+01,2.375000000000000888e+00,-1.962500000000000711e+01,-1.206250000000000533e+01,1.575000000000000888e+01,1.143750000000000533e+01,-2.937500000000001776e+00,-9.437500000000003553e+00,-2.262500000000001066e+01,-1.575000000000000711e+01,7.500000000000001110e-01,-7.062500000000003553e+00,-2.750000000000000888e+00,1.281250000000000533e+01,6.187500000000001776e+00,6.562500000000003553e+00,5.250000000000002665e+00,-1.237500000000000711e+01,-9.375000000000017764e-01,1.443750000000000711e+01,-7.437500000000004441e+00,-1.556250000000000888e+01,4.750000000000001776e+00,1.325000000000000711e+01,9.687500000000003553e+00,1.875000000000000888e+00,-5.437500000000002665e+00,3.625000000000001776e+00,1.475000000000000711e+01,7.687500000000003553e+00,3.875000000000000888e+00,-3.125000000000017764e-01,-2.350000000000001066e+01,-2.425000000000000711e+01,5.812500000000003553e+00,1.837500000000000711e+01,6.250000000000000000e-02,-1.862500000000000711e+01,-6.750000000000003553e+00,1.162500000000000533e+01,8.187500000000003553e+00,-4.250000000000001776e+00,-1.381250000000000533e+01,-4.250000000000001776e+00,1.787500000000000711e+01,1.887500000000000711e+01,2.000000000000000000e+00,-7.312500000000003553e+00,-8.437500000000003553e+00,1.312500000000000888e+00,1.412500000000000711e+01,1.125000000000000000e+00,-1.637500000000000711e+01,-1.481250000000000533e+01,-1.050000000000000355e+01,-5.000000000000003553e+00,1.687500000000000444e+00,-3.124999999999991118e-01,-2.937500000000000888e+00,8.250000000000003553e+00,1.381250000000000533e+01,5.687500000000002665e+00,4.562500000000002665e+00,-7.500000000000000000e-01,-7.437500000000003553e+00,6.937500000000001776e+00,1.918750000000000711e+01,9.437500000000003553e+00,-5.875000000000003553e+00,-1.093750000000000711e+01,-4.562500000000001776e+00,-6.187500000000002665e+00,-1.106250000000000533e+01,7.000000000000003553e+00,1.275000000000000533e+01,-1.193750000000000711e+01,-9.750000000000005329e+00,1.893750000000000711e+01,1.662500000000000711e+01,-1.093750000000000533e+01,-1.475000000000000711e+01,1.312500000000000888e+00,-2.562500000000001776e+00,-1.256250000000000711e+01,3.687500000000000888e+00,1.650000000000000711e+01,-3.250000000000000000e+00,-1.612500000000000711e+01,3.000000000000000000e+00,1.281250000000000533e+01,-1.937500000000000888e+00,-1.275000000000000711e+01,-1.181250000000000711e+01,-2.375000000000001332e+00,4.625000000000002665e+00,5.937500000000003553e+00,1.281250000000000533e+01,8.937500000000003553e+00,-1.112500000000000533e+01,-1.706250000000000711e+01,3.812500000000000000e+00,1.906250000000000711e+01,6.875000000000000000e-01,-1.456250000000000711e+01,3.000000000000000000e+00,1.087500000000000533e+01,-4.062500000000001776e+00,1.750000000000000888e+00,1.375000000000000711e+01,-6.062500000000003553e+00,-1.968750000000001066e+01,-1.687500000000001776e+00,8.875000000000003553e+00,3.125000000000001776e+00,-3.812500000000001776e+00,-5.437500000000002665e+00,7.312500000000002665e+00,1.012500000000000355e+01,-1.312500000000000222e+00,3.125000000000000888e+00,1.562500000000000000e+00,-1.200000000000000533e+01,-1.812500000000000000e+00,1.200000000000000711e+01,2.562500000000000888e+00,-1.181250000000000533e+01,-1.143750000000000533e+01,5.500000000000001776e+00,9.562500000000003553e+00,-4.812500000000002665e+00,1.187500000000000888e+00,1.025000000000000533e+01,-7.125000000000001776e+00,-1.275000000000000533e+01,4.999999999999995559e-01,7.625000000000003553e+00,9.937500000000005329e+00,-1.125000000000000888e+00,-1.087500000000000533e+01,3.125000000000001776e+00,1.087500000000000533e+01,-2.312500000000000000e+00,-6.375000000000001776e+00,3.000000000000001332e+00,7.687500000000003553e+00,4.000000000000001776e+00,-4.562500000000001776e+00,-2.937500000000000888e+00,4.437500000000001776e+00,6.250000000000044409e-02,-1.000000000000000444e+00,5.125000000000001776e+00,6.875000000000004441e-01,-8.625000000000003553e+00,-1.125000000000000355e+01,-3.000000000000001776e+00,9.937500000000003553e+00,6.000000000000002665e+00,-1.312500000000000888e+00,-7.500000000000004441e-01,-7.125000000000003553e+00,-3.125000000000002220e+00,4.562500000000001776e+00,3.062500000000001776e+00,6.062500000000002665e+00,-4.562500000000001776e+00,-1.306250000000000533e+01,8.250000000000005329e+00,1.200000000000000711e+01,-1.056250000000000533e+01,-5.000000000000003553e+00,9.750000000000003553e+00,-3.250000000000001776e+00,-6.875000000000003553e+00,5.625000000000001776e+00,5.937500000000002665e+00,1.437500000000000666e+00,-2.687500000000001776e+00,-3.000000000000001776e+00,2.562500000000000888e+00,-2.125000000000000888e+00,-1.081250000000000533e+01,1.312500000000000000e+00,1.500000000000000711e+01,1.437500000000000888e+00,-1.106250000000000355e+01,-5.125000000000001776e+00,2.625000000000000888e+00,3.125000000000000888e+00,-5.062500000000002665e+00,-2.500000000000008882e-01,1.443750000000000711e+01,6.562500000000004441e+00,-8.937500000000003553e+00,-9.375000000000005329e+00,-4.875000000000002665e+00,-3.750000000000002220e-01,2.687500000000001332e+00,1.375000000000000666e+00,-1.875000000000000555e-01,3.437500000000001776e+00,6.875000000000003553e+00,-1.812500000000001332e+00,-5.562500000000002665e+00,9.375000000000005551e-01,-5.250000000000002665e+00,-7.125000000000003553e+00,5.000000000000001776e+00,9.500000000000003553e+00,5.875000000000002665e+00,-6.312500000000002665e+00,-1.731250000000000711e+01,-2.000000000000000000e+00,1.962500000000001066e+01,1.068750000000000711e+01,-7.187500000000003553e+00,-8.812500000000003553e+00,-7.500000000000003553e+00,2.312500000000001776e+00,1.512500000000000711e+01,7.562500000000002665e+00,-9.125000000000003553e+00,-1.681250000000000711e+01,-4.437500000000001776e+00,1.437500000000000711e+01,5.687500000000003553e+00,-1.218750000000000533e+01,-4.562500000000001776e+00,9.250000000000003553e+00,6.125000000000002665e+00,1.187500000000000222e+00,-2.125000000000000888e+00,-1.025000000000000533e+01,-2.500000000000000000e-01,1.406250000000000711e+01,-2.375000000000000000e+00,-1.493750000000000533e+01,1.125000000000000888e+00,9.625000000000003553e+00,2.250000000000000888e+00,-3.625000000000001332e+00,-1.625000000000000222e+00,3.875000000000001776e+00,-1.750000000000000888e+00,-1.812500000000000444e+00,6.187500000000002665e+00,-4.437500000000001776e+00,-5.937500000000002665e+00,1.062500000000000355e+01,1.375000000000000000e+00,-1.550000000000000711e+01,1.000000000000000000e+00,1.643750000000000711e+01,1.062500000000000000e+00,-7.687500000000004441e+00,-8.125000000000006661e-01,-5.437500000000001776e+00,-5.812500000000002665e+00,8.750000000000003553e+00,8.312500000000003553e+00,-6.750000000000003553e+00,-4.875000000000002665e+00,7.375000000000003553e+00,1.125000000000000888e+00,-1.218750000000000533e+01,-4.375000000000001776e+00,1.512500000000000711e+01,1.493750000000000711e+01,-4.187500000000001776e+00,-1.356250000000000711e+01,-9.437500000000005329e+00,5.625000000000000000e-01,9.312500000000003553e+00,2.250000000000000000e+00,-4.375000000000001776e+00,3.187500000000001332e+00,3.812500000000001776e+00,-6.437500000000002665e+00,-7.875000000000003553e+00,2.312500000000000888e+00,7.125000000000002665e+00,1.625000000000000222e+00,1.500000000000000666e+00,8.750000000000003553e+00,3.375000000000001332e+00,-7.312500000000003553e+00,-9.250000000000003553e+00,-8.000000000000003553e+00,1.937500000000001332e+00,7.687500000000003553e+00,4.125000000000001776e+00,5.250000000000001776e+00,-1.250000000000000444e+00,-5.312500000000001776e+00,7.500000000000003331e-01,-6.250000000000003553e+00,-1.081250000000000533e+01,6.812500000000001776e+00,1.981250000000000711e+01,3.750000000000002665e+00,-1.675000000000000711e+01,-5.812500000000003553e+00,9.000000000000003553e+00,-4.562500000000001776e+00,-1.112500000000000355e+01,4.937500000000002665e+00,1.243750000000000533e+01,6.250000000000000000e-01,-5.437500000000001776e+00,7.687500000000003553e+00,8.937500000000003553e+00,-7.000000000000003553e+00,-1.456250000000000711e+01,-9.187500000000003553e+00,7.875000000000002665e+00,1.631250000000000711e+01,8.750000000000017764e-01,-1.106250000000000355e+01,-2.375000000000000888e+00,1.750000000000001554e+00,-6.375000000000002665e+00,2.812500000000000888e+00,1.425000000000000711e+01,-1.062500000000000000e+00,-8.937500000000005329e+00,2.125000000000000888e+00,1.125000000000000888e+00,-3.312500000000001332e+00,1.562500000000000444e+00,-5.000000000000000000e-01,-9.125000000000003553e+00,-2.750000000000000888e+00,1.268750000000000533e+01,4.000000000000001776e+00,-1.281250000000000533e+01,-3.750000000000000000e-01,1.806250000000000711e+01,1.150000000000000533e+01,-5.000000000000002665e+00,-1.268750000000000711e+01,-9.000000000000003553e+00,5.500000000000002665e+00,7.312500000000003553e+00,-6.875000000000003553e+00,4.375000000000000000e-01,1.062500000000000533e+01,-2.937500000000001776e+00,-8.375000000000003553e+00,-3.062500000000001776e+00,-1.250000000000002220e-01,4.500000000000001776e+00,2.625000000000001332e+00,-5.062500000000001776e+00,-3.250000000000001332e+00,7.312500000000003553e+00,1.437500000000001776e+00,-1.137500000000000533e+01,-2.000000000000001776e+00,6.687500000000002665e+00,5.125000000000001776e+00,5.937500000000002665e+00,-6.437500000000001776e+00,-1.268750000000000533e+01,5.687500000000001776e+00,7.125000000000002665e+00,-5.937500000000002665e+00,-1.000000000000000444e+00,3.750000000000001776e+00,1.250000000000001110e-01,-1.437500000000000666e+00,3.250000000000001332e+00,1.006250000000000355e+01,-2.812500000000001776e+00,-2.131250000000001066e+01,-8.937500000000005329e+00,1.631250000000000711e+01,1.256250000000000711e+01,-7.812500000000003553e+00,-4.062500000000001776e+00,5.937500000000002665e+00,-8.062500000000003553e+00,-1.462500000000000533e+01,7.500000000000008882e-01,1.150000000000000533e+01,1.487500000000000711e+01,5.812500000000002665e+00,-1.318750000000000711e+01,-5.937500000000003553e+00,8.062500000000003553e+00,-3.562500000000001776e+00,-3.000000000000001776e+00,5.187500000000002665e+00,-5.812500000000002665e+00,-4.125000000000002665e+00,3.875000000000000888e+00,2.000000000000000888e+00,6.812500000000003553e+00,1.375000000000000888e+00,-8.500000000000003553e+00,-2.437500000000000888e+00,3.875000000000001776e+00,4.187500000000001776e+00,6.250000000000004441e-01,1.937500000000001332e+00,1.500000000000000888e+00,-9.375000000000003553e+00,-8.125000000000000000e-01,1.181250000000000533e+01,-6.937500000000003553e+00,-1.350000000000000533e+01,9.750000000000005329e+00,9.812500000000003553e+00,-8.187500000000003553e+00,-8.312500000000003553e+00,1.062500000000000000e+00,1.350000000000000711e+01,1.250000000000000711e+01,-9.375000000000003553e+00,-1.475000000000000711e+01,-4.000000000000001776e+00,2.625000000000001332e+00,1.050000000000000533e+01,5.875000000000002665e+00,-2.187500000000000888e+00,2.625000000000001332e+00,-3.812500000000002220e+00,-1.337500000000000711e+01,4.375000000000000000e-01,1.000000000000000533e+01,-8.562500000000003553e+00,-1.206250000000000533e+01,1.381250000000000711e+01,1.612500000000000711e+01,-4.687500000000001776e+00,-7.125000000000002665e+00,-3.937500000000002220e+00,-1.118750000000000533e+01,-3.875000000000001776e+00,1.400000000000000533e+01,1.118750000000000355e+01,-1.375000000000000444e+00,-6.375000000000002665e+00,-8.437500000000003553e+00,8.750000000000008882e-01,1.468750000000000711e+01,6.062500000000001776e+00,-1.268750000000000533e+01,-9.312500000000003553e+00,1.000000000000000222e+00,3.500000000000000888e+00,1.318750000000000711e+01,7.750000000000003553e+00,-1.693750000000000711e+01,-1.506250000000000711e+01,6.312500000000003553e+00,1.175000000000000533e+01,6.000000000000002665e+00,-6.062500000000002665e+00,-1.181250000000000533e+01,3.937500000000001776e+00,7.937500000000003553e+00,-3.125000000000000888e+00,4.000000000000002665e+00,6.000000000000003553e+00,-7.750000000000003553e+00,-1.037500000000000533e+01,-2.875000000000001776e+00,1.056250000000000355e+01,1.406250000000000533e+01,-5.500000000000001776e+00,-1.543750000000000711e+01,-1.812500000000000888e+00,1.156250000000000533e+01,9.312500000000003553e+00,-1.250000000000000888e+00,-4.937500000000002665e+00,-7.000000000000002665e+00,-1.212500000000000533e+01,-6.937500000000003553e+00,7.875000000000003553e+00,1.018750000000000355e+01,-8.750000000000008882e-01,-2.875000000000001332e+00,4.000000000000001776e+00,7.000000000000003553e+00,5.375000000000002665e+00,1.625000000000000888e+00,2.500000000000004996e-01,-1.312500000000000444e+00,-9.375000000000003553e+00,-6.250000000000003553e+00,7.250000000000003553e+00,3.625000000000002665e+00,-3.750000000000000000e-01,5.500000000000002665e+00,-3.750000000000000000e-01,-6.562500000000002665e+00,-5.562500000000001776e+00,2.062500000000000444e+00,2.043750000000000711e+01,1.825000000000000711e+01,-9.687500000000005329e+00,-2.212500000000001066e+01,-8.062500000000003553e+00,8.062500000000003553e+00,1.200000000000000711e+01,1.212500000000000533e+01,2.500000000000000000e+00,-1.187500000000000711e+01,-2.500000000000000000e-01,1.168750000000000711e+01,1.875000000000017764e-01,-3.750000000000000000e-01,8.437500000000001776e+00,7.875000000000003553e+00,1.687500000000002442e+00,-9.187500000000005329e+00,-1.543750000000000711e+01,-1.268750000000000533e+01,-7.750000000000002665e+00,-3.062500000000000888e+00,-3.125000000000001665e-01,2.500000000000001110e-01,0.000000000000000000e+00,-2.500000000000001110e-01,-6.250000000000002776e-02,1.250000000000000555e-01,6.250000000000002776e-02,-6.250000000000002776e-02,-1.250000000000000555e-01,0.000000000000000000e+00,1.250000000000000555e-01,1.250000000000000555e-01,1.250000000000000555e-01,6.250000000000002776e-02,6.250000000000002776e-02,0.000000000000000000e+00,-3.125000000000001110e-01,-3.125000000000001110e-01,1.250000000000000833e-01,3.125000000000001665e-01,0.000000000000000000e+00,-1.875000000000000833e-01,6.250000000000002776e-02,6.250000000000002776e-02,-1.875000000000000833e-01,-6.250000000000002776e-02,-9.687500000000003553e+00,-2.950000000000001066e+01,-1.456250000000000533e+01,3.450000000000001421e+01,3.262500000000001421e+01,-1.737500000000000711e+01,-2.793750000000001066e+01,4.750000000000001776e+00,1.306250000000000533e+01,-3.993750000000001421e+01,-7.968750000000002842e+01,-3.100000000000001421e+01,1.925000000000000355e+01,1.325000000000000178e+01,2.406250000000001421e+01,5.156250000000003553e+01,4.093750000000002132e+01,1.318749999999999112e+01,1.937499999999993783e+00,6.875000000000003331e-01,6.250000000000005551e-02,-3.750000000000001665e-01,-2.500000000000001110e-01,1.250000000000000833e-01,2.500000000000001110e-01,1.875000000000000833e-01,0.000000000000000000e+00,-6.250000000000002776e-02,1.875000000000001110e-01,2.500000000000001110e-01,0.000000000000000000e+00,-1.250000000000000555e-01,-2.500000000000001110e-01,-2.500000000000001110e-01,1.875000000000000833e-01,4.375000000000002220e-01,-6.250000000000000000e-02,-4.375000000000002220e-01,6.250000000000000000e-02,3.125000000000001110e-01,-1.875000000000000833e-01,-2.500000000000001110e-01,1.250000000000000555e-01,0.000000000000000000e+00,-6.250000000000002776e-02,3.750000000000002220e-01,3.750000000000002220e-01,-1.875000000000000833e-01,-6.250000000000003331e-01,-3.750000000000002220e-01,3.125000000000001110e-01,4.375000000000001665e-01,1.875000000000000833e-01,6.250000000000002776e-02,-1.250000000000000555e-01,-2.500000000000001110e-01,-1.875000000000000833e-01,6.250000000000002776e-02,2.500000000000001110e-01,6.250000000000002776e-02,-1.250000000000000555e-01,-6.250000000000002776e-02,-6.250000000000002776e-02,-1.875000000000000833e-01,-6.250000000000002776e-02,3.125000000000001110e-01,3.125000000000001110e-01,-6.250000000000002776e-02,-1.250000000000000555e-01,1.250000000000000555e-01,1.250000000000000555e-01,-1.875000000000001110e-01,-3.125000000000001665e-01,0.000000000000000000e+00,2.500000000000001110e-01,3.750000000000001665e-01,5.749999999999994671e+00,1.562499999999999112e+01,9.750000000000003553e+00,-8.499999999999989342e+00,-5.749999999999994671e+00,1.225000000000000711e+01,7.625000000000003553e+00,-2.306250000000001066e+01,-2.781250000000001421e+01
1.900000000000000355e+01,3.025000000000000711e+01,-2.425000000000000711e+01,-2.250000000000000355e+01,2.550000000000000355e+01,-2.175000000000000355e+01,1.350000000000000355e+01,2.050000000000000355e+01,-4.300000000000001421e+01,4.650000000000001421e+01,-4.400000000000000711e+01,1.775000000000000000e+01,4.750000000000001776e+00,1.000000000000014433e+00,2.499999999999858447e-01,2.499999999999858447e-01,-7.499999999999718003e-01,7.499999999999860112e-01,-2.500000000000000555e-01,-2.500000000000000555e-01,5.000000000000001110e-01,-5.000000000000001110e-01,2.500000000000000555e-01,0.000000000000000000e+00,0.000000000000000000e+00,2.500000000000000555e-01,-5.000000000000001110e-01,5.000000000000001110e-01,-1.421085471520200372e-14,-7.499999999999718003e-01,7.499999999999860112e-01,-2.500000000000000555e-01,0.000000000000000000e+00,2.499999999999858447e-01,-4.999999999999716893e-01,4.999999999999716893e-01,-2.499999999999858447e-01,-2.499999999999858447e-01,2.499999999999858447e-01,0.000000000000000000e+00,0.000000000000000000e+00,2.499999999999858447e-01,1.421085471520200372e-14,-2.500000000000000555e-01,2.500000000000000555e-01,2.000000000000000444e+00,4.000000000000001776e+00,-1.350000000000000355e+01,7.250000000000001776e+00,-1.250000000000000222e+00,1.000000000000000222e+00,-2.499999999999858447e-01,4.999999999999859002e-01,-2.500000000000000555e-01,7.499999999999860112e-01,-7.499999999999718003e-01,2.499999999999858447e-01,0.000000000000000000e+00,4.999999999999859002e-01,-7.499999999999860112e-01,5.000000000000001110e-01,-7.499999999999860112e-01,7.499999999999718003e-01,1.421085471520200372e-14,-9.999999999999860112e-01,7.499999999999859002e-01,2.500000000000000555e-01,-5.000000000000001110e-01,5.000000000000001110e-01,-2.500000000000000555e-01,0.000000000000000000e+00,4.999999999999859002e-01,-7.499999999999860112e-01,1.421085471520200372e-14,4.999999999999716893e-01,-7.499999999999718003e-01,4.999999999999859002e-01,0.000000000000000000e+00,0.000000000000000000e+00,0.000000000000000000e+00,0.000000000000000000e+00,0.000000000000000000e+00,0.000000000000000000e+00,2.500000000000000555e-01,-1.421085471520200372e-14,1.421085471520200372e-14,-7.499999999999860112e-01,1.249999999999971800e+00,-9.999999999999860112e-01,5.000000000000001110e-01,-7.500000000000002220e-01,2.500000000000142664e-01,2.499999999999858447e-01,-2.500000000000000555e-01,0.000000000000000000e+00,0.000000000000000000e+00,5.000000000000001110e-01,-2.500000000000000555e-01,0.000000000000000000e+00,0.000000000000000000e+00,2.500000000000000555e-01,-2.500000000000000555e-01,0.000000000000000000e+00,0.000000000000000000e+00,0.000000000000000000e+00,0.000000000000000000e+00,-2.500000000000000555e-01,2.500000000000000555e-01,0.000000000000000000e+00,2.500000000000000555e-01,-5.000000000000001110e-01,2.500000000000000555e-01,0.000000000000000000e+00,0.000000000000000000e+00,0.000000000000000000e+00,2.500000000000000555e-01,-5.000000000000001110e-01,2.500000000000000555e-01,-2.500000000000000555e-01,5.000000000000001110e-01,-2.500000000000000555e-01,0.000000000000000000e+00,0.000000000000000000e+00,-2.500000000000000555e-01,5.000000000000001110e-01,-7.500000000000002220e-01,7.500000000000002220e-01,0.000000000000000000e+00,-2.500000000000000555e-01,2.500000000000000555e-01,-5.000000000000001110e-01,2.500000000000000555e-01,0.000000000000000000e+00,0.000000000000000000e+00,0.000000000000000000e+00,2.500000000000000555e-01,-2.500000000000000555e-01,0.000000000000000000e+00,0.000000000000000000e+00,0.000000000000000000e+00,2.500000000000000555e-01,-2.500000000000000555e-01,-2.500000000000000555e-01,5.000000000000001110e-01,-2.500000000000000555e-01,2.499999999999858447e-01,1.025000000000001599e+01,-1.200000000000000178e+01,2.425000000000000355e+01,-4.075000000000000711e+01,1.525000000000000355e+01,2.475000000000000355e+01,-1.075000000000000178e+01,-1.250000000000000000e+00,-3.750000000000000711e+01,1.675000000000000711e+01,2.075000000000000355e+01,-1.950000000000000355e+01,2.550000000000000711e+01,-4.750000000000001776e+00,-1.925000000000000355e+01,2.475000000000000711e+01,-1.975000000000000355e+01,2.625000000000000355e+01,-3.425000000000000711e+01,2.000000000000000000e+00,1.875000000000000355e+01,-1.925000000000000355e+01,3.600000000000000711e+01,-2.325000000000000711e+01,-2.200000000000000355e+01,4.525000000000001421e+01,-1.075000000000000355e+01,-2.075000000000000355e+01,1.250000000000000355e+01,-1.400000000000000355e+01,3.750000000000001332e+00,1.700000000000000355e+01,-3.675000000000000711e+01,5.125000000000001421e+01,-3.450000000000000711e+01,2.225000000000000355e+01,-2.250000000000000711e+01,-1.100000000000000178e+01,3.175000000000000711e+01,-2.150000000000000711e+01,2.125000000000000711e+01,-1.100000000000000355e+01,5.000000000000000888e+00,1.250000000000000178e+01,-4.100000000000000711e+01,4.525000000000001421e+01,-4.425000000000001421e+01,3.750000000000000711e+01,-2.900000000000000711e+01,4.100000000000000711e+01,-4.075000000000000711e+01,2.175000000000000355e+01,-2.425000000000000711e+01,3.625000000000000711e+01,-1.775000000000000355e+01,-2.300000000000000355e+01,1.325000000000000355e+01,2.300000000000000355e+01,-2.650000000000000711e+01,8.750000000000001776e+00,-1.475000000000000355e+01,2.075000000000000711e+01,7.000000000000001776e+00,-2.000000000000000000e+00,-2.450000000000000711e+01,2.400000000000000711e+01,-1.300000000000000178e+01,-1.350000000000000355e+01,5.750000000000001776e+00,2.475000000000000711e+01,-6.750000000000001776e+00,-1.425000000000000355e+01,1.725000000000000355e+01,-2.250000000000000711e+01,2.575000000000000711e+01,-2.450000000000000711e+01,2.300000000000000711e+01,-3.450000000000000711e+01,3.300000000000000711e+01,-1.200000000000000355e+01,1.725000000000000355e+01,-3.375000000000000711e+01,1.225000000000000355e+01,3.250000000000000711e+01,-3.450000000000000711e+01,5.000000000000008882e-01,1.100000000000000178e+01,2.500000000000000000e-01,-5.500000000000000888e+00,-5.000000000000001110e-01,5.000000000000001110e-01,-5.000000000000001110e-01,7.500000000000002220e-01,-7.500000000000002220e-01,2.500000000000000555e-01,0.000000000000000000e+00,0.000000000000000000e+00,0.000000000000000000e+00,0.000000000000000000e+00,-2.500000000000000555e-01,5.000000000000001110e-01,-5.000000000000001110e-01,5.000000000000001110e-01,-2.500000000000000555e-01,2.500000000000000555e-01,-5.000000000000001110e-01,2.500000000000000555e-01,2.500000000000000555e-01,-5.000000000000001110e-01,2.500000000000000555e-01,0.000000000000000000e+00,-2.500000000000000555e-01,7.500000000000002220e-01,-7.500000000000002220e-01,2.500000000000000555e-01,0.000000000000000000e+00,-2.500000000000000555e-01,5.000000000000001110e-01,0.000000000000000000e+00,-2.500000000000000555e-01,-5.000000000000001110e-01,7.500000000000002220e-01,-2.500000000000000555e-01,2.500000000000000555e-01,-2.500000000000000555e-01,-2.500000000000000555e-01,2.500000000000000555e-01,0.000000000000000000e+00,-2.500000000000000555e-01,2.500000000000000555e-01,2.500000000000000555e-01,-5.000000000000001110e-01,5.000000000000001110e-01,-2.500000000000000555e-01,0.000000000000000000e+00,0.000000000000000000e+00,0.000000000000000000e+00,0.000000000000000000e+00,0.000000000000000000e+00,2.500000000000000555e-01,-7.500000000000002220e-01,7.500000000000002220e-01,-2.500000000000000555e-01,0.000000000000000000e+00,0.000000000000000000e+00,0.000000000000000000e+00,0.000000000000000000e+00,0.000000000000000000e+00,0.000000000000000000e+00,0.000000000000000000e+00,0.000000000000000000e+00,0.000000000000000000e+00,0.000000000000000000e+00,0.000000000000000000e+00,0.000000000000000000e+00,2.500000000000000555e-01,-7.750000000000001776e+00,1.475000000000000355e+01,-1.775000000000000355e+01,-4.500000000000001776e+00,3.850000000000000711e+01,-3.575000000000000711e+01,1.350000000000000355e+01,-3.350000000000000711e+01,4.825000000000001421e+01,-2.500000000000000000e+00,-2.150000000000000711e+01,2.000000000000000000e+00,1.075000000000000355e+01,-2.975000000000000711e+01,2.125000000000000711e+01,7.250000000000001776e+00,1.125000000000000355e+01,-3.850000000000000711e+01,2.825000000000000355e+01,-2.225000000000000355e+01,2.725000000000000711e+01,-3.100000000000000711e+01,2.925000000000000711e+01,-4.750000000000000888e+00,-1.100000000000000355e+01,-6.750000000000001776e+00,1.775000000000000355e+01,4.250000000000000888e+00,-2.600000000000000711e+01,3.500000000000000711e+01,-3.025000000000000711e+01,1.400000000000000355e+01,1.225000000000000355e+01,-3.025000000000000711e+01,2.300000000000000355e+01,5.000000000000000888e+00,-2.550000000000000711e+01,7.750000000000001776e+00,2.350000000000000711e+01,-1.725000000000000355e+01,-1.350000000000000355e+01,1.400000000000000355e+01,1.075000000000000178e+01,-2.400000000000000711e+01,1.150000000000000355e+01,-1.150000000000000355e+01,7.750000000000001776e+00,1.750000000000000355e+01,-2.650000000000000711e+01,1.025000000000000355e+01,1.500000000000000355e+01,-2.225000000000000711e+01,1.350000000000000355e+01,-1.550000000000000355e+01,2.650000000000000711e+01,-1.925000000000000711e+01,1.550000000000000355e+01,-2.600000000000000711e+01,1.450000000000000355e+01,1.925000000000000355e+01,-3.175000000000000711e+01,3.225000000000000711e+01,-1.000000000000000178e+01,-1.975000000000000711e+01,1.900000000000000355e+01,2.500000000000000888e+00,-9.250000000000001776e+00,2.400000000000000355e+01,-2.050000000000000355e+01,-1.800000000000000355e+01,2.975000000000000711e+01,-1.250000000000000000e+00,-1.800000000000000355e+01,2.425000000000000355e+01,-2.550000000000000711e+01,-8.000000000000001776e+00,1.550000000000000355e+01,7.500000000000002220e-01,-3.550000000000000711e+01,5.525000000000001421e+01,-3.750000000000000711e+01,1.100000000000000355e+01,2.025000000000000355e+01,-2.600000000000000711e+01,-3.000000000000001776e+00,2.650000000000000711e+01,-8.000000000000003553e+00,-3.125000000000000711e+01,4.025000000000001421e+01,-3.025000000000000711e+01,3.150000000000000711e+01,-2.125000000000000711e+01,1.550000000000000355e+01,-2.275000000000000711e+01,2.975000000000000711e+01,-8.750000000000001776e+00,-9.000000000000001776e+00,2.300000000000000355e+01,-1.725000000000000355e+01,-2.550000000000000355e+01,2.850000000000000711e+01,-1.200000000000000355e+01,1.950000000000000355e+01,-2.100000000000000711e+01,-1.325000000000000178e+01,3.850000000000000711e+01,-3.700000000000000711e+01,3.750000000000000711e+01,-3.600000000000000711e+01,1.150000000000000355e+01,1.750000000000000000e+00,1.350000000000000355e+01,-3.000000000000000000e+00,-1.200000000000000355e+01,1.825000000000000355e+01,-3.175000000000000711e+01,3.475000000000000711e+01,-4.250000000000000000e+00,-2.625000000000000711e+01,2.775000000000000711e+01,-3.675000000000000711e+01,3.050000000000000711e+01,-2.825000000000000711e+01,2.925000000000000711e+01,-2.600000000000000711e+01,9.750000000000001776e+00,1.650000000000000355e+01,-1.675000000000000355e+01,1.025000000000000178e+01,6.500000000000001776e+00,-1.875000000000000355e+01,8.750000000000001776e+00,1.150000000000000178e+01,-2.250000000000000000e+00,5.000000000000000000e-01,-5.500000000000000888e+00,-7.000000000000001776e+00,1.750000000000000355e+01,-2.475000000000000711e+01,2.750000000000000000e+00,3.025000000000000711e+01,-2.800000000000000711e+01,-4.750000000000000000e+00,1.550000000000000355e+01,9.250000000000003553e+00,-7.250000000000001776e+00,-1.725000000000000355e+01,1.625000000000000355e+01,-7.500000000000000000e-01,-1.300000000000000355e+01,-1.500000000000000000e+00,2.050000000000000355e+01,-5.500000000000000888e+00,-1.600000000000000355e+01,3.500000000000000000e+00,1.900000000000000711e+01,-1.550000000000000355e+01,1.250000000000000444e+00,7.500000000000000000e-01,-1.850000000000000355e+01,3.275000000000000711e+01,-3.375000000000000711e+01,3.025000000000000711e+01,-7.250000000000001776e+00,1.000000000000000444e+00,-1.200000000000000355e+01,-3.750000000000001776e+00,2.200000000000000711e+01,-3.250000000000000000e+00,-1.575000000000000355e+01,1.000000000000000000e+00,2.325000000000000711e+01,-2.075000000000000711e+01,-1.250000000000000000e+00,1.925000000000000355e+01,-2.750000000000000000e+00,-2.375000000000000711e+01,1.150000000000000355e+01,9.500000000000003553e+00,-1.600000000000000355e+01,2.025000000000000355e+01,-2.200000000000000355e+01,5.750000000000000888e+00,2.225000000000000355e+01,-2.650000000000000711e+01,1.200000000000000178e+01,1.100000000000000355e+01,-1.975000000000000711e+01,-2.250000000000000000e+00,2.350000000000000711e+01,-1.975000000000000355e+01,1.475000000000000355e+01,-2.200000000000000711e+01,7.750000000000002665e+00,1.600000000000000355e+01,-1.525000000000000355e+01,-5.750000000000000888e+00,2.350000000000000711e+01,-9.750000000000003553e+00,-2.275000000000000355e+01,3.275000000000000711e+01,-3.000000000000000711e+01,2.625000000000000711e+01,-2.750000000000000000e+00,-1.950000000000000711e+01,1.500000000000000355e+01,-1.750000000000000666e+00,1.025000000000000178e+01,-2.750000000000000711e+01,3.125000000000000711e+01,-2.475000000000000711e+01,2.325000000000000711e+01,-1.125000000000000355e+01,-1.075000000000000178e+01,2.400000000000000711e+01,-2.150000000000000355e+01,1.400000000000000355e+01,-1.200000000000000355e+01,2.200000000000000355e+01,-3.000000000000000711e+01,2.475000000000000711e+01,-2.950000000000000711e+01,2.250000000000000711e+01,6.000000000000001776e+00,-2.600000000000000711e+01,3.150000000000000711e+01,-2.175000000000000355e+01,-7.000000000000000888e+00,3.000000000000000711e+01,-3.500000000000000711e+01,2.800000000000000711e+01,-2.750000000000000000e+00,-2.275000000000000711e+01,1.225000000000000355e+01,1.825000000000000355e+01,-1.975000000000000355e+01,-8.750000000000000000e+00,2.600000000000000711e+01,-1.075000000000000355e+01,-1.925000000000000355e+01,3.325000000000000711e+01,-2.800000000000000711e+01,2.275000000000000711e+01,-1.300000000000000355e+01,0.000000000000000000e+00,4.250000000000000888e+00,2.500000000000000000e-01,-3.250000000000000888e+00,-1.400000000000000355e+01,2.700000000000000711e+01,-6.000000000000001776e+00,-1.875000000000000355e+01,2.275000000000000355e+01,-2.575000000000000711e+01,2.700000000000000711e+01,-1.525000000000000355e+01,-8.250000000000001776e+00,2.200000000000000355e+01,-5.500000000000000888e+00,-4.000000000000000000e+00,-4.500000000000000888e+00,6.250000000000001776e+00,-1.400000000000000355e+01,2.100000000000000355e+01,-2.200000000000000355e+01,2.250000000000000355e+01,-2.250000000000000355e+01,2.125000000000000355e+01,-4.250000000000000888e+00,-1.550000000000000355e+01,1.775000000000000355e+01,-4.500000000000000888e+00,-1.850000000000000355e+01,2.450000000000000711e+01,-1.525000000000000355e+01,1.250000000000000355e+01,0.000000000000000000e+00,-1.500000000000000355e+01,0.000000000000000000e+00,8.250000000000001776e+00,1.900000000000000355e+01,-3.200000000000000711e+01,2.375000000000000711e+01,-1.600000000000000355e+01,-4.750000000000000888e+00,2.200000000000000355e+01,-1.000000000000000178e+01,3.500000000000000444e+00,-7.000000000000001776e+00,-1.150000000000000355e+01,1.675000000000000355e+01,8.750000000000003553e+00,-2.500000000000000711e+01,1.475000000000000355e+01,-9.500000000000001776e+00,2.250000000000000711e+01,-3.000000000000000711e+01,3.275000000000000711e+01,-2.675000000000000711e+01,-5.000000000000000000e-01,2.050000000000000355e+01,-5.750000000000000888e+00,-1.500000000000000355e+01,3.500000000000000000e+00,1.875000000000000711e+01,-2.575000000000000711e+01,3.000000000000000711e+01,-3.500000000000000711e+01,2.975000000000000711e+01,-9.750000000000001776e+00,-1.400000000000000355e+01,2.350000000000000711e+01,-8.000000000000000000e+00,-1.850000000000000355e+01,2.425000000000000711e+01,-1.250000000000000000e+00,-1.600000000000000355e+01,-1.500000000000000000e+00,2.075000000000000355e+01,-4.750000000000000000e+00,-1.775000000000000355e+01,2.225000000000000355e+01,-1.500000000000000355e+01,-1.000000000000000000e+00,1.000000000000000000e+00,1.650000000000000355e+01,-1.800000000000000355e+01,3.250000000000000444e+00,1.000000000000000000e+00,1.250000000000000178e+01,-2.150000000000000355e+01,8.250000000000001776e+00,-3.750000000000001332e+00,2.150000000000000711e+01,-1.450000000000000355e+01,-4.500000000000000888e+00,6.000000000000001776e+00,-1.475000000000000355e+01,1.775000000000000355e+01,2.500000000000000000e-01,-1.725000000000000355e+01,2.025000000000000355e+01,-1.375000000000000355e+01,1.500000000000000355e+01,-2.600000000000000711e+01,2.300000000000000711e+01,-1.375000000000000355e+01,1.525000000000000355e+01,-1.600000000000000355e+01,1.100000000000000355e+01,1.075000000000000355e+01,-2.525000000000000711e+01,2.200000000000000355e+01,-1.975000000000000355e+01,2.500000000000000000e-01,2.275000000000000711e+01,-2.775000000000000711e+01,2.400000000000000711e+01,-4.250000000000000000e+00,-1.775000000000000355e+01,2.325000000000000355e+01,-1.475000000000000355e+01,-2.250000000000000000e+00,-2.750000000000000888e+00,1.700000000000000355e+01,-5.000000000000000000e-01,-7.500000000000001776e+00,-1.725000000000000355e+01,3.200000000000000711e+01,-1.725000000000000355e+01,-1.050000000000000355e+01,1.650000000000000355e+01,-1.050000000000000355e+01,2.200000000000000711e+01,-3.075000000000000711e+01,1.900000000000000355e+01,9.250000000000003553e+00,-1.925000000000000355e+01,1.200000000000000355e+01,-1.650000000000000355e+01,3.500000000000000000e+00,1.950000000000000711e+01,-1.350000000000000355e+01,4.750000000000000888e+00,-1.600000000000000355e+01,2.575000000000000711e+01,-2.200000000000000711e+01,-2.500000000000000000e-01,2.050000000000000711e+01,-7.000000000000002665e+00,-1.500000000000000355e+01,1.600000000000000355e+01,-2.250000000000000888e+00,-1.150000000000000355e+01,1.500000000000000355e+01,-1.125000000000000355e+01,9.500000000000001776e+00,-2.100000000000000355e+01,2.050000000000000355e+01,6.250000000000000888e+00,-2.275000000000000355e+01,8.500000000000000000e+00,5.750000000000001776e+00,9.250000000000003553e+00,-1.050000000000000355e+01,1.000000000000000000e+00,-3.750000000000000888e+00,-9.000000000000001776e+00,2.900000000000000711e+01,-2.600000000000000711e+01,-1.000000000000000000e+00,2.550000000000000711e+01,-1.925000000000000355e+01,-3.500000000000000444e+00,1.675000000000000355e+01,-2.800000000000000711e+01,3.250000000000000711e+01,-2.600000000000000711e+01,2.225000000000000711e+01,-2.450000000000000711e+01,1.575000000000000355e+01,8.000000000000000000e+00,-2.150000000000000355e+01,5.250000000000000888e+00,1.475000000000000355e+01,-2.050000000000000355e+01,2.075000000000000355e+01,-3.750000000000000000e+00,-1.850000000000000711e+01,8.250000000000003553e+00,2.150000000000000355e+01,-3.500000000000000711e+01,2.500000000000000711e+01,-8.000000000000001776e+00,-3.500000000000000888e+00,1.200000000000000355e+01,-1.950000000000000355e+01,2.225000000000000355e+01,-3.500000000000000000e+00,-1.325000000000000355e+01,-6.750000000000001776e+00,1.300000000000000355e+01,9.250000000000001776e+00,-9.500000000000001776e+00,-1.250000000000000355e+01,2.575000000000000711e+01,-1.550000000000000355e+01,-9.250000000000001776e+00,7.250000000000000888e+00,4.250000000000000888e+00,-5.000000000000000888e+00,2.075000000000000355e+01,-1.775000000000000355e+01,-1.450000000000000355e+01,3.375000000000000711e+01,-2.150000000000000355e+01,-8.500000000000003553e+00,2.825000000000000711e+01,-2.175000000000000711e+01,-6.250000000000001776e+00,2.775000000000000711e+01,-3.125000000000000711e+01,2.075000000000000355e+01,7.750000000000002665e+00,-3.100000000000000711e+01,3.125000000000000711e+01,-2.475000000000000711e+01,1.800000000000000711e+01,-2.000000000000000888e+00,-1.550000000000000355e+01,2.925000000000000711e+01,-2.625000000000000711e+01,-5.000000000000000000e-01,2.050000000000000355e+01,-6.500000000000000888e+00,-2.150000000000000355e+01,1.575000000000000355e+01,1.750000000000000355e+01,-3.300000000000000711e+01,2.475000000000000711e+01,-1.950000000000000355e+01,1.075000000000000178e+01,1.225000000000000355e+01,-6.250000000000002665e+00,-2.200000000000000355e+01,2.825000000000000711e+01,-2.725000000000000711e+01,1.775000000000000355e+01,1.200000000000000355e+01,-3.175000000000000711e+01,3.475000000000000711e+01,-2.300000000000000355e+01,9.000000000000001776e+00,-2.050000000000000355e+01,3.175000000000000711e+01,-1.525000000000000355e+01,-1.650000000000000355e+01,1.675000000000000355e+01,1.300000000000000355e+01,-1.600000000000000355e+01,0.000000000000000000e+00,8.500000000000001776e+00,-1.150000000000000355e+01,-4.750000000000000000e+00,9.250000000000001776e+00,1.350000000000000178e+01,-2.300000000000000355e+01,2.350000000000000711e+01,-2.475000000000000711e+01,1.100000000000000355e+01,-2.500000000000000000e-01,1.400000000000000355e+01,-1.500000000000000355e+01,-9.750000000000003553e+00,2.250000000000000711e+01,-2.275000000000000711e+01,1.400000000000000355e+01,1.425000000000000355e+01,-1.975000000000000355e+01,-8.750000000000003553e+00,1.475000000000000355e+01,-2.000000000000000444e+00,-5.000000000000002220e-01,1.075000000000000178e+01,-2.275000000000000711e+01,6.250000000000001776e+00,2.175000000000000711e+01,-2.850000000000000711e+01,1.300000000000000355e+01,1.325000000000000355e+01,-2.275000000000000711e+01,1.200000000000000178e+01,-8.500000000000001776e+00,-1.750000000000000000e+00,2.125000000000000711e+01,-1.025000000000000355e+01,-1.475000000000000355e+01,1.525000000000000355e+01,-1.450000000000000355e+01,2.850000000000000711e+01,-2.700000000000000711e+01,1.700000000000000355e+01,-1.050000000000000355e+01,-2.500000000000000000e-01,-5.000000000000000888e+00,-2.000000000000000000e+00,2.175000000000000355e+01,-2.325000000000000355e+01,1.625000000000000355e+01,-1.400000000000000355e+01,1.825000000000000355e+01,-1.475000000000000355e+01,1.725000000000000355e+01,-1.800000000000000355e+01,1.575000000000000355e+01,-8.250000000000001776e+00,-1.200000000000000178e+01,1.500000000000000355e+01,4.250000000000000888e+00,-2.175000000000000711e+01,2.800000000000000711e+01,-1.500000000000000355e+01,-3.250000000000000888e+00,1.125000000000000355e+01,-1.975000000000000711e+01,1.725000000000000355e+01,1.600000000000000355e+01,-1.800000000000000355e+01,-2.500000000000000000e-01,-1.100000000000000178e+01,1.300000000000000355e+01,7.500000000000000000e-01,-4.500000000000000888e+00,2.050000000000000355e+01,-2.250000000000000355e+01,-5.750000000000001776e+00,3.300000000000000711e+01,-2.900000000000000711e+01,1.025000000000000355e+01,7.500000000000001776e+00,-1.000000000000000355e+01,1.675000000000000355e+01,-1.575000000000000355e+01,1.750000000000000888e+00,-6.250000000000001776e+00,-1.000000000000000222e+00,-5.000000000000001110e-01,2.500000000000000555e-01,0.000000000000000000e+00,2.500000000000000555e-01,-5.000000000000001110e-01,2.500000000000000555e-01,0.000000000000000000e+00,0.000000000000000000e+00,0.000000000000000000e+00,0.000000000000000000e+00,-2.500000000000000555e-01,5.000000000000001110e-01,-5.000000000000001110e-01,5.000000000000001110e-01,-2.500000000000000555e-01,0.000000000000000000e+00,2.500000000000000555e-01,-2.500000000000000555e-01,-2.500000000000000555e-01,2.500000000000000555e-01,0.000000000000000000e+00,2.500000000000000555e-01,-5.000000000000001110e-01,2.500000000000000555e-01,2.500000000000000555e-01,-5.000000000000001110e-01,2.500000000000000555e-01,0.000000000000000000e+00,0.000000000000000000e+00,-3.925000000000000711e+01,3.875000000000000711e+01,2.225000000000000355e+01,-2.650000000000000355e+01,-1.275000000000000355e+01,1.275000000000000355e+01,-2.500000000000000888e+00,3.000000000000000711e+01,-9.100000000000001421e+01,2.150000000000000711e+01,2.375000000000000355e+01,-1.400000000000000355e+01,-4.500000000000000000e+00,3.850000000000000711e+01,1.500000000000014877e+00,1.249999999999986011e+00,2.500000000000000555e-01,-2.500000000000000555e-01,7.500000000000002220e-01,-1.000000000000000222e+00,5.000000000000001110e-01,-2.500000000000000555e-01,2.500000000000000555e-01,0.000000000000000000e+00,0.000000000000000000e+00,0.000000000000000000e+00,-2.500000000000000555e-01,7.500000000000002220e-01,-7.500000000000002220e-01,5.000000000000001110e-01,-2.500000000000000555e-01,-2.500000000000000555e-01,2.500000000000000555e-01,0.000000000000000000e+00,5.000000000000001110e-01,-1.000000000000000222e+00,5.000000000000001110e-01,2.500000000000000555e-01,-2.500000000000000555e-01,-2.500000000000000555e-01,2.500000000000000555e-01,2.500000000000000555e-01,-7.500000000000002220e-01,7.500000000000002220e-01,0.000000000000000000e+00,-2.500000000000000555e-01,2.500000000000000555e-01,-1.000000000000000222e+00,1.000000000000000222e+00,-2.500000000000000555e-01,0.000000000000000000e+00,2.500000000000000555e-01,-2.500000000000000555e-01,0.000000000000000000e+00,0.000000000000000000e+00,-2.500000000000000555e-01,5.000000000000001110e-01,-2.500000000000000555e-01,0.000000000000000000e+00,0.000000000000000000e+00,0.000000000000000000e+00,0.000000000000000000e+00,-2.500000000000000555e-01,2.500000000000000555e-01,2.500000000000000555e-01,-2.500000000000000555e-01,0.000000000000000000e+00,0.000000000000000000e+00,2.500000000000000555e-01,-2.500000000000000555e-01,0.000000000000000000e+00,-2.500000000000000555e-01,5.000000000000001110e-01,-2.500000000000000555e-01,0.000000000000000000e+00,1.249999999999986011e+00,1.850000000000001776e+01,-1.875000000000000355e+01,-2.000000000000000444e+00,1.125000000000000178e+01,5.000000000000000000e-01,6.250000000000001776e+00,-4.050000000000000711e+01
