1.081902500000000771e+02,1.258933750000000771e+02,1.417683750000000771e+02,1.526433750000000771e+02,1.593465000000000771e+02,1.649090000000000771e+02,1.662215000000000771e+02,1.640183750000000771e+02,1.599246250000000771e+02,1.548465000000000771e+02,1.470183750000000771e+02,1.415965000000000771e+02,1.362683750000000771e+02,1.299715000000000771e+02,1.248308750000000771e+02,1.202683750000000771e+02,1.145808750000000771e+02,1.091433750000000771e+02,1.055652500000000771e+02,1.025027500000000771e+02,9.879962500000007708e+01,9.544025000000004866e+01,9.115900000000004866e+01,8.484650000000003445e+01,8.070587500000003445e+01,7.534650000000003445e+01,7.072150000000003445e+01,6.383087500000003445e+01,5.672150000000003445e+01,4.740900000000002734e+01,3.775275000000002024e+01,3.059650000000001313e+01,2.209650000000000603e+01,1.459650000000000247e+01,6.502749999999995367e+00,-4.347500000000088516e-01,-6.091000000000011738e+00,-1.037225000000001529e+01,-1.240350000000001707e+01,-1.541912500000001884e+01,-1.737225000000001884e+01,-1.766912500000001884e+01,-1.770037500000001884e+01,-1.791912500000001884e+01,-1.785662500000001884e+01,-1.601287500000001884e+01,-1.568475000000001884e+01,-1.402850000000001884e+01,-1.301287500000001884e+01,-1.396600000000001884e+01,-1.641912500000001884e+01,-1.904412500000001884e+01,-2.293475000000002240e+01,-2.832537500000002950e+01,-3.374725000000002950e+01,-4.155975000000003661e+01,-4.976287500000004371e+01,-5.707537500000005082e+01,-6.273162500000005082e+01,-6.804412500000005082e+01,-7.334100000000005082e+01,-7.862225000000005082e+01,-8.384100000000005082e+01,-8.840350000000005082e+01,-9.296600000000006503e+01,-1.000285000000000935e+02,-1.092160000000000935e+02,-1.183722500000000935e+02,-1.286066250000000935e+02,-1.399191250000000935e+02,-1.514035000000000935e+02,-1.624660000000000935e+02,-1.731847500000000935e+02,-1.819191250000001219e+02,-1.878253750000001503e+02,-1.932785000000001787e+02,-1.964503750000001787e+02,-1.977785000000001787e+02,-1.986378750000001787e+02,-1.969035000000001787e+02,-1.929347500000001787e+02,-1.863097500000001219e+02,-1.786222500000001219e+02,-1.703097500000001219e+02,-1.603253750000000935e+02,-1.502472500000000935e+02,-1.381222500000000935e+02,-1.273097500000000935e+02,-1.195910000000000935e+02,-1.142003750000000935e+02,-1.125441250000000935e+02,-1.139660000000000935e+02,-1.192003750000000935e+02,-1.271222500000000935e+02,-1.404347500000000935e+02,-1.561691250000000935e+02,-1.721378750000001219e+02,-1.891691250000001787e+02,-2.035441250000001787e+02,-2.146222500000001787e+02,-2.237316250000001787e+02,-2.282785000000001787e+02,-2.278566250000001787e+02,-2.258097500000001787e+02,-2.206066250000001787e+02,-2.143097500000001787e+02,-2.095441250000001787e+02,-2.049191250000001787e+02,-2.022941250000001787e+02,-2.072472500000001787e+02,-2.175285000000001787e+02,-2.301222500000001787e+02,-2.479660000000001787e+02,-2.688410000000001787e+02,-2.932941250000001787e+02,-3.222628750000001787e+02,-3.526535000000002356e+02,-3.785128750000003492e+02,-4.013878750000003492e+02,-4.238722500000003492e+02,-4.446222500000003492e+02,-4.636066250000003492e+02,-4.788566250000003492e+02,-4.921378750000003492e+02,-5.021066250000003492e+02,-5.112003750000003492e+02,-5.193097500000003492e+02,-5.252316250000003492e+02,-5.291847500000003492e+02,-5.316535000000003492e+02,-5.334347500000003492e+02,-5.334191250000003492e+02,-5.333878750000003492e+02,-5.333722500000003492e+02,-5.333566250000003492e+02,-5.333566250000003492e+02,-5.333566250000003492e+02,-5.333566250000003492e+02,-5.333566250000003492e+02,-5.333253750000003492e+02,-5.333097500000003492e+02,-5.332941250000003492e+02,-5.332628750000003492e+02,-5.332316250000003492e+02,-5.331691250000003492e+02,-5.331222500000003492e+02,-5.330753750000003492e+02,-5.330441250000003492e+02,-5.330441250000003492e+02,-5.330441250000003492e+02,-5.330910000000003492e+02,-5.331378750000003492e+02,-5.332316250000003492e+02,-5.332941250000003492e+02,-5.333566250000003492e+02,-5.334191250000003492e+02,-5.334347500000003492e+02,-5.334347500000003492e+02,-5.333878750000003492e+02,-5.333410000000003492e+02,-5.332941250000003492e+02,-5.332628750000003492e+02,-5.332472500000003492e+02,-5.332316250000003492e+02,-5.332316250000003492e+02,-5.332628750000003492e+02,-5.332785000000003492e+02,-5.332785000000003492e+02,-5.332472500000003492e+02,-5.332003750000003492e+02,-5.331378750000003492e+02,-5.330753750000003492e+02,-5.330128750000003492e+02,-5.329347500000003492e+02,-5.329191250000003492e+02,-5.329347500000003492e+02,-5.329816250000003492e+02,-5.330597500000003492e+02,-5.331222500000003492e+02,-5.331847500000003492e+02,-5.332472500000003492e+02,-5.333097500000003492e+02,-5.333253750000003492e+02,-5.333410000000003492e+02,-5.333253750000003492e+02,-5.330285000000003492e+02,-5.313566250000003492e+02,-5.285441250000003492e+02,-5.235441250000003492e+02,-5.166378750000003492e+02,-5.069816250000003492e+02,-4.945128750000003492e+02,-4.775128750000003492e+02,-4.570285000000003492e+02,-4.357628750000003492e+02,-4.117472500000003492e+02,-3.862003750000003492e+02,-3.589972500000002356e+02,-3.324816250000001787e+02,-3.052628750000001787e+02,-2.818410000000001787e+02,-2.600597500000001787e+02,-2.383566250000001787e+02,-2.178722500000001787e+02,-1.985128750000001787e+02,-1.799191250000001219e+02,-1.598722500000001219e+02,-1.406535000000000935e+02,-1.194035000000000935e+02,-9.674725000000006503e+01,-7.260662500000005082e+01,-4.996600000000003661e+01,-2.799725000000002240e+01,-6.872250000000012626e+00,1.315899999999999892e+01,3.204962500000001313e+01,5.033087500000002024e+01,6.519025000000003445e+01,7.784650000000004866e+01,9.150275000000006287e+01,1.032996250000000771e+02,1.131746250000000771e+02,1.213777500000000771e+02,1.292058750000000771e+02,1.366277500000000771e+02,1.474871250000000771e+02,1.593621250000000771e+02,1.722996250000001055e+02,1.902683750000001623e+02,2.135652500000001623e+02,2.401746250000001623e+02,2.696590000000001623e+02,3.010340000000001623e+02,3.312840000000002192e+02,3.618308750000002192e+02,3.905340000000003329e+02,4.142371250000003329e+02,4.326433750000003329e+02,4.469246250000003329e+02,4.570965000000003329e+02,4.635340000000003329e+02,4.674246250000003329e+02,4.684871250000003329e+02,4.681121250000003329e+02,4.676121250000003329e+02,4.670183750000003329e+02,4.664871250000003329e+02,4.660808750000003329e+02,4.657840000000003329e+02,4.657371250000003329e+02,4.659402500000003329e+02,4.662058750000003329e+02,4.665027500000003329e+02,4.668465000000003329e+02,4.671902500000003329e+02,4.674871250000003329e+02,4.677683750000003329e+02,4.679558750000003329e+02,4.680027500000003329e+02,4.680183750000003329e+02,4.680027500000003329e+02,4.679402500000003329e+02,4.677996250000003329e+02,4.675965000000003329e+02,4.672058750000003329e+02,4.666746250000003329e+02,4.654402500000003329e+02,4.633465000000003329e+02,4.608933750000003329e+02,4.570652500000003329e+02,4.529715000000003329e+02,4.484558750000003329e+02,4.438152500000003329e+02,4.389246250000003329e+02,4.340027500000003329e+02,4.297215000000003329e+02,4.258933750000003329e+02,4.236746250000003329e+02,4.219402500000003329e+02,4.207840000000003329e+02,4.191590000000003329e+02,4.179402500000003329e+02,4.185183750000003329e+02,4.198308750000003329e+02,4.207840000000003329e+02,4.224558750000003329e+02,4.231121250000003329e+02,4.225340000000003329e+02,4.223308750000003329e+02,4.202215000000003329e+02,4.159090000000003329e+02,4.093621250000003329e+02,4.020340000000003329e+02,3.916590000000003329e+02,3.815027500000003329e+02,3.722058750000002192e+02,3.633152500000001623e+02,3.556433750000001623e+02,3.486277500000001623e+02,3.426902500000001623e+02,3.360965000000001623e+02,3.309871250000001623e+02,3.244090000000001623e+02,3.169558750000001623e+02,3.072527500000001623e+02,2.975340000000001623e+02,2.875652500000001623e+02,2.777840000000001623e+02,2.700183750000001623e+02,2.620340000000001623e+02,2.566746250000001623e+02,2.519402500000001623e+02,2.493621250000001623e+02,2.475965000000001623e+02,2.463621250000001623e+02,2.460496250000001623e+02,2.453152500000001623e+02,2.454090000000001623e+02,2.450496250000001623e+02,2.451121250000001623e+02,2.458621250000001623e+02,2.475183750000001623e+02,2.497215000000001623e+02,2.504090000000001623e+02,2.509715000000001623e+02,2.520808750000001623e+02,2.523152500000001623e+02,2.528308750000001623e+02,2.514090000000001623e+02,2.464871250000001623e+02,2.399090000000001623e+02,2.341590000000001623e+02,2.272527500000001623e+02,2.170183750000001623e+02,2.063465000000001623e+02,1.937996250000001623e+02,1.808777500000001055e+02,1.700496250000001055e+02,1.583933750000000771e+02,1.460808750000000771e+02,1.348621250000000771e+02,1.265340000000000771e+02,1.187371250000000771e+02,1.113308750000000771e+02,1.064715000000000771e+02,1.008465000000000771e+02,9.806525000000007708e+01,9.615900000000006287e+01,9.401837500000004866e+01,9.242462500000004866e+01,9.158087500000003445e+01,9.248712500000003445e+01,9.178400000000003445e+01,9.337775000000004866e+01,9.379962500000004866e+01,9.354962500000004866e+01,9.483087500000004866e+01,9.554962500000006287e+01,9.703400000000007708e+01,9.765900000000007708e+01,9.925275000000007708e+01,9.931525000000007708e+01,9.956525000000007708e+01,1.003152500000000771e+02,9.787775000000007708e+01,9.326837500000007708e+01,8.639337500000004866e+01,7.994025000000004866e+01,7.256525000000004866e+01,6.403400000000003445e+01,5.519025000000003445e+01,4.564337500000002024e+01,3.904962500000001313e+01,3.500275000000001313e+01,3.275275000000001313e+01,3.053400000000001313e+01,2.862775000000001313e+01,2.917462500000001313e+01,3.128400000000001313e+01,3.395587500000001313e+01,3.544025000000001313e+01,3.717462500000001313e+01,3.812775000000001313e+01,3.889337500000001313e+01,3.969025000000001313e+01,3.853400000000001313e+01,3.503400000000001313e+01,3.229962500000001313e+01,2.965900000000001313e+01,2.581525000000001313e+01,2.117462500000000603e+01,1.620587500000000247e+01,1.114337499999999892e+01,6.862124999999997144e+00,3.377749999999994479e+00,-2.028500000000009074e+00,-7.169125000000011738e+00,-1.323162500000001529e+01,-1.788787500000001884e+01,-2.223162500000002240e+01,-2.579412500000002595e+01,-2.887225000000002950e+01,-3.107537500000002950e+01,-3.073162500000002950e+01,-3.037225000000002950e+01,-2.721600000000002950e+01,-2.426287500000002240e+01,-2.105975000000002240e+01,-1.768475000000001884e+01,-1.480975000000001884e+01,-1.109100000000001529e+01,-8.747250000000013515e+00,-6.794125000000012626e+00,-6.794125000000012626e+00,-6.653500000000012626e+00,-6.247250000000011738e+00,-6.497250000000011738e+00,-7.012875000000012626e+00,-9.028500000000015291e+00,-1.107537500000001707e+01,-1.224725000000001884e+01,-1.212225000000001884e+01,-1.216912500000001884e+01,-1.318475000000001884e+01,-1.374725000000001884e+01,-1.359100000000001884e+01,-1.327850000000001884e+01,-1.282537500000001884e+01,-1.249725000000001884e+01,-1.359100000000001884e+01,-1.498162500000001884e+01,-1.545037500000001884e+01,-1.724725000000001884e+01,-1.945037500000001884e+01,-2.121600000000002240e+01,-2.262225000000002240e+01,-2.565350000000002595e+01,-2.815350000000002950e+01,-2.973162500000002950e+01,-3.184100000000002950e+01,-3.240350000000002950e+01,-3.238787500000002950e+01,-3.296600000000002950e+01,-3.412225000000002950e+01,-3.362225000000002950e+01,-3.257537500000002950e+01,-3.209100000000002950e+01,-3.160662500000002950e+01,-3.145037500000002950e+01,-3.266912500000002950e+01,-3.427850000000002950e+01,-3.452850000000002950e+01,-3.463787500000002950e+01,-3.629412500000002950e+01,-3.829412500000002950e+01,-4.105975000000002950e+01,-4.413787500000002950e+01,-4.530975000000002950e+01,-4.591912500000003661e+01,-4.870037500000003661e+01,-5.240350000000005082e+01,-5.376287500000005082e+01,-5.487225000000005082e+01,-5.384100000000005082e+01,-5.338787500000005082e+01,-5.484100000000005082e+01,-5.499725000000005082e+01,-5.354412500000005082e+01,-5.187225000000005082e+01,-5.123162500000005082e+01,-5.026287500000005082e+01,-5.149725000000005082e+01,-5.173162500000005082e+01,-4.962225000000005082e+01,-4.910662500000005082e+01,-4.874725000000005082e+01,-4.701287500000003661e+01,-4.541912500000003661e+01,-4.427850000000003661e+01,-4.160662500000002950e+01,-3.845037500000002950e+01,-3.682537500000002950e+01,-3.421600000000002950e+01,-3.205975000000002950e+01,-3.185662500000002950e+01,-3.196600000000002950e+01,-3.096600000000002950e+01,-3.065350000000002950e+01,-3.220037500000002950e+01,-3.334100000000002950e+01,-3.590350000000002950e+01,-3.740350000000002950e+01,-3.787225000000002950e+01,-3.896600000000002950e+01,-4.152850000000003661e+01,-4.305975000000003661e+01,-4.362225000000003661e+01,-4.493475000000003661e+01,-4.521600000000003661e+01,-4.646600000000003661e+01,-4.741912500000003661e+01,-4.688787500000003661e+01,-4.505975000000003661e+01,-4.421600000000003661e+01,-4.304412500000003661e+01,-4.068475000000002950e+01,-3.782537500000002950e+01,-3.396600000000002950e+01,-3.093475000000002950e+01,-2.749725000000002950e+01,-2.498162500000002950e+01,-2.096600000000002240e+01,-1.595037500000001884e+01,-1.040350000000001529e+01,-4.231625000000011738e+00,1.080874999999992259e+00,8.815249999999997144e+00,1.717462499999999892e+01,2.689337500000000603e+01,3.583087500000001313e+01,4.551837500000002024e+01,5.447150000000002734e+01,6.306525000000003445e+01,7.256525000000003445e+01,8.020587500000003445e+01,8.734650000000004866e+01,9.400275000000007708e+01,1.014715000000000771e+02,1.067215000000000771e+02,1.117215000000000771e+02,1.174246250000000771e+02,1.237996250000000771e+02,1.310652500000000771e+02,1.365652500000000771e+02,1.426746250000000771e+02,1.467215000000000771e+02,1.516277500000000771e+02,1.573933750000000771e+02,1.614558750000000771e+02,1.637215000000000771e+02,1.650808750000000771e+02,1.672996250000000771e+02,1.685340000000000771e+02,1.715340000000000771e+02,1.746121250000000771e+02,1.760340000000000771e+02,1.773308750000000771e+02,1.793308750000000771e+02,1.809715000000000771e+02,1.835808750000000771e+02,1.853465000000000771e+02,1.861277500000000771e+02,1.855965000000000771e+02,1.854090000000000771e+02,1.857683750000000771e+02,1.855027500000000771e+02,1.851433750000000771e+02,1.825496250000000771e+02,1.799871250000000771e+02,1.770183750000000771e+02,1.742058750000000771e+02,1.713621250000000771e+02,1.676121250000000771e+02,1.639090000000000771e+02,1.595496250000000771e+02,1.564090000000000771e+02,1.548152500000000771e+02,1.533777500000000771e+02,1.529090000000000771e+02,1.539402500000000771e+02,1.558621250000000771e+02,1.573152500000000771e+02,1.598308750000000771e+02,1.618777500000000771e+02,1.626277500000000771e+02,1.632058750000000771e+02,1.624558750000000771e+02,1.590808750000000771e+02,1.553933750000000771e+02,1.516590000000000771e+02,1.472215000000000771e+02,1.434090000000000771e+02,1.382996250000000771e+02,1.332527500000000771e+02,1.292215000000000771e+02,1.265340000000000771e+02,1.235965000000000771e+02,1.201277500000000771e+02,1.165808750000000771e+02,1.115027500000000771e+02,1.070340000000000771e+02,1.012996250000000771e+02,9.428400000000007708e+01,8.559650000000004866e+01,7.511212500000003445e+01,6.520587500000003445e+01,5.433087500000003445e+01,4.367462500000002024e+01,3.308087500000001313e+01,2.264337500000000603e+01,1.278400000000000247e+01,4.674624999999995367e+00,-2.075375000000008630e+00,-8.544125000000011738e+00,-1.360662500000001529e+01,-1.874725000000002240e+01,-2.279412500000002595e+01,-2.573162500000002950e+01,-2.888787500000002950e+01,-3.105975000000002950e+01,-3.099725000000002950e+01,-2.938787500000002950e+01,-2.490350000000002240e+01,-1.730975000000001884e+01,-9.200375000000013515e+00,1.112124999999993147e+00,1.448712499999999892e+01,2.748712500000000603e+01,3.931525000000002024e+01,5.020587500000002734e+01,5.711212500000003445e+01,6.158087500000003445e+01,6.454962500000003445e+01,6.459650000000003445e+01,5.984650000000003445e+01,5.272150000000003445e+01,4.384650000000002024e+01,3.223712500000001313e+01,2.108087500000000603e+01,1.029962499999999892e+01,3.933749999999922586e-01,-9.106625000000015291e+00,-1.549725000000001884e+01,-2.048162500000002240e+01,-2.349725000000002240e+01,-2.326287500000002240e+01,-2.302850000000002240e+01,-2.399725000000002240e+01,-2.563787500000002950e+01,-2.665350000000002950e+01,-2.777850000000002950e+01,-2.932537500000002950e+01,-3.262225000000002950e+01,-3.679412500000002950e+01,-3.948162500000002950e+01,-3.996600000000002950e+01,-3.854412500000002950e+01,-3.696600000000002950e+01,-3.655975000000002950e+01,-3.263787500000002950e+01,-2.549725000000002240e+01,-1.687225000000001884e+01,-6.809750000000011738e+00,4.768374999999995367e+00,1.644025000000000247e+01,3.047150000000000603e+01,4.997150000000002024e+01,6.754962500000003445e+01,8.723712500000004866e+01,1.084715000000000771e+02,1.320652500000000771e+02,1.578465000000001055e+02,1.878308750000001339e+02,2.205183750000001623e+02,2.511121250000001623e+02,2.858777500000001623e+02,3.188933750000001623e+02,3.519402500000002192e+02,3.817058750000003329e+02,4.072840000000003329e+02,4.273308750000003329e+02,4.421746250000003329e+02,4.543621250000003329e+02,4.615965000000003329e+02,4.664871250000003329e+02,4.683933750000003329e+02,4.691590000000003329e+02,4.695027500000003329e+02,4.697683750000003329e+02,4.699715000000003329e+02,4.700965000000003329e+02,4.701746250000003329e+02,4.702527500000003329e+02,4.702527500000003329e+02,4.702058750000003329e+02,4.701433750000003329e+02,4.700808750000003329e+02,4.700652500000003329e+02,4.700808750000003329e+02,4.700965000000003329e+02,4.700965000000003329e+02,4.701433750000003329e+02,4.702371250000003329e+02,4.703308750000003329e+02,4.704558750000003329e+02,4.705652500000003329e+02,4.706433750000003329e+02,4.707371250000003329e+02,4.708621250000003329e+02,4.709871250000003329e+02,4.710808750000003329e+02,4.711746250000003329e+02,4.712371250000003329e+02,4.712840000000003329e+02,4.713308750000003329e+02,4.713621250000003329e+02,4.713465000000003329e+02,4.713152500000003329e+02,4.712840000000003329e+02,4.712527500000003329e+02,4.712215000000003329e+02,4.711746250000003329e+02,4.711902500000003329e+02,4.711902500000003329e+02,4.711902500000003329e+02,4.711902500000003329e+02,4.711902500000003329e+02,4.712058750000003329e+02,4.712058750000003329e+02,4.712683750000003329e+02,4.712840000000003329e+02,4.713308750000003329e+02,4.714090000000003329e+02,4.714715000000003329e+02,4.715340000000003329e+02,4.715808750000003329e+02,4.716590000000003329e+02,4.716746250000003329e+02,4.717058750000003329e+02,4.717058750000003329e+02,4.716902500000003329e+02,4.716902500000003329e+02,4.716590000000003329e+02,4.716121250000003329e+02,4.715652500000003329e+02,4.714871250000003329e+02,4.713621250000003329e+02,4.712527500000003329e+02,4.711277500000003329e+02,4.709871250000003329e+02,4.708933750000003329e+02,4.708308750000003329e+02,4.707215000000003329e+02,4.706590000000003329e+02,4.706277500000003329e+02,4.705965000000003329e+02,4.705808750000003329e+02,4.705965000000003329e+02,4.705965000000003329e+02,4.705496250000003329e+02,4.705183750000003329e+02,4.704871250000003329e+02,4.704558750000003329e+02,4.703933750000003329e+02,4.702996250000003329e+02,4.700965000000003329e+02,4.697683750000003329e+02,4.686121250000003329e+02,4.662371250000003329e+02,4.620652500000003329e+02,4.570183750000003329e+02,4.511121250000003329e+02,4.437840000000003329e+02,4.341277500000003329e+02,4.213621250000003329e+02,4.066746250000003329e+02,3.919246250000003329e+02,3.775652500000002760e+02,3.606590000000002192e+02,3.418465000000001623e+02,3.216590000000001623e+02,3.014715000000001623e+02,2.836277500000001623e+02,2.665965000000001623e+02,2.472683750000001623e+02,2.273777500000001623e+02,2.114871250000001623e+02,1.947527500000001623e+02,1.772527500000001055e+02,1.594246250000001055e+02,1.384402500000000771e+02,1.174715000000000771e+02,9.862775000000004866e+01,7.831525000000004866e+01,5.392462500000002024e+01,3.003400000000000603e+01,6.705874999999993591e+00,-1.515350000000001884e+01,-3.349725000000002950e+01,-5.204412500000004371e+01,-7.140350000000006503e+01,-8.855975000000007924e+01,-1.074347500000000935e+02,-1.240441250000000935e+02,-1.391378750000000935e+02,-1.566691250000000935e+02,-1.771066250000001219e+02,-1.982472500000001787e+02,-2.184035000000001787e+02,-2.393722500000001787e+02,-2.559503750000001787e+02,-2.731847500000001787e+02,-2.887472500000001787e+02,-3.005597500000001787e+02,-3.107003750000001787e+02,-3.188410000000001787e+02,-3.282160000000001787e+02,-3.381378750000001787e+02,-3.471847500000001787e+02,-3.562160000000001787e+02,-3.670910000000002356e+02,-3.803722500000002924e+02,-3.933253750000003492e+02,-4.066066250000003492e+02,-4.190128750000003492e+02,-4.292472500000003492e+02,-4.408410000000003492e+02,-4.519035000000003492e+02,-4.629816250000003492e+02,-4.717785000000003492e+02,-4.789191250000003492e+02,-4.859191250000003492e+02,-4.915753750000003492e+02,-4.975753750000003492e+02,-5.034191250000003492e+02,-5.085441250000003492e+02,-5.119503750000003492e+02,-5.157941250000003492e+02,-5.202941250000003492e+02,-5.237316250000003492e+02,-5.268566250000003492e+02,-5.292160000000003492e+02,-5.304191250000003492e+02,-5.313722500000003492e+02,-5.323566250000003492e+02,-5.328566250000003492e+02,-5.329035000000003492e+02,-5.329816250000003492e+02,-5.330597500000003492e+02,-5.331222500000003492e+02,-5.331691250000003492e+02,-5.332003750000003492e+02,-5.332160000000003492e+02,-5.331691250000003492e+02,-5.331535000000003492e+02,-5.331222500000003492e+02,-5.327785000000003492e+02,-5.322003750000003492e+02,-5.316378750000003492e+02,-5.310753750000003492e+02,-5.304347500000003492e+02,-5.294347500000003492e+02,-5.282160000000003492e+02,-5.256691250000003492e+02,-5.234035000000003492e+02,-5.207160000000003492e+02,-5.167785000000003492e+02,-5.120753750000003492e+02,-5.072628750000003492e+02,-5.019191250000003492e+02,-4.943410000000003492e+02,-4.869035000000003492e+02,-4.789035000000003492e+02,-4.704972500000003492e+02,-4.622628750000003492e+02,-4.531378750000003492e+02,-4.429816250000003492e+02,-4.337785000000003492e+02,-4.272003750000003492e+02,-4.224035000000003492e+02,-4.173410000000003492e+02,-4.125910000000003492e+02,-4.083566250000003492e+02,-4.059035000000003492e+02,-4.031066250000003492e+02,-3.986691250000003492e+02,-3.928410000000003492e+02,-3.856378750000003492e+02,-3.789816250000002356e+02,-3.737628750000002356e+02,-3.698253750000001787e+02,-3.651535000000001787e+02,-3.609816250000001787e+02,-3.582628750000001787e+02,-3.561378750000001787e+02,-3.539816250000001787e+02,-3.497003750000001787e+02,-3.411222500000001787e+02,-3.298722500000001787e+02,-3.182316250000001787e+02,-3.075597500000001787e+02,-2.968410000000001787e+02,-2.867628750000001787e+02,-2.761378750000001787e+02,-2.688253750000001787e+02,-2.667472500000001787e+02,-2.660441250000001787e+02,-2.653722500000001787e+02,-2.634347500000001787e+02,-2.605597500000001787e+02,-2.577003750000001787e+02,-2.562316250000001787e+02,-2.530441250000001787e+02,-2.484972500000001787e+02,-2.439660000000001787e+02,-2.409035000000001787e+02,-2.399191250000001787e+02,-2.388410000000001787e+02,-2.358566250000001787e+02,-2.320597500000001787e+02,-2.283253750000001787e+02,-2.229816250000001787e+02,-2.177785000000001787e+02,-2.094035000000001787e+02,-2.001691250000001787e+02,-1.915910000000001503e+02,-1.845597500000001219e+02,-1.771066250000001219e+02,-1.695910000000000935e+02,-1.616535000000000935e+02,-1.534035000000000935e+02,-1.488410000000000935e+02,-1.436066250000000935e+02,-1.394035000000000935e+02,-1.350597500000000935e+02,-1.327472500000000935e+02,-1.307785000000000935e+02,-1.305597500000000935e+02,-1.310441250000000935e+02,-1.300128750000000935e+02,-1.290441250000000935e+02,-1.264503750000000935e+02,-1.248097500000000935e+02,-1.207472500000000935e+02,-1.170285000000000935e+02,-1.138253750000000935e+02,-1.096535000000000935e+02,-1.055285000000000935e+02,-1.010285000000000935e+02,-9.705975000000009345e+01,-9.113787500000006503e+01,-8.726287500000006503e+01,-8.329412500000005082e+01,-7.863787500000005082e+01,-7.590350000000005082e+01,-7.266912500000005082e+01,-7.048162500000005082e+01,-6.907537500000005082e+01,-6.901287500000005082e+01,-6.821600000000005082e+01,-6.579412500000005082e+01,-6.441912500000005082e+01,-6.180975000000005082e+01,-6.015350000000005082e+01,-5.865350000000005082e+01,-5.613787500000005082e+01,-5.337225000000005082e+01,-5.040350000000005082e+01,-5.040350000000005082e+01,-4.727850000000003661e+01,-4.374725000000003661e+01,-3.990350000000003661e+01,-3.512225000000002950e+01,-3.246600000000002950e+01,-3.079412500000002950e+01,-3.024725000000002950e+01,-2.924725000000002950e+01,-3.118475000000002950e+01,-3.443475000000002950e+01,-3.801287500000002950e+01,-4.312225000000003661e+01,-4.555975000000003661e+01,-4.735662500000003661e+01,-4.691912500000003661e+01,-4.623162500000003661e+01,-4.512225000000003661e+01,-4.296600000000002950e+01,-4.041912500000002950e+01,-3.668475000000002950e+01,-3.459100000000002950e+01,-3.170037500000002950e+01,-3.070037500000002950e+01,-2.776287500000002950e+01,-2.401287500000002595e+01,-1.995037500000002240e+01,-1.518475000000001884e+01,-9.856625000000015291e+00,-3.559750000000010850e+00,1.080874999999992259e+00,6.221499999999995367e+00,9.315249999999998920e+00,1.262775000000000070e+01,1.634650000000000247e+01,1.994025000000000603e+01,2.461212500000000958e+01,3.129962500000001313e+01,4.253400000000002024e+01,5.531525000000002734e+01,7.162775000000003445e+01,8.984650000000004866e+01
1.834375000000001066e+01,3.401562500000002132e+01,3.351562500000002132e+01,2.657812500000001421e+01,1.362500000000000711e+01,4.062500000000002665e+00,5.937500000000003553e+00,2.953125000000001332e+00,4.984375000000003553e+00,6.937500000000004441e+00,-1.734375000000001110e+00,1.312500000000000888e+00,6.406250000000000000e-01,-3.125000000000002665e+00,5.156250000000001110e-01,-6.671875000000004441e+00,-8.234375000000005329e+00,-4.734375000000002665e+00,-2.218750000000001332e+00,8.468750000000005329e+00,9.921875000000007105e+00,5.468750000000003553e+00,-9.375000000000008882e-01,-1.037500000000000711e+01,-9.296875000000007105e+00,1.874999999999995559e-01,1.012500000000000533e+01,1.564062500000000888e+01,1.456250000000000888e+01,2.000000000000000888e+00,-6.781250000000003553e+00,-8.687500000000005329e+00,-9.187500000000007105e+00,6.875000000000008882e-01,1.718750000000001332e+00,-4.687500000000000000e-01,-2.625000000000001332e+00,-1.121875000000000711e+01,-9.000000000000007105e+00,-6.421875000000005329e+00,-2.468750000000001776e+00,4.078125000000002665e+00,2.671875000000001776e+00,8.281250000000008882e-01,-3.234375000000002220e+00,-5.890625000000003553e+00,-3.656250000000002665e+00,-1.625000000000001332e+00,3.609375000000002665e+00,7.312500000000005329e+00,7.390625000000005329e+00,1.132812500000000711e+01,1.078125000000000711e+01,7.671875000000005329e+00,5.468750000000003553e+00,-3.531250000000001776e+00,-8.265625000000005329e+00,-8.265625000000005329e+00,-6.671875000000003553e+00,-2.968750000000000000e-01,2.500000000000001776e+00,1.656250000000001110e+00,0.000000000000000000e+00,-2.000000000000001332e+00,-6.875000000000005551e-01,4.812500000000002665e+00,1.093750000000000711e+01,1.390625000000000888e+01,1.489062500000000888e+01,7.203125000000003553e+00,-5.062500000000003553e+00,-1.168750000000000711e+01,-2.015625000000001421e+01,-1.710937500000001066e+01,-6.578125000000003553e+00,-3.812500000000000888e+00,4.109375000000002665e+00,8.750000000000008882e-01,-7.390625000000003553e+00,-7.875000000000005329e+00,-1.484375000000000888e+01,-1.196875000000000711e+01,-9.468750000000007105e+00,-1.065625000000000711e+01,-3.515625000000002220e+00,-1.531250000000000444e+00,5.843750000000003553e+00,1.278125000000000711e+01,1.375000000000000888e+01,1.504687500000001066e+01,1.270312500000000888e+01,1.475000000000001066e+01,1.635937500000001066e+01,2.040625000000001421e+01,2.221875000000001421e+01,1.326562500000000711e+01,6.859375000000005329e+00,-6.734375000000004441e+00,-2.192187500000001421e+01,-2.503125000000002132e+01,-3.142187500000002132e+01,-2.987500000000001421e+01,-1.717187500000000711e+01,-1.046875000000000711e+01,1.265625000000001776e+00,1.340625000000001066e+01,1.364062500000000888e+01,1.389062500000000888e+01,1.370312500000000711e+01,9.968750000000005329e+00,1.618750000000001066e+01,2.878125000000001776e+01,3.531250000000002132e+01,3.531250000000002132e+01,2.176562500000001421e+01,-4.515625000000002665e+00,-2.531250000000001776e+01,-3.251562500000002132e+01,-2.739062500000001776e+01,-1.028125000000000711e+01,2.593750000000001332e+00,5.140625000000003553e+00,2.390625000000001776e+00,-8.265625000000005329e+00,-1.435937500000001066e+01,-1.526562500000001066e+01,-1.440625000000000888e+01,-8.359375000000005329e+00,-4.281250000000002665e+00,-1.750000000000001332e+00,9.375000000000006939e-02,7.812500000000005551e-02,4.687500000000002776e-02,3.125000000000002082e-02,1.562500000000001041e-02,-4.687500000000004163e-02,-4.687500000000004163e-02,-4.687500000000004163e-02,-4.687500000000004163e-02,4.687500000000004163e-02,3.125000000000002776e-02,1.562500000000001735e-02,-1.562500000000000694e-02,-1.093750000000000833e-01,-1.093750000000000833e-01,-9.375000000000008327e-02,-1.562500000000001388e-02,7.812500000000006939e-02,2.031250000000001665e-01,2.656250000000002220e-01,2.500000000000002220e-01,2.343750000000001943e-01,1.562500000000004163e-02,-1.093750000000000555e-01,-2.343750000000001665e-01,-3.593750000000002776e-01,-2.187500000000001665e-01,-1.562500000000001388e-01,-1.562500000000002776e-02,1.250000000000001110e-01,7.812500000000006939e-02,1.093750000000000833e-01,9.375000000000006939e-02,7.812500000000005551e-02,1.406250000000001110e-01,1.093750000000000833e-01,0.000000000000000000e+00,-1.250000000000001110e-01,-2.812500000000002220e-01,-3.906250000000003331e-01,-2.656250000000002220e-01,-7.812500000000004163e-02,1.718750000000001388e-01,4.687500000000003331e-01,4.531250000000003331e-01,3.437500000000002220e-01,1.406250000000001110e-01,-1.562500000000001110e-01,-2.187500000000001665e-01,-2.187500000000001665e-01,-1.562500000000001110e-01,-3.125000000000002082e-02,-1.562500000000001041e-02,0.000000000000000000e+00,-1.562500000000001041e-02,-3.125000000000001665e-01,-1.921875000000001554e+00,-4.734375000000003553e+00,-9.671875000000007105e+00,-1.545312500000001066e+01,-1.854687500000001066e+01,-1.976562500000001421e+01,-1.689062500000001421e+01,-1.200000000000000888e+01,-7.828125000000005329e+00,-4.468750000000002665e+00,-1.828125000000000888e+00,1.031250000000001554e+00,2.140625000000001776e+00,4.984375000000003553e+00,7.500000000000006217e+00,9.031250000000007105e+00,1.270312500000001066e+01,1.359375000000001066e+01,7.859375000000006217e+00,-2.968750000000000000e-01,-1.190625000000000888e+01,-2.200000000000001421e+01,-1.900000000000001421e+01,-1.146875000000000711e+01,2.328125000000002665e+00,1.693750000000001421e+01,1.784375000000001066e+01,1.653125000000001066e+01,8.750000000000005329e+00,-3.203125000000003553e+00,-3.609375000000003553e+00,-3.781250000000002665e+00,1.250000000000000000e+00,1.203125000000000888e+01,1.473437500000001066e+01,1.510937500000001066e+01,9.906250000000007105e+00,8.906250000000006661e-01,-6.218750000000004441e+00,-1.276562500000000888e+01,-1.551562500000001066e+01,-1.920312500000001421e+01,-2.260937500000001421e+01,-2.134375000000001421e+01,-2.170312500000001066e+01,-1.675000000000000711e+01,-5.687500000000001776e+00,3.812500000000002665e+00,1.807812500000001066e+01,2.918750000000001421e+01,3.154687500000002132e+01,3.007812500000002132e+01,2.210937500000001421e+01,1.268750000000000711e+01,6.500000000000003553e+00,2.609375000000001776e+00,1.234375000000000666e+00,9.843750000000006661e-01,6.718750000000004441e-01,-1.093750000000001110e-01,-1.015625000000000444e+00,-1.609375000000000888e+00,-1.937500000000001332e+00,-1.515625000000000888e+00,-6.562500000000004441e-01,7.812500000000002776e-02,6.562500000000004441e-01,7.500000000000005551e-01,5.312500000000004441e-01,2.968750000000002220e-01,7.812500000000005551e-02,1.562500000000001041e-02,3.125000000000002082e-02,7.812500000000005551e-02,2.187500000000001110e-01,3.437500000000002220e-01,4.218750000000003331e-01,5.000000000000003331e-01,5.156250000000003331e-01,5.468750000000003331e-01,1.281250000000000888e+00,2.750000000000001776e+00,4.265625000000003553e+00,6.906250000000004441e+00,7.125000000000004441e+00,4.640625000000003553e+00,1.718750000000001110e+00,-5.828125000000004441e+00,-9.031250000000007105e+00,-8.187500000000007105e+00,-6.859375000000005329e+00,1.859375000000001332e+00,4.031250000000002665e+00,1.937500000000001332e+00,8.125000000000006661e-01,-7.406250000000005329e+00,-7.671875000000005329e+00,-3.671875000000001776e+00,-3.125000000000001776e+00,2.703125000000002220e+00,3.296875000000002665e+00,1.750000000000001332e+00,5.515625000000004441e+00,8.750000000000005329e+00,1.287500000000000711e+01,1.604687500000001066e+01,1.393750000000000888e+01,6.125000000000004441e+00,-1.843750000000000444e+00,-9.859375000000005329e+00,-1.496875000000001066e+01,-1.354687500000001066e+01,-1.071875000000000711e+01,-3.968750000000002665e+00,4.500000000000002665e+00,9.609375000000007105e+00,1.462500000000000888e+01,1.401562500000000888e+01,7.593750000000005329e+00,3.125000000000001776e+00,-5.906250000000004441e+00,-1.062500000000000711e+01,-1.129687500000000711e+01,-1.381250000000001066e+01,-8.765625000000007105e+00,-6.093750000000003553e+00,-1.578125000000001332e+00,3.437500000000002220e+00,2.859375000000002220e+00,2.859375000000002220e+00,-2.156250000000001776e+00,-5.312500000000003553e+00,-5.953125000000004441e+00,-4.578125000000003553e+00,1.296875000000000888e+00,2.890625000000001776e+00,3.062500000000001776e+00,6.250000000000000000e-02,-5.000000000000002665e+00,-2.921875000000001332e+00,1.906250000000001332e+00,7.328125000000005329e+00,1.337500000000000888e+01,1.310937500000000888e+01,8.125000000000005329e+00,6.375000000000005329e+00,2.843750000000002220e+00,5.781250000000003331e-01,3.000000000000001776e+00,1.609375000000000888e+00,3.156250000000002220e+00,3.234375000000002665e+00,2.656250000000003331e-01,-2.234375000000001332e+00,-9.515625000000007105e+00,-1.050000000000000711e+01,-1.182812500000000711e+01,-1.010937500000000711e+01,-1.750000000000000444e+00,-6.249999999999963918e-02,4.406250000000002665e+00,2.875000000000001332e+00,-2.921875000000001776e+00,-6.640625000000004441e+00,-1.117187500000000711e+01,-7.140625000000003553e+00,-2.625000000000001332e+00,3.968750000000003553e+00,9.234375000000007105e+00,6.671875000000005329e+00,2.890625000000002220e+00,-2.515625000000001332e+00,-8.312500000000005329e+00,-9.250000000000007105e+00,-4.531250000000003553e+00,-5.312500000000004441e-01,8.093750000000005329e+00,1.328125000000000888e+01,1.196875000000000888e+01,1.339062500000001066e+01,7.828125000000005329e+00,5.718750000000003553e+00,4.531250000000002665e+00,-3.062500000000001776e+00,-5.718750000000002665e+00,-1.079687500000000711e+01,-1.282812500000000711e+01,-7.468750000000004441e+00,-5.156250000000003553e+00,-3.312500000000001776e+00,-1.968750000000001332e+00,-5.203125000000003553e+00,-4.937500000000003553e+00,-1.109375000000000666e+00,-4.687500000000002220e-01,4.046875000000002665e+00,6.718750000000003553e+00,4.015625000000002665e+00,5.468750000000003553e+00,3.750000000000002665e+00,1.437500000000001110e+00,4.609375000000002665e+00,3.812500000000002220e+00,2.531250000000001776e+00,1.171875000000000444e+00,-3.734375000000002665e+00,-4.609375000000002665e+00,-2.578125000000001776e+00,1.562500000000004441e-01,5.000000000000003553e+00,5.203125000000003553e+00,3.765625000000002220e+00,1.984375000000000888e+00,-4.296875000000002665e+00,-5.484375000000003553e+00,-9.406250000000007105e+00,-1.220312500000000711e+01,-8.109375000000005329e+00,-8.281250000000005329e+00,-2.250000000000001332e+00,2.421875000000001776e+00,2.343750000000001776e+00,4.781250000000002665e+00,3.156250000000001776e+00,1.000000000000000444e+00,7.812500000000003331e-01,5.156250000000004441e-01,3.281250000000003886e-01,4.312500000000002665e+00,5.906250000000003553e+00,4.781250000000003553e+00,4.421875000000003553e+00,-2.812500000000001776e+00,-5.265625000000003553e+00,-4.031250000000002665e+00,-4.281250000000003553e+00,2.078125000000001776e+00,1.906250000000001776e+00,-9.687500000000003331e-01,5.000000000000005551e-01,-3.375000000000002665e+00,-1.015625000000001332e+00,3.218750000000001776e+00,1.812500000000000888e+00,5.265625000000003553e+00,3.109375000000001776e+00,5.312500000000006661e-01,1.734375000000001554e+00,-2.625000000000001776e+00,-6.562500000000004441e-01,-6.250000000000004441e-01,-2.437500000000001776e+00,2.265625000000001776e+00,2.500000000000004441e-01,-9.375000000000006661e-01,-1.328125000000000666e+00,-7.187500000000005329e+00,-6.781250000000004441e+00,-3.031250000000002220e+00,1.046875000000000222e+00,8.000000000000005329e+00,8.515625000000005329e+00,3.609375000000002665e+00,-8.593750000000000000e-01,-5.750000000000003553e+00,-4.812500000000003553e+00,1.171875000000001110e+00,4.203125000000002665e+00,5.328125000000003553e+00,4.718750000000003553e+00,3.593750000000002220e-01,-2.156250000000001332e+00,-1.296875000000000888e+00,-3.515625000000002665e+00,-3.125000000000002220e+00,-4.531250000000006661e-01,-1.406250000000001332e+00,-1.875000000000002220e-01,-1.390625000000000888e+00,-4.312500000000002665e+00,-4.718750000000003553e+00,-1.546875000000001554e+00,3.406250000000001776e+00,4.390625000000003553e+00,5.984375000000004441e+00,1.531250000000001776e+00,-4.046875000000001776e+00,-2.468750000000001776e+00,-3.671875000000001776e+00,-2.218750000000000888e+00,1.093750000000000000e-01,-2.046875000000001332e+00,-2.312500000000001776e+00,-1.484375000000000888e+00,-1.562500000000011102e-02,2.171875000000001332e+00,3.062500000000002220e+00,2.781250000000001776e+00,1.890625000000001332e+00,1.437500000000001332e+00,3.000000000000001776e+00,4.062500000000002665e+00,3.171875000000002220e+00,1.187500000000000666e+00,-8.750000000000005551e-01,-2.750000000000001776e+00,-2.906250000000001776e+00,4.375000000000002220e-01,-5.625000000000006661e-01,3.437500000000000000e-01,2.718750000000001776e+00,-1.718750000000000888e+00,6.250000000000000000e-02,-1.875000000000000000e-01,-4.484375000000002665e+00,-1.015625000000000666e+00,-3.406250000000001776e+00,-5.625000000000003553e+00,-1.921875000000001332e+00,-4.406250000000002665e+00,-3.281250000000000000e-01,3.437500000000002665e+00,5.937500000000005551e-01,2.843750000000001776e+00,-1.546875000000000888e+00,-4.000000000000002665e+00,-2.140625000000001332e+00,-5.187500000000003553e+00,-4.484375000000003553e+00,-4.484375000000003553e+00,-6.093750000000003553e+00,-2.953125000000001776e+00,1.406250000000004996e-01,2.656250000000002776e-01,2.390625000000000888e+00,1.375000000000000444e+00,-8.437500000000008882e-01,1.968750000000001776e+00,3.328125000000002665e+00,4.625000000000003553e+00,6.781250000000005329e+00,3.625000000000002665e+00,-8.750000000000002220e-01,-2.125000000000000888e+00,-5.203125000000003553e+00,-2.640625000000001776e+00,5.937499999999998890e-01,-8.437500000000009992e-01,1.796875000000000888e+00,1.062500000000000444e+00,3.468750000000002220e+00,7.828125000000005329e+00,8.078125000000005329e+00,6.437500000000003553e+00,-4.218750000000008882e-01,-3.890625000000002665e+00,-6.250000000000003553e+00,-4.750000000000002665e+00,1.296875000000000666e+00,1.125000000000000444e+00,2.703125000000000888e+00,3.078125000000001332e+00,1.000000000000000666e+00,2.828125000000001776e+00,1.625000000000001110e+00,-4.062500000000002220e-01,-1.562500000000001110e+00,-1.062500000000000888e+00,1.640625000000000888e+00,5.156250000000003553e+00,7.203125000000005329e+00,3.984375000000003553e+00,1.296875000000001332e+00,-2.046875000000001332e+00,-2.359375000000001332e+00,1.421875000000000888e+00,2.359375000000001776e+00,3.562500000000002220e+00,1.234375000000000666e+00,-3.062500000000001776e+00,-5.593750000000003553e+00,-7.656250000000005329e+00,-8.125000000000005329e+00,-7.781250000000005329e+00,-5.015625000000003553e+00,-2.718750000000001776e+00,1.453125000000000444e+00,8.218750000000003553e+00,9.906250000000005329e+00,1.114062500000000711e+01,9.515625000000005329e+00,2.078125000000000888e+00,-7.968750000000003331e-01,-2.125000000000000888e+00,-2.625000000000001332e+00,5.000000000000004441e-01,1.546875000000001110e+00,-3.125000000000022204e-02,-1.500000000000000888e+00,-1.875000000000001332e+00,-4.687500000000003553e+00,-3.093750000000001776e+00,2.656250000000002776e-01,1.406250000000001110e+00,9.687500000000005329e+00,1.192187500000000711e+01,1.062500000000000711e+01,9.937500000000007105e+00,6.718750000000008882e-01,-3.484375000000002220e+00,-3.859375000000002220e+00,-5.265625000000003553e+00,-9.218750000000008882e-01,1.515625000000000666e+00,-1.312500000000001776e+00,-2.328125000000002665e+00,-5.703125000000003553e+00,-1.092187500000000711e+01,-8.671875000000005329e+00,-5.656250000000003553e+00,-2.109375000000000888e+00,6.328125000000004441e+00,7.546875000000005329e+00,2.531250000000001332e+00,-2.593750000000002220e+00,-1.526562500000001066e+01,-2.568750000000001776e+01,-2.546875000000001776e+01,-2.270312500000001421e+01,-9.953125000000005329e+00,8.421875000000003553e+00,1.735937500000001066e+01,2.128125000000001421e+01,1.657812500000001066e+01,5.609375000000003553e+00,1.453125000000001110e+00,3.421875000000001776e+00,1.150000000000000711e+01,2.025000000000001066e+01,2.268750000000001421e+01,1.781250000000001066e+01,7.171875000000005329e+00,-4.609375000000001776e+00,-1.326562500000000711e+01,-1.629687500000001066e+01,-1.685937500000001066e+01,-1.321875000000000711e+01,-7.796875000000005329e+00,-4.781250000000003553e+00,-6.406250000000002220e-01,2.000000000000001332e+00,1.593750000000001110e+00,4.109375000000002665e+00,7.375000000000005329e+00,6.437500000000003553e+00,6.421875000000003553e+00,1.406250000000001332e+00,-7.359375000000005329e+00,-7.921875000000005329e+00,-9.125000000000007105e+00,-7.984375000000007105e+00,-2.625000000000002220e+00,-5.218750000000003553e+00,-6.140625000000003553e+00,-4.406250000000001776e+00,-7.656250000000003553e+00,-8.468750000000005329e+00,-8.671875000000005329e+00,-1.209375000000000711e+01,-9.312500000000005329e+00,-4.875000000000002665e+00,-1.890625000000001110e+00,-2.656250000000011102e-01,-4.375000000000003553e+00,-7.093750000000006217e+00,-1.506250000000000888e+01,-1.717187500000000711e+01,-1.598437500000000711e+01,-1.789062500000000711e+01,-5.718750000000003553e+00,4.140625000000002665e+00,1.696875000000001066e+01,3.132812500000001776e+01,3.312500000000002132e+01,3.151562500000002132e+01,2.323437500000001421e+01,1.317187500000000711e+01,6.562500000000003553e+00,2.109375000000001776e+00,5.781250000000004441e-01,1.875000000000001665e-01,1.562500000000001388e-01,1.406250000000001110e-01,2.500000000000001665e-01,3.125000000000002220e-01,3.593750000000002220e-01,4.062500000000003331e-01,2.187500000000001943e-01,1.562500000000001735e-02,-1.718750000000001388e-01,-2.968750000000002220e-01,-2.187500000000001665e-01,-1.093750000000000971e-01,-6.938893903907228378e-18,-6.938893903907228378e-18,-4.687500000000004163e-02,-7.812500000000005551e-02,-1.093750000000000833e-01,-4.687500000000002776e-02,-3.125000000000001388e-02,1.562500000000002082e-02,4.687500000000003469e-02,4.687500000000002776e-02,1.093750000000000833e-01,1.562500000000000694e-02,-1.562500000000000694e-02,-1.562500000000000694e-02,-6.250000000000004163e-02,1.406250000000000833e-01,2.343750000000001388e-01,2.500000000000001110e-01,2.812500000000001665e-01,1.387778780781445676e-17,-1.562500000000001110e-01,-2.500000000000001665e-01,-3.281250000000002220e-01,-9.375000000000005551e-02,3.125000000000003469e-02,1.562500000000001110e-01,2.187500000000001665e-01,9.375000000000005551e-02,1.562500000000001041e-02,-1.093750000000000833e-01,-1.718750000000001110e-01,-1.875000000000001388e-01,-1.718750000000001110e-01,-1.250000000000001110e-01,-1.387778780781445676e-17,1.250000000000000833e-01,2.031250000000001110e-01,3.125000000000002220e-01,1.718750000000001388e-01,1.562500000000001735e-02,-1.093750000000000694e-01,-2.812500000000002220e-01,-1.562500000000001110e-01,6.250000000000005551e-02,2.343750000000001665e-01,4.062500000000003331e-01,3.593750000000002776e-01,1.093750000000000833e-01,-9.375000000000004163e-02,-2.187500000000001110e-01,-2.656250000000001665e-01,-1.093750000000000694e-01,1.562500000000001041e-02,-6.938893903907229918e-18,0.000000000000000000e+00,-9.375000000000008327e-02,-1.250000000000001110e-01,-4.687500000000004163e-02,-6.938893903907228378e-18,6.250000000000004163e-02,4.687500000000003469e-02,1.562500000000001041e-02,4.687500000000004163e-02,7.812500000000006939e-02,1.406250000000001110e-01,1.718750000000001665e-01,1.875000000000001665e-01,3.281250000000002776e-01,1.296875000000000888e+00,3.484375000000001776e+00,7.218750000000003553e+00,1.132812500000000711e+01,1.298437500000001066e+01,1.125000000000000711e+01,5.281250000000003553e+00,-7.812499999999966693e-02,-3.281249999999997224e-01,3.421875000000003997e+00,1.084375000000000888e+01,1.387500000000001066e+01,8.062500000000007105e+00,3.124999999999991118e-01,-7.437500000000006217e+00,-1.134375000000000711e+01,-5.375000000000002665e+00,7.812499999999956979e-02,2.031250000000001332e+00,3.921875000000002220e+00,-7.187500000000000000e-01,-4.843750000000001776e+00,-2.765625000000000888e+00,4.406250000000002665e+00,1.225000000000000711e+01,1.821875000000000711e+01,1.665625000000000711e+01,-1.265625000000000888e+00,-1.362500000000000888e+01,-1.829687500000001066e+01,-1.818750000000001066e+01,1.031250000000000000e+00,9.640625000000007105e+00,4.562500000000002665e+00,-3.437500000000000000e-01,-1.428125000000000888e+01,-1.573437500000001066e+01,-1.203125000000000888e+00,1.357812500000000711e+01,2.326562500000001421e+01,2.403125000000001776e+01,9.375000000000005329e+00,-1.221875000000000533e+01,-2.307812500000001421e+01,-3.159375000000002132e+01,-2.646875000000001421e+01,-1.065625000000000711e+01,-1.203125000000001554e+00,9.875000000000007105e+00,1.268750000000000711e+01,9.921875000000005329e+00,7.218750000000004441e+00,3.562500000000002665e+00,5.000000000000002220e-01,-4.531250000000003553e+00,-3.578125000000003109e+00,-3.984375000000003109e+00,-6.406250000000008882e-01,5.781250000000003553e+00,1.312500000000000666e+00,-6.875000000000009992e-01,-7.171875000000005329e+00,-1.337500000000001066e+01,-8.484375000000005329e+00,-5.921875000000003553e+00,-3.906250000000008882e-01,4.234375000000002665e+00,2.078125000000001776e+00,1.140625000000000666e+00,-2.656250000000002220e-01,-2.671875000000001776e+00,-3.296875000000002220e+00,-3.796875000000002220e+00,-4.546875000000002665e+00,-3.687500000000002220e+00,-2.234375000000001776e+00,-1.093750000000000888e+00,-4.687500000000005551e-02,2.656250000000001665e-01,1.250000000000000833e-01,-4.687500000000004163e-02,-1.562500000000001110e-01,-2.187500000000001665e-01,-2.343750000000001665e-01,-2.031250000000001665e-01,-1.875000000000001388e-01,-4.687500000000003469e-02,6.250000000000004163e-02,1.562500000000001110e-01,-6.250000000000005551e-02,-7.031250000000004441e-01,-1.390625000000000888e+00,-2.078125000000001332e+00,-1.593750000000000888e+00,-3.437500000000002220e-01,8.125000000000005551e-01,6.406250000000004441e-01,-1.437500000000001110e+00,-4.562500000000003553e+00,-8.250000000000005329e+00,-7.390625000000005329e+00,-4.640625000000003553e+00,-6.093750000000006661e-01,4.687500000000003553e+00,2.562500000000001776e+00,-1.500000000000001332e+00,-6.843750000000005329e+00,-1.076562500000000711e+01,-6.328125000000004441e+00,7.812500000000066613e-02,9.000000000000007105e+00,1.385937500000001066e+01,1.312500000000001066e+01,1.162500000000000711e+01,4.375000000000002665e+00,-7.343750000000002220e-01,-5.687500000000002665e+00,-1.192187500000000711e+01,-1.048437500000000711e+01,-9.062500000000005329e+00,-5.515625000000002665e+00,2.328125000000001776e+00,5.609375000000003553e+00,1.135937500000000711e+01,1.650000000000001066e+01,1.339062500000000711e+01,8.671875000000003553e+00,-4.328125000000003553e+00,-1.817187500000001066e+01,-2.239062500000001421e+01,-2.459375000000001421e+01,-1.528125000000000888e+01,-4.734375000000003553e+00,5.312500000000004441e-01,1.337500000000000711e+01,1.804687500000001066e+01,2.129687500000001776e+01,2.473437500000001776e+01,1.203125000000000888e+01,1.578125000000001332e+00,-6.531250000000005329e+00,-1.665625000000001066e+01,-1.353125000000000711e+01,-8.828125000000007105e+00,-6.609375000000004441e+00,3.578125000000001776e+00,9.156250000000005329e+00,1.068750000000000711e+01,1.356250000000000888e+01,6.765625000000004441e+00,-2.375000000000001332e+00,-6.921875000000003553e+00,-1.403125000000000711e+01,-1.557812500000001066e+01,-1.060937500000000711e+01,-6.812500000000004441e+00,6.875000000000004441e-01,7.828125000000005329e+00,8.062500000000005329e+00,5.406250000000003553e+00,3.015625000000001776e+00,-2.500000000000002220e+00,-4.062500000000002665e+00,-1.937500000000001332e+00,-2.687500000000001776e+00,1.765625000000001110e+00,7.750000000000004441e+00,1.128125000000000711e+01,1.453125000000000888e+01,1.212500000000000711e+01,1.968750000000001332e+00,-6.296875000000003553e+00,-1.301562500000000711e+01,-1.492187500000000888e+01,-6.953125000000004441e+00,-9.062500000000011102e-01,4.968750000000002665e+00,7.437500000000004441e+00,3.421875000000002665e+00,-8.125000000000002220e-01,-2.875000000000001776e+00,-3.937500000000001776e+00,-4.031250000000001776e+00,-8.281250000000002220e-01,-2.265625000000001332e+00,-1.296875000000000666e+00,2.984375000000002220e+00,5.750000000000003553e+00,1.107812500000000711e+01,1.145312500000000711e+01,6.921875000000003553e+00,-2.328125000000001332e+00,-9.750000000000007105e+00,-1.348437500000000888e+01,-1.192187500000000711e+01,-1.406250000000000444e+00,4.812500000000003553e+00,1.306250000000000888e+01,1.329687500000000888e+01,3.906250000000002665e+00,-1.562500000000000222e+00,-1.375000000000000888e+01,-1.525000000000001066e+01,-7.593750000000005329e+00,-2.437500000000002665e+00,7.406250000000005329e+00,1.125000000000000711e+01,7.953125000000005329e+00,7.281250000000005329e+00,8.343750000000005329e+00,6.281250000000004441e+00,8.281250000000007105e+00,5.296875000000003553e+00,-4.343750000000003553e+00,-8.156250000000007105e+00,-1.523437500000000888e+01,-1.673437500000001066e+01,-1.042187500000000711e+01,-4.781250000000002665e+00,4.875000000000002665e+00,1.276562500000000711e+01,1.253125000000000711e+01,7.625000000000003553e+00,-1.390625000000001776e+00,-1.201562500000000888e+01,-1.401562500000001066e+01,-1.051562500000000711e+01,-2.578125000000001332e+00,5.468750000000003553e+00,6.515625000000005329e+00,3.531250000000003553e+00,-2.734375000000000888e+00,-4.812500000000002665e+00,-2.812499999999995559e-01,7.718750000000006217e+00,1.381250000000001066e+01,1.184375000000000888e+01,-2.078125000000000000e+00,-2.145312500000001421e+01,-3.581250000000002132e+01,-4.053125000000002842e+01,-2.728125000000001776e+01,-4.687500000000003553e+00
1.637500000000000711e+01,3.200000000000001421e+01,2.487500000000001066e+01,6.875000000000000000e-01,-1.506250000000000711e+01,-3.812500000000001776e+00,3.750000000000001332e+00,-1.312500000000000666e+00,1.400000000000000711e+01,9.625000000000003553e+00,-1.937500000000000711e+01,-4.250000000000000000e+00,1.350000000000000711e+01,-3.937500000000002220e+00,-4.437500000000001776e+00,9.312500000000003553e+00,2.812500000000000888e+00,-1.875000000000000711e+01,-1.718750000000000711e+01,1.243750000000000711e+01,2.318750000000001066e+01,1.050000000000000533e+01,-5.312500000000001776e+00,-1.706250000000000711e+01,-1.225000000000000711e+01,-3.875000000000001332e+00,1.562500000000000888e+00,2.193750000000000711e+01,2.812500000000001066e+01,-6.000000000000003553e+00,-2.706250000000001066e+01,-1.250000000000000355e+01,3.750000000000001332e+00,1.012500000000000355e+01,6.187500000000003553e+00,1.812500000000000888e+00,-3.875000000000002665e+00,-9.250000000000003553e+00,-2.687500000000000888e+00,-3.750000000000000888e+00,-5.000000000000001776e+00,8.250000000000003553e+00,9.437500000000003553e+00,-1.000000000000000666e+00,-3.000000000000001776e+00,-4.937500000000001776e+00,-1.125000000000000355e+01,-1.874999999999991118e-01,1.731250000000000711e+01,2.562500000000000000e+00,-1.381250000000000533e+01,5.125000000000001776e+00,1.381250000000000533e+01,-9.375000000000000000e-01,-8.125000000000000000e-01,8.250000000000003553e+00,1.437500000000000888e+00,-1.975000000000000711e+01,-2.043750000000000711e+01,1.400000000000000533e+01,2.950000000000001421e+01,-2.625000000000001776e+00,-2.700000000000001421e+01,-3.937500000000003553e+00,2.131250000000000711e+01,1.875000000000001776e+00,-2.081250000000000711e+01,4.625000000000001776e+00,3.112500000000001421e+01,7.875000000000003553e+00,-1.412500000000000711e+01,-7.187500000000002665e+00,-8.750000000000003553e+00,-1.006250000000000355e+01,-4.187500000000001776e+00,5.000000000000000000e-01,1.400000000000000711e+01,1.081250000000000533e+01,-8.062500000000003553e+00,-1.406250000000000711e+01,-9.812500000000003553e+00,2.937500000000000888e+00,6.250000000000002665e+00,-2.625000000000000888e+00,-7.250000000000002665e+00,-9.562500000000003553e+00,9.375000000000008882e-01,1.368750000000000711e+01,1.050000000000000533e+01,4.062500000000001776e+00,-1.500000000000000888e+00,-6.375000000000003553e+00,1.500000000000000000e+00,1.612500000000000711e+01,1.087500000000000355e+01,2.812500000000000444e+00,8.437500000000001776e+00,-4.937500000000001776e+00,-1.462500000000000533e+01,-2.187500000000000888e+00,-9.687500000000003553e+00,-1.593750000000000533e+01,-5.812500000000002665e+00,-6.312500000000003553e+00,5.750000000000002665e+00,1.506250000000000711e+01,-3.437500000000000888e+00,1.687500000000000000e+00,1.725000000000000711e+01,-2.312500000000000000e+00,-1.100000000000000355e+01,7.500000000000000000e-01,3.312500000000001776e+00,2.893750000000001421e+01,5.193750000000002842e+01,2.437500000000003553e+00,-5.962500000000002842e+01,-4.281250000000001421e+01,1.168750000000000533e+01,2.206250000000000711e+01,-1.312500000000001776e+00,-1.250000000000008882e-01,1.212500000000000533e+01,-4.187500000000000888e+00,-1.737500000000000711e+01,-7.375000000000003553e+00,-1.250000000000000555e-01,0.000000000000000000e+00,1.250000000000000555e-01,6.250000000000002776e-02,0.000000000000000000e+00,0.000000000000000000e+00,0.000000000000000000e+00,0.000000000000000000e+00,0.000000000000000000e+00,6.250000000000002776e-02,6.250000000000002776e-02,-1.875000000000001110e-01,-1.875000000000001110e-01,1.875000000000001110e-01,1.875000000000001110e-01,-6.250000000000002776e-02,-6.250000000000002776e-02,0.000000000000000000e+00,-6.250000000000002776e-02,-1.250000000000000555e-01,0.000000000000000000e+00,1.250000000000000555e-01,0.000000000000000000e+00,-6.250000000000002776e-02,2.500000000000001110e-01,3.125000000000001110e-01,-1.250000000000000833e-01,-1.875000000000001110e-01,0.000000000000000000e+00,-6.250000000000002776e-02,-1.875000000000000833e-01,-2.500000000000001110e-01,6.250000000000005551e-02,3.750000000000002220e-01,1.250000000000000833e-01,-1.875000000000000833e-01,-1.875000000000000833e-01,6.250000000000002776e-02,2.500000000000001110e-01,6.250000000000002776e-02,-6.250000000000002776e-02,6.250000000000002776e-02,-6.250000000000002776e-02,-2.500000000000001110e-01,-1.875000000000000833e-01,-1.875000000000001110e-01,-2.775557561562891351e-17,3.750000000000001665e-01,3.750000000000001665e-01,2.500000000000001110e-01,2.775557561562891351e-17,-3.750000000000001665e-01,-2.500000000000001110e-01,6.250000000000002776e-02,6.250000000000002776e-02,0.000000000000000000e+00,0.000000000000000000e+00,0.000000000000000000e+00,0.000000000000000000e+00,0.000000000000000000e+00,-6.250000000000002776e-02,-6.250000000000002776e-02,1.250000000000000555e-01,-1.000000000000000444e+00,-7.812500000000003553e+00,-1.456250000000000711e+01,-7.937500000000003553e+00,2.687500000000000444e+00,4.000000000000001776e+00,1.625000000000002220e+00,-4.812500000000000888e+00,-1.137500000000000711e+01,3.499999999999999112e+00,2.168750000000001066e+01,-5.000000000000000000e-01,-2.356250000000001066e+01,4.812500000000003553e+00,2.793750000000001421e+01,4.562500000000001776e+00,-9.625000000000003553e+00,2.187500000000000888e+00,-2.187500000000001776e+00,-2.343750000000001066e+01,-2.287500000000001066e+01,9.937500000000003553e+00,2.718750000000001421e+01,1.156250000000000533e+01,1.000000000000000222e+00,-5.000000000000002665e+00,-5.687500000000002665e+00,5.687500000000002665e+00,-3.000000000000000888e+00,-1.393750000000000711e+01,2.125000000000000888e+00,1.562500000000000711e+01,1.612500000000000711e+01,8.375000000000003553e+00,-1.143750000000000533e+01,-1.825000000000000711e+01,3.937500000000001776e+00,1.381250000000000711e+01,-1.018750000000000533e+01,-1.975000000000001066e+01,-4.312500000000003553e+00,-1.312500000000000444e+00,-2.750000000000000888e+00,-3.687500000000002665e+00,-1.168750000000000711e+01,1.000000000000001776e+00,2.368750000000001421e+01,2.037500000000000711e+01,5.937500000000001776e+00,8.750000000000003331e-01,3.750000000000001110e-01,1.250000000000000555e-01,1.250000000000000555e-01,1.875000000000001110e-01,5.625000000000003331e-01,6.250000000000003331e-01,0.000000000000000000e+00,-6.250000000000008327e-02,-3.125000000000002220e-01,-1.687500000000000888e+00,-1.562500000000000888e+00,3.750000000000001665e-01,1.125000000000000444e+00,5.000000000000002220e-01,6.250000000000002776e-02,-6.250000000000002776e-02,-1.250000000000000555e-01,6.250000000000002776e-02,1.875000000000000833e-01,-1.250000000000000833e-01,-1.875000000000001110e-01,1.875000000000001110e-01,1.250000000000000833e-01,-6.250000000000002776e-02,3.125000000000001110e-01,4.375000000000002220e-01,-6.250000000000002776e-02,-3.125000000000002220e-01,6.250000000000002776e-02,7.500000000000003331e-01,9.375000000000004441e-01,2.312500000000000888e+00,6.812500000000002665e+00,4.125000000000001776e+00,-5.437500000000001776e+00,-4.562500000000001776e+00,-4.375000000000001776e+00,-9.625000000000003553e+00,-1.375000000000000888e+00,1.093750000000000533e+01,1.393750000000000711e+01,6.875000000000000000e-01,-1.712500000000000711e+01,-9.187500000000003553e+00,2.500000000000000888e+00,1.750000000000000444e+00,8.750000000000003553e+00,3.750000000000001776e+00,-1.012500000000000533e+01,-1.937500000000001776e+00,5.937500000000002665e+00,6.250000000000006661e-01,6.500000000000003553e+00,1.443750000000000711e+01,5.125000000000001776e+00,-6.000000000000003553e+00,-8.937500000000003553e+00,-7.437500000000003553e+00,-2.437500000000001332e+00,0.000000000000000000e+00,-3.062500000000000888e+00,-5.687500000000001776e+00,3.312500000000002665e+00,1.562500000000000711e+01,7.937500000000002665e+00,-2.937500000000001776e+00,1.499999999999999778e+00,-7.500000000000004441e-01,-7.750000000000003553e+00,-5.812500000000002665e+00,-5.625000000000004441e-01,2.500000000000000000e-01,-7.687500000000003553e+00,-5.375000000000003553e+00,8.375000000000003553e+00,8.937500000000003553e+00,-1.750000000000000888e+00,-5.000000000000001776e+00,1.812500000000001332e+00,-9.375000000000000000e-01,-1.112500000000000533e+01,-5.250000000000002665e+00,1.100000000000000533e+01,1.387500000000000533e+01,-1.062500000000000000e+00,-1.006250000000000355e+01,-7.500000000000003553e+00,-8.812500000000003553e+00,3.750000000000000888e+00,2.537500000000001066e+01,1.156250000000000533e+01,-1.462500000000000533e+01,-8.375000000000003553e+00,5.062500000000002665e+00,9.062500000000003553e+00,7.312500000000003553e+00,-1.050000000000000711e+01,-1.512500000000000888e+01,1.187500000000000533e+01,2.300000000000001066e+01,-5.937500000000003553e+00,-2.293750000000001066e+01,-1.625000000000000000e+00,8.000000000000003553e+00,-3.812500000000001776e+00,-9.312500000000003553e+00,-5.125000000000001776e+00,1.068750000000000533e+01,1.537500000000000711e+01,-2.937500000000001776e+00,-1.412500000000000711e+01,-5.500000000000002665e+00,6.250000000000000000e-02,-5.500000000000002665e+00,1.562500000000000888e+00,1.137500000000000533e+01,5.937500000000002665e+00,1.937500000000000888e+00,-3.375000000000000888e+00,-1.156250000000000533e+01,-1.750000000000001776e+00,6.187500000000002665e+00,-8.125000000000003553e+00,-7.750000000000002665e+00,1.356250000000000711e+01,2.006250000000000711e+01,2.750000000000001776e+00,-1.456250000000000533e+01,-5.000000000000001776e+00,1.056250000000000533e+01,1.093750000000000533e+01,3.937500000000001776e+00,-1.543750000000000711e+01,-2.281250000000001066e+01,1.125000000000000000e+00,1.706250000000000711e+01,6.187500000000002665e+00,-9.000000000000003553e+00,-1.056250000000000533e+01,3.125000000000000000e-01,2.812500000000000888e+00,-5.625000000000005551e-01,5.437500000000002665e+00,-4.374999999999991118e-01,-7.000000000000001776e+00,1.100000000000000711e+01,1.087500000000000711e+01,-1.256250000000000711e+01,-1.000000000000000533e+01,8.437500000000003553e+00,1.231250000000000533e+01,3.812500000000000888e+00,-7.312500000000003553e+00,-1.137500000000000355e+01,-5.375000000000001776e+00,6.125000000000003553e+00,1.118750000000000533e+01,1.625000000000000000e+00,-5.875000000000003553e+00,-9.375000000000004441e-01,5.187500000000002665e+00,1.687500000000000888e+00,-9.812500000000003553e+00,-5.812500000000002665e+00,3.250000000000001776e+00,-6.687500000000002665e+00,-6.625000000000003553e+00,7.000000000000001776e+00,8.625000000000003553e+00,5.625000000000004441e-01,-6.937500000000003553e+00,-2.000000000000001332e+00,8.625000000000003553e+00,2.437500000000000888e+00,-8.125000000000003553e+00,-3.000000000000000888e+00,3.000000000000001776e+00,6.875000000000002665e+00,1.050000000000000355e+01,0.000000000000000000e+00,-1.250000000000000533e+01,-1.256250000000000533e+01,8.125000000000008882e-01,1.450000000000000711e+01,5.687500000000001776e+00,-5.625000000000002665e+00,-5.250000000000002665e+00,-5.937500000000003553e+00,3.750000000000001776e+00,8.187500000000003553e+00,-5.062500000000003553e+00,-2.625000000000001776e+00,9.000000000000003553e+00,3.625000000000001776e+00,-8.125000000000003553e+00,-4.500000000000002665e+00,7.437500000000003553e+00,6.875000000000008882e-01,-5.000000000000001776e+00,1.875000000000000888e+00,-3.750000000000001776e+00,2.499999999999991118e-01,1.362500000000000533e+01,-1.437500000000000000e+00,-1.843750000000000711e+01,-7.687500000000002665e+00,6.687500000000002665e+00,7.750000000000002665e+00,6.000000000000002665e+00,8.500000000000003553e+00,1.874999999999991118e-01,-1.631250000000000711e+01,-1.100000000000000355e+01,5.375000000000001776e+00,8.750000000000003553e+00,1.162500000000000533e+01,5.000000000000002665e+00,-1.731250000000000711e+01,-1.187500000000000711e+01,1.562500000000000711e+01,1.237500000000000711e+01,-9.062500000000003553e+00,-1.562500000000000711e+01,-5.062500000000002665e+00,1.668750000000000711e+01,1.693750000000000711e+01,-1.243750000000000711e+01,-2.237500000000001066e+01,-1.000000000000000000e+00,1.162500000000000533e+01,1.025000000000000355e+01,6.187500000000002665e+00,-8.125000000000003553e+00,-8.312500000000003553e+00,5.000000000000001776e+00,-4.062500000000001776e+00,-5.125000000000001776e+00,1.356250000000000533e+01,2.875000000000000000e+00,-1.750000000000000711e+01,-1.500000000000000000e+00,1.362500000000000533e+01,-3.937500000000001776e+00,-8.937500000000003553e+00,1.243750000000000711e+01,1.037500000000000711e+01,-1.431250000000000711e+01,-1.262500000000000711e+01,1.100000000000000533e+01,1.793750000000000711e+01,1.812500000000000888e+00,-1.656250000000000711e+01,-1.218750000000000355e+01,1.143750000000000711e+01,1.293750000000000711e+01,-9.000000000000005329e+00,-7.875000000000004441e+00,4.062500000000001776e+00,2.562500000000001332e+00,6.312500000000001776e+00,-1.187500000000001776e+00,-1.418750000000000711e+01,1.062500000000000000e+00,1.187500000000000533e+01,-2.500000000000000000e-01,-9.625000000000003553e+00,-7.250000000000002665e+00,4.062500000000000888e+00,4.937500000000001776e+00,5.000000000000003331e-01,6.062500000000001776e+00,-1.062500000000000888e+00,-1.087500000000000355e+01,-3.000000000000000888e+00,6.000000000000002665e+00,6.125000000000002665e+00,-3.937500000000001776e+00,-1.131250000000000355e+01,-3.562500000000001332e+00,3.625000000000000888e+00,6.812500000000003553e+00,7.500000000000003553e+00,-7.937500000000001776e+00,-1.206250000000000355e+01,1.012500000000000355e+01,9.625000000000003553e+00,-1.106250000000000355e+01,-3.125000000000000888e+00,1.631250000000000711e+01,8.812500000000003553e+00,-1.293750000000000711e+01,-1.581250000000000711e+01,2.500000000000001776e+00,9.750000000000003553e+00,4.937500000000001776e+00,2.937500000000001332e+00,-9.875000000000003553e+00,-1.343750000000000533e+01,9.437500000000005329e+00,2.012500000000001066e+01,3.500000000000001776e+00,-7.500000000000003553e+00,-4.750000000000002665e+00,-7.625000000000003553e+00,-4.125000000000001776e+00,6.750000000000002665e+00,6.000000000000001776e+00,3.625000000000001332e+00,-2.750000000000000888e+00,-1.181250000000000533e+01,7.500000000000000000e-01,1.693750000000000711e+01,5.937500000000001776e+00,-1.412500000000000533e+01,-1.193750000000000355e+01,5.000000000000002665e+00,1.025000000000000533e+01,2.562500000000000888e+00,1.875000000000000666e+00,5.875000000000002665e+00,-6.562500000000001776e+00,-1.593750000000000711e+01,1.875000000000000000e+00,1.843750000000000711e+01,5.937500000000003553e+00,-1.362500000000000711e+01,-4.937500000000003553e+00,1.118750000000000533e+01,-2.562500000000000000e+00,-1.587500000000000711e+01,2.000000000000000000e+00,1.006250000000000355e+01,-9.437500000000005329e+00,-8.625000000000003553e+00,9.812500000000003553e+00,6.375000000000003553e+00,1.062500000000000888e+00,7.687500000000003553e+00,5.500000000000001776e+00,-4.937500000000001776e+00,-1.362500000000000533e+01,-5.187500000000001776e+00,1.575000000000000888e+01,1.006250000000000711e+01,-1.281250000000000711e+01,-7.562500000000004441e+00,7.750000000000003553e+00,1.750000000000001332e+00,-3.625000000000001776e+00,-2.687500000000001332e+00,-4.000000000000001776e+00,1.687500000000000888e+00,7.187500000000003553e+00,1.100000000000000533e+01,7.625000000000003553e+00,-6.375000000000003553e+00,-6.312500000000003553e+00,-2.062500000000000888e+00,-5.500000000000002665e+00,3.500000000000000888e+00,8.250000000000003553e+00,-2.562500000000000000e+00,-3.437500000000000000e+00,1.875000000000003331e-01,-1.375000000000000888e+00,-2.562500000000001776e+00,-1.068750000000000355e+01,-6.937500000000002665e+00,1.281250000000000711e+01,1.025000000000000533e+01,-8.125000000000002220e-01,2.250000000000000888e+00,-4.187500000000002665e+00,-1.000000000000000533e+01,-8.812500000000003553e+00,-1.793750000000001066e+01,-1.025000000000000533e+01,9.750000000000005329e+00,9.562500000000005329e+00,1.556250000000000711e+01,2.287500000000001421e+01,-5.312500000000001776e+00,-2.962500000000001421e+01,-8.062500000000003553e+00,1.956250000000001066e+01,1.456250000000000711e+01,4.250000000000001776e+00,9.500000000000005329e+00,7.250000000000003553e+00,-6.812500000000003553e+00,-1.237500000000000711e+01,-8.687500000000003553e+00,-1.875000000000001332e+00,4.625000000000001776e+00,-4.562500000000001776e+00,-1.381250000000000711e+01,4.312500000000000000e+00,1.618750000000000711e+01,-1.187500000000000888e+00,-1.081250000000000533e+01,-3.562500000000001776e+00,4.750000000000002665e+00,1.506250000000000711e+01,1.137500000000000355e+01,-8.937500000000003553e+00,-2.118750000000000711e+01,-1.350000000000000711e+01,1.393750000000000711e+01,2.150000000000001066e+01,-1.056250000000000355e+01,-2.081250000000001066e+01,6.250000000000000000e-02,6.687500000000003553e+00,7.687500000000003553e+00,1.062500000000000000e+00,-2.043750000000001066e+01,-1.325000000000000533e+01,1.206250000000000711e+01,6.000000000000003553e+00,-4.812500000000002665e+00,7.312500000000002665e+00,1.437500000000000888e+00,-2.087500000000001066e+01,-5.750000000000003553e+00,1.137500000000000711e+01,-6.812500000000002665e+00,-1.575000000000000711e+01,-7.875000000000003553e+00,7.000000000000003553e+00,2.237500000000001066e+01,1.900000000000001066e+01,7.312500000000003553e+00,1.500000000000000888e+00,1.250000000000000833e-01,2.500000000000001665e-01,6.250000000000005551e-02,-6.250000000000002776e-02,6.250000000000002776e-02,0.000000000000000000e+00,0.000000000000000000e+00,1.875000000000000833e-01,0.000000000000000000e+00,-1.250000000000000555e-01,2.500000000000001110e-01,4.375000000000002220e-01,1.875000000000001110e-01,-3.125000000000001665e-01,-6.250000000000003331e-01,-1.875000000000001110e-01,4.375000000000002220e-01,3.125000000000001665e-01,-1.875000000000001110e-01,-1.875000000000001110e-01,0.000000000000000000e+00,-6.250000000000002776e-02,0.000000000000000000e+00,1.250000000000000555e-01,0.000000000000000000e+00,-1.250000000000000555e-01,0.000000000000000000e+00,6.250000000000002776e-02,6.250000000000002776e-02,2.500000000000001110e-01,-6.250000000000000000e-02,-5.625000000000002220e-01,-6.250000000000005551e-02,5.625000000000002220e-01,3.125000000000001665e-01,-1.875000000000001110e-01,-1.250000000000000833e-01,3.125000000000001110e-01,-6.250000000000005551e-02,-6.875000000000004441e-01,-1.875000000000001110e-01,4.375000000000002220e-01,3.125000000000001110e-01,0.000000000000000000e+00,-1.250000000000000555e-01,-6.250000000000002776e-02,6.250000000000002776e-02,6.250000000000002776e-02,-1.875000000000001110e-01,-2.500000000000001110e-01,1.250000000000000833e-01,1.875000000000001110e-01,-2.500000000000001110e-01,-1.250000000000000555e-01,4.375000000000002220e-01,3.125000000000001665e-01,-6.250000000000002776e-02,-1.875000000000000833e-01,-2.500000000000001110e-01,-1.250000000000000555e-01,-6.250000000000002776e-02,6.250000000000002776e-02,4.375000000000002220e-01,3.125000000000001665e-01,-6.250000000000004163e-02,-1.387778780781445676e-17,-2.500000000000001110e-01,-5.625000000000002220e-01,1.250000000000001110e-01,5.625000000000003331e-01,-6.250000000000000000e-02,-2.500000000000001110e-01,1.250000000000000555e-01,-6.250000000000005551e-02,-3.750000000000002220e-01,6.250000000000000000e-02,5.000000000000002220e-01,6.250000000000000000e-02,-3.750000000000002220e-01,-1.250000000000000833e-01,1.250000000000000555e-01,1.250000000000000555e-01,1.875000000000000833e-01,1.250000000000000555e-01,-1.875000000000001110e-01,-2.500000000000001110e-01,1.875000000000000833e-01,6.250000000000003331e-01,8.125000000000004441e-01,3.562500000000001776e+00,1.012500000000000533e+01,1.175000000000000533e+01,-6.250000000000008882e-01,-1.868750000000001066e+01,-1.668750000000000711e+01,1.050000000000000533e+01,2.887500000000001421e+01,1.825000000000001066e+01,-9.312500000000003553e+00,-2.962500000000001421e+01,-1.312500000000000533e+01,1.793750000000000711e+01,1.081250000000000533e+01,-7.250000000000003553e+00,-1.500000000000000888e+00,1.250000000000000000e-01,3.250000000000000888e+00,9.000000000000003553e+00,-1.843750000000000711e+01,-2.856250000000001066e+01,3.006250000000001066e+01,5.593750000000002132e+01,-3.500000000000003553e+00,-3.950000000000001421e+01,-2.300000000000001066e+01,-5.750000000000003553e+00,6.125000000000002665e+00,1.031250000000000355e+01,2.425000000000000711e+01,2.256250000000000711e+01,-3.412500000000001421e+01,-5.106250000000002132e+01,7.750000000000003553e+00,3.200000000000001421e+01,1.350000000000000355e+01,1.487500000000000711e+01,6.937500000000004441e+00,-1.550000000000000711e+01,-1.256250000000000711e+01,-8.062500000000003553e+00,-1.562500000000000711e+01,-1.512500000000000711e+01,4.312500000000000888e+00,2.962500000000001421e+01,1.393750000000000888e+01,-2.262500000000000711e+01,-1.137500000000000533e+01,2.081250000000000711e+01,1.100000000000000711e+01,-1.118750000000000355e+01,-6.937500000000003553e+00,-5.000000000000001776e+00,-4.687500000000001776e+00,8.375000000000003553e+00,1.343750000000000711e+01,4.500000000000002665e+00,-1.143750000000000355e+01,-1.393750000000000533e+01,-3.937500000000001776e+00,-2.500000000000000888e+00,6.625000000000002665e+00,1.375000000000000533e+01,-4.500000000000001776e+00,-1.243750000000000533e+01,3.875000000000001776e+00,8.125000000000003553e+00,-2.750000000000000888e+00,-5.812500000000002665e+00,-1.937500000000000888e+00,-1.875000000000000833e-01,6.250000000000002776e-02,3.750000000000001665e-01,3.125000000000001110e-01,0.000000000000000000e+00,-6.250000000000002776e-02,-6.250000000000002776e-02,-1.250000000000000555e-01,0.000000000000000000e+00,6.250000000000002776e-02,-1.875000000000001110e-01,-1.875000000000001110e-01,1.250000000000000555e-01,0.000000000000000000e+00,-1.250000000000000555e-01,2.500000000000001110e-01,3.125000000000001110e-01,-6.250000000000002776e-02,-1.875000000000000833e-01,-1.312500000000000444e+00,-3.562500000000001332e+00,-9.375000000000004441e-01,5.937500000000001776e+00,5.250000000000001776e+00,-3.312500000000001332e+00,-6.812500000000003553e+00,-5.375000000000001776e+00,-4.937500000000001776e+00,2.937500000000000888e+00,7.562500000000002665e+00,-1.750000000000000888e+00,2.812500000000001776e+00,1.175000000000000711e+01,-1.131250000000000355e+01,-3.262500000000001421e+01,-2.937500000000001776e+00,3.668750000000001421e+01,1.775000000000000711e+01,-2.156250000000001066e+01,-1.062500000000000355e+01,2.087500000000001066e+01,1.450000000000000711e+01,-1.575000000000000711e+01,-1.581250000000000711e+01,4.812500000000001776e+00,-1.937500000000000888e+00,-9.437500000000003553e+00,7.562500000000002665e+00,9.062500000000003553e+00,-6.125000000000001776e+00,-5.187500000000001776e+00,1.200000000000000533e+01,2.175000000000000711e+01,5.875000000000000888e+00,-1.668750000000001066e+01,-2.500000000000001421e+01,-1.737500000000000711e+01,5.562500000000001776e+00,1.512500000000000711e+01,2.687500000000001332e+00,-9.625000000000005329e+00,-1.112500000000000533e+01,1.500000000000000533e+01,3.325000000000001421e+01,8.125000000000003553e+00,-1.037500000000000711e+01,-1.393750000000000711e+01,-1.725000000000000711e+01,4.750000000000003553e+00,1.568750000000000888e+01,-9.000000000000005329e+00,-1.762500000000001066e+01,1.000000000000000888e+00,2.043750000000001066e+01,1.850000000000000711e+01,-7.187500000000003553e+00,-1.212500000000000533e+01,3.687500000000001332e+00,-3.250000000000001776e+00,-8.687500000000003553e+00,1.250000000000000444e+00,-6.750000000000002665e+00,-1.162500000000000355e+01,9.250000000000003553e+00,2.168750000000000711e+01,7.312500000000002665e+00,-1.600000000000000711e+01,-1.775000000000000711e+01,1.137500000000000533e+01,1.850000000000000711e+01,-1.256250000000000711e+01,-1.600000000000000711e+01,8.062500000000003553e+00,8.937500000000003553e+00,2.875000000000000888e+00,1.106250000000000355e+01,1.000000000000000355e+01,-7.250000000000002665e+00,-1.881250000000000711e+01,-8.625000000000003553e+00,3.562500000000000888e+00,-3.750000000000008882e-01,3.687500000000002220e+00,1.150000000000000711e+01,1.312500000000000888e+00,-5.625000000000002665e+00,-2.937500000000001332e+00,-6.625000000000001776e+00,-7.500000000000000000e-01,1.137500000000000355e+01,1.874999999999991118e-01,-1.050000000000000533e+01,-1.937500000000000888e+00,2.562500000000000888e+00,3.500000000000000888e+00,8.687500000000003553e+00,9.562500000000003553e+00,3.500000000000001776e+00,-7.375000000000003553e+00,-2.006250000000001066e+01,-1.225000000000000711e+01,1.262500000000000355e+01,1.250000000000000355e+01,-6.750000000000003553e+00,-4.250000000000001776e+00,2.237500000000000711e+01,1.762500000000000711e+01,-2.718750000000001421e+01,-2.956250000000001421e+01,4.500000000000001776e+00,1.075000000000000355e+01,7.375000000000002665e+00,7.125000000000002665e+00,-5.000000000000000000e-01,-2.125000000000000888e+00,-3.437500000000001776e+00,-2.687500000000001332e+00,1.456250000000000711e+01,1.337500000000000711e+01,-9.625000000000003553e+00,-1.087500000000000355e+01,-1.500000000000000666e+00,-2.687500000000000888e+00,-8.437500000000003553e+00,-7.437500000000003553e+00,5.750000000000002665e+00,9.062500000000003553e+00,1.562500000000000888e+00,1.087500000000000355e+01,1.400000000000000533e+01,-1.437500000000000533e+01,-2.981250000000001421e+01,-6.062500000000003553e+00,1.768750000000000711e+01,9.875000000000003553e+00,-5.500000000000001776e+00,1.437500000000000888e+00,1.081250000000000533e+01,-4.500000000000002665e+00,-2.512500000000001421e+01,-9.937500000000003553e+00,2.900000000000001421e+01,3.187500000000001421e+01,-4.125000000000001776e+00,-2.043750000000000711e+01,-1.256250000000000533e+01,-1.787500000000000711e+01,-2.418750000000001421e+01,-9.250000000000005329e+00
4.750000000000000000e+00,1.775000000000000355e+01,5.000000000000000000e-01,9.750000000000003553e+00,-1.825000000000000355e+01,-2.500000000000000888e+00,1.975000000000000355e+01,-1.600000000000000355e+01,-1.125000000000000355e+01,5.925000000000001421e+01,-6.925000000000001421e+01,2.100000000000000711e+01,2.825000000000000355e+01,-3.825000000000000711e+01,2.275000000000000711e+01,-1.125000000000000355e+01,1.550000000000000355e+01,-1.000000000000000355e+01,-1.950000000000000355e+01,1.225000000000000355e+01,2.375000000000000355e+01,-3.075000000000000711e+01,4.375000000000001421e+01,-5.575000000000001421e+01,3.850000000000001421e+01,-3.200000000000000711e+01,2.725000000000000711e+01,-3.075000000000000711e+01,5.525000000000001421e+01,-2.575000000000000711e+01,-2.025000000000000355e+01,2.125000000000000355e+01,-2.400000000000000711e+01,2.525000000000000711e+01,-6.750000000000000888e+00,-9.250000000000001776e+00,2.525000000000000355e+01,-3.650000000000000711e+01,2.275000000000000711e+01,-7.500000000000008882e-01,-2.350000000000000355e+01,2.900000000000000711e+01,-1.475000000000000355e+01,1.275000000000000355e+01,-1.725000000000000355e+01,1.850000000000000355e+01,-1.875000000000000355e+01,5.000000000000000000e-01,8.750000000000001776e+00,1.775000000000000355e+01,-3.750000000000000711e+01,1.825000000000000355e+01,1.700000000000000355e+01,-2.475000000000000711e+01,1.675000000000000355e+01,-8.500000000000001776e+00,1.225000000000000355e+01,-7.250000000000002665e+00,-2.150000000000000355e+01,1.000000000000000178e+01,2.400000000000000711e+01,-6.750000000000001776e+00,-1.750000000000000355e+01,-6.000000000000001776e+00,2.400000000000000711e+01,1.000000000000001776e+00,-2.125000000000000711e+01,-3.500000000000001776e+00,3.025000000000000711e+01,2.500000000000000000e+00,-3.175000000000000711e+01,2.600000000000000711e+01,-1.025000000000000355e+01,-1.925000000000000355e+01,3.125000000000000711e+01,-3.475000000000000711e+01,2.200000000000000355e+01,1.675000000000000355e+01,-3.525000000000000711e+01,3.050000000000000711e+01,-3.175000000000000711e+01,1.200000000000000355e+01,1.650000000000000355e+01,-2.975000000000000711e+01,2.875000000000000711e+01,-2.500000000000000711e+01,1.000000000000000000e+00,2.250000000000000711e+01,-2.100000000000000355e+01,2.475000000000000711e+01,-2.200000000000000711e+01,1.725000000000000355e+01,-2.100000000000000711e+01,1.825000000000000355e+01,1.200000000000000355e+01,-2.625000000000000711e+01,2.450000000000000711e+01,4.500000000000000000e+00,-3.825000000000000711e+01,3.450000000000000711e+01,-9.500000000000001776e+00,-2.925000000000000711e+01,3.550000000000000711e+01,-2.675000000000000711e+01,-2.750000000000000000e+00,3.350000000000000711e+01,-2.300000000000000355e+01,-1.100000000000000355e+01,3.700000000000000711e+01,-1.675000000000000355e+01,-1.900000000000000355e+01,3.025000000000000711e+01,-2.100000000000000711e+01,-1.750000000000000000e+00,4.425000000000000711e+01,3.000000000000000000e+00,-4.175000000000000711e+01,-1.650000000000000355e+01,2.175000000000000355e+01,4.750000000000000888e+00,5.000000000000001776e+00,-3.075000000000000711e+01,4.700000000000001421e+01,-2.875000000000000711e+01,-5.000000000000001110e-01,5.000000000000001110e-01,-5.000000000000001110e-01,2.500000000000000555e-01,0.000000000000000000e+00,0.000000000000000000e+00,0.000000000000000000e+00,0.000000000000000000e+00,0.000000000000000000e+00,0.000000000000000000e+00,0.000000000000000000e+00,0.000000000000000000e+00,0.000000000000000000e+00,2.500000000000000555e-01,-7.500000000000002220e-01,7.500000000000002220e-01,-2.500000000000000555e-01,0.000000000000000000e+00,0.000000000000000000e+00,0.000000000000000000e+00,0.000000000000000000e+00,0.000000000000000000e+00,-2.500000000000000555e-01,5.000000000000001110e-01,-5.000000000000001110e-01,5.000000000000001110e-01,-7.500000000000002220e-01,1.250000000000000444e+00,-1.000000000000000222e+00,2.500000000000000555e-01,2.500000000000000555e-01,-5.000000000000001110e-01,5.000000000000001110e-01,-5.000000000000001110e-01,0.000000000000000000e+00,5.000000000000001110e-01,-2.500000000000000555e-01,0.000000000000000000e+00,0.000000000000000000e+00,-2.500000000000000555e-01,5.000000000000001110e-01,-2.500000000000000555e-01,0.000000000000000000e+00,0.000000000000000000e+00,2.500000000000000555e-01,-5.000000000000001110e-01,2.500000000000000555e-01,0.000000000000000000e+00,-5.000000000000001110e-01,7.500000000000002220e-01,-2.500000000000000555e-01,0.000000000000000000e+00,5.000000000000001110e-01,-7.500000000000002220e-01,2.500000000000000555e-01,0.000000000000000000e+00,0.000000000000000000e+00,0.000000000000000000e+00,0.000000000000000000e+00,0.000000000000000000e+00,0.000000000000000000e+00,0.000000000000000000e+00,0.000000000000000000e+00,0.000000000000000000e+00,-2.500000000000000555e-01,7.500000000000002220e-01,-1.000000000000000222e+00,-3.500000000000000888e+00,-1.400000000000000355e+01,2.200000000000000355e+01,-2.075000000000000355e+01,2.125000000000000355e+01,-1.850000000000000355e+01,1.400000000000000355e+01,-2.850000000000000711e+01,3.725000000000000711e+01,-1.500000000000000000e+00,-3.075000000000000711e+01,9.500000000000000000e+00,2.100000000000000711e+01,2.750000000000000000e+00,-3.250000000000000711e+01,3.825000000000000711e+01,-2.850000000000000711e+01,2.050000000000000711e+01,-4.025000000000000711e+01,2.000000000000000355e+01,1.650000000000000355e+01,-5.750000000000001776e+00,-7.000000000000001776e+00,2.275000000000000711e+01,-3.850000000000001421e+01,3.125000000000000711e+01,-7.500000000000008882e-01,-3.050000000000000711e+01,2.800000000000000711e+01,-1.300000000000000355e+01,1.525000000000000355e+01,-2.000000000000000000e+00,5.000000000000000888e+00,-2.250000000000000711e+01,7.000000000000001776e+00,1.600000000000000355e+01,-5.250000000000000888e+00,-2.525000000000000355e+01,2.075000000000000355e+01,-5.500000000000001776e+00,-1.350000000000000178e+01,2.400000000000000355e+01,-2.475000000000000355e+01,-2.500000000000000000e-01,2.025000000000000355e+01,-5.000000000000001110e-01,1.000000000000000222e+00,-2.500000000000000555e-01,5.000000000000001110e-01,-5.000000000000001110e-01,5.000000000000001110e-01,-2.500000000000000555e-01,0.000000000000000000e+00,7.500000000000002220e-01,-2.500000000000001110e-01,-7.500000000000002220e-01,1.500000000000000222e+00,-1.500000000000000222e+00,-1.000000000000000222e+00,1.000000000000000222e+00,2.500000000000000555e-01,0.000000000000000000e+00,0.000000000000000000e+00,0.000000000000000000e+00,0.000000000000000000e+00,-2.500000000000000555e-01,5.000000000000001110e-01,-2.500000000000000555e-01,-2.500000000000000555e-01,2.500000000000000555e-01,2.500000000000000555e-01,-5.000000000000001110e-01,2.500000000000000555e-01,5.000000000000001110e-01,-5.000000000000001110e-01,2.500000000000000555e-01,-5.000000000000001110e-01,7.500000000000002220e-01,-2.500000000000000555e-01,1.250000000000000444e+00,-2.250000000000000888e+00,1.100000000000000178e+01,-8.000000000000001776e+00,-9.750000000000001776e+00,2.350000000000000711e+01,-3.275000000000000711e+01,1.950000000000000355e+01,-4.250000000000000888e+00,2.000000000000000444e+00,1.600000000000000355e+01,-2.275000000000000711e+01,-6.000000000000001776e+00,2.600000000000000711e+01,-2.975000000000000711e+01,1.975000000000000355e+01,8.500000000000003553e+00,-2.450000000000000711e+01,1.275000000000000355e+01,1.750000000000000444e+00,-1.750000000000000444e+00,-6.250000000000000888e+00,1.825000000000000355e+01,-4.250000000000001776e+00,-8.000000000000001776e+00,1.125000000000000178e+01,-2.225000000000000355e+01,2.200000000000000355e+01,-2.125000000000000355e+01,2.100000000000000355e+01,-2.225000000000000355e+01,1.375000000000000178e+01,-7.000000000000001776e+00,2.675000000000000355e+01,-3.525000000000000711e+01,2.650000000000000711e+01,-6.250000000000001776e+00,-1.375000000000000355e+01,1.875000000000000711e+01,-2.500000000000000711e+01,2.550000000000000711e+01,-1.550000000000000355e+01,-8.750000000000001776e+00,2.025000000000000355e+01,-1.350000000000000355e+01,1.650000000000000355e+01,-2.150000000000000355e+01,1.375000000000000355e+01,1.500000000000000000e+00,-1.175000000000000355e+01,7.500000000000008882e-01,3.250000000000000444e+00,7.000000000000001776e+00,5.250000000000000888e+00,-2.125000000000000355e+01,1.800000000000000355e+01,-1.275000000000000355e+01,-7.250000000000001776e+00,1.950000000000000711e+01,1.350000000000000178e+01,-2.775000000000000711e+01,5.500000000000001776e+00,1.250000000000000178e+01,-1.900000000000000355e+01,2.700000000000000711e+01,-1.325000000000000355e+01,-1.625000000000000355e+01,1.350000000000000178e+01,9.000000000000001776e+00,8.750000000000001776e+00,-3.475000000000000711e+01,1.325000000000000355e+01,1.975000000000000355e+01,-3.475000000000000711e+01,3.425000000000000711e+01,-3.600000000000000711e+01,2.050000000000000355e+01,1.125000000000000355e+01,-1.550000000000000355e+01,1.000000000000000178e+01,-2.425000000000000711e+01,3.125000000000000711e+01,-2.600000000000000711e+01,3.750000000000000000e+00,1.825000000000000355e+01,-1.650000000000000355e+01,1.300000000000000355e+01,-6.000000000000001776e+00,1.500000000000000222e+00,-1.900000000000000355e+01,3.175000000000000711e+01,-2.000000000000000355e+01,-1.125000000000000355e+01,2.450000000000000711e+01,-1.325000000000000355e+01,2.525000000000000355e+01,-2.800000000000000711e+01,0.000000000000000000e+00,2.200000000000000711e+01,-2.125000000000000711e+01,2.325000000000000711e+01,-9.750000000000001776e+00,-2.175000000000000711e+01,1.200000000000000355e+01,7.000000000000001776e+00,1.250000000000000000e+00,-5.000000000000000888e+00,-2.750000000000000444e+00,-7.000000000000001776e+00,2.100000000000000355e+01,-2.475000000000000711e+01,1.500000000000000355e+01,9.250000000000001776e+00,-2.725000000000000711e+01,1.650000000000000355e+01,1.750000000000000355e+01,-2.525000000000000711e+01,7.500000000000000000e-01,1.175000000000000355e+01,-8.000000000000001776e+00,1.750000000000000355e+01,-2.050000000000000355e+01,1.250000000000000355e+01,-1.825000000000000355e+01,1.700000000000000355e+01,-9.500000000000001776e+00,2.100000000000000355e+01,-3.200000000000000711e+01,2.950000000000000711e+01,-2.400000000000000711e+01,2.225000000000000711e+01,-1.025000000000000355e+01,-1.925000000000000355e+01,3.425000000000000711e+01,-2.600000000000000711e+01,-1.250000000000000000e+00,1.650000000000000355e+01,-1.525000000000000355e+01,2.100000000000000711e+01,-2.275000000000000711e+01,1.175000000000000178e+01,-7.000000000000001776e+00,1.950000000000000355e+01,-2.575000000000000711e+01,1.200000000000000178e+01,3.000000000000000888e+00,-1.250000000000000355e+01,2.175000000000000711e+01,-8.500000000000003553e+00,-7.500000000000001776e+00,6.500000000000001776e+00,-1.875000000000000355e+01,2.425000000000000711e+01,2.500000000000000000e-01,-2.000000000000000355e+01,2.300000000000000355e+01,-1.975000000000000355e+01,-2.500000000000000000e-01,2.375000000000000711e+01,-2.250000000000000711e+01,1.000000000000000000e+00,1.600000000000000355e+01,-1.425000000000000355e+01,1.550000000000000355e+01,-2.700000000000000711e+01,2.350000000000000711e+01,2.250000000000000000e+00,-2.775000000000000711e+01,3.325000000000000711e+01,-1.900000000000000355e+01,-7.250000000000000888e+00,2.275000000000000711e+01,-3.750000000000001776e+00,-1.900000000000000355e+01,9.000000000000001776e+00,-3.500000000000000444e+00,9.000000000000001776e+00,-5.250000000000001776e+00,3.000000000000000888e+00,1.100000000000000355e+01,-1.600000000000000355e+01,-8.000000000000000000e+00,1.575000000000000355e+01,-6.000000000000001776e+00,-1.000000000000000000e+00,2.000000000000000355e+01,-1.925000000000000355e+01,-1.300000000000000355e+01,1.925000000000000355e+01,1.050000000000000355e+01,-2.375000000000000711e+01,1.750000000000000355e+01,-2.500000000000000711e+01,1.700000000000000355e+01,1.550000000000000355e+01,-1.475000000000000355e+01,-9.250000000000001776e+00,-3.250000000000000000e+00,2.250000000000000355e+01,-2.275000000000000355e+01,2.475000000000000711e+01,-8.250000000000003553e+00,-2.225000000000000355e+01,2.975000000000000711e+01,-1.050000000000000355e+01,-1.925000000000000355e+01,2.700000000000000711e+01,-7.500000000000000000e-01,-1.725000000000000355e+01,-3.750000000000001776e+00,2.450000000000000711e+01,-1.175000000000000355e+01,-1.325000000000000355e+01,1.350000000000000355e+01,1.225000000000000355e+01,-1.550000000000000355e+01,-1.075000000000000355e+01,1.625000000000000355e+01,-1.250000000000000444e+00,1.000000000000000355e+01,-1.500000000000000355e+01,-4.000000000000000888e+00,1.000000000000000000e+00,2.125000000000000711e+01,-1.425000000000000355e+01,-1.875000000000000355e+01,3.850000000000000711e+01,-3.725000000000000711e+01,2.350000000000000711e+01,4.500000000000000000e+00,-2.325000000000000355e+01,4.500000000000000000e+00,2.325000000000000711e+01,-2.725000000000000711e+01,2.225000000000000355e+01,-2.400000000000000711e+01,9.750000000000003553e+00,1.425000000000000355e+01,-2.550000000000000711e+01,2.125000000000000711e+01,3.250000000000000000e+00,-2.850000000000000711e+01,3.075000000000000711e+01,-2.975000000000000711e+01,3.325000000000000711e+01,-2.500000000000000711e+01,1.325000000000000355e+01,-2.200000000000000355e+01,3.000000000000000711e+01,-3.025000000000000711e+01,3.025000000000000711e+01,-1.025000000000000355e+01,-1.950000000000000355e+01,1.700000000000000355e+01,1.150000000000000178e+01,-1.925000000000000355e+01,-2.000000000000000000e+00,1.625000000000000355e+01,0.000000000000000000e+00,-5.000000000000000888e+00,-7.750000000000001776e+00,-7.000000000000001776e+00,3.125000000000000711e+01,-3.700000000000000711e+01,3.525000000000000711e+01,-1.725000000000000355e+01,-1.400000000000000355e+01,1.600000000000000355e+01,0.000000000000000000e+00,1.500000000000000355e+01,-2.950000000000000711e+01,2.600000000000000711e+01,-1.700000000000000355e+01,-4.000000000000000888e+00,1.300000000000000355e+01,-2.500000000000000888e+00,-8.000000000000001776e+00,2.300000000000000711e+01,-3.250000000000000711e+01,1.550000000000000355e+01,1.750000000000000444e+00,1.000000000000000178e+01,-1.225000000000000178e+01,-9.750000000000001776e+00,1.425000000000000355e+01,-7.250000000000001776e+00,1.475000000000000355e+01,-2.175000000000000355e+01,2.350000000000000711e+01,-7.750000000000002665e+00,-1.425000000000000355e+01,5.000000000000000888e+00,9.250000000000001776e+00,5.250000000000000888e+00,-8.500000000000001776e+00,-1.575000000000000355e+01,2.925000000000000711e+01,-1.350000000000000355e+01,-5.250000000000001776e+00,-9.500000000000003553e+00,3.075000000000000711e+01,-2.350000000000000711e+01,-7.000000000000001776e+00,1.775000000000000355e+01,-2.500000000000000000e-01,-1.475000000000000355e+01,2.200000000000000355e+01,-1.200000000000000178e+01,6.000000000000000888e+00,-3.250000000000000444e+00,-1.675000000000000355e+01,2.000000000000000355e+01,6.750000000000002665e+00,-1.375000000000000355e+01,-8.500000000000001776e+00,1.825000000000000355e+01,-4.000000000000000888e+00,-1.475000000000000355e+01,2.550000000000000711e+01,-3.025000000000000711e+01,2.025000000000000355e+01,-2.750000000000000444e+00,-8.250000000000001776e+00,2.750000000000000355e+01,-2.575000000000000355e+01,4.250000000000000888e+00,1.025000000000000178e+01,-1.625000000000000355e+01,4.000000000000000000e+00,1.425000000000000355e+01,-1.225000000000000355e+01,-3.250000000000000888e+00,1.525000000000000355e+01,-2.050000000000000711e+01,1.650000000000000355e+01,-6.250000000000001776e+00,-1.750000000000000355e+01,1.925000000000000355e+01,8.750000000000003553e+00,-2.300000000000000711e+01,2.100000000000000355e+01,-3.500000000000000000e+00,-1.975000000000000711e+01,2.225000000000000711e+01,-1.750000000000000355e+01,-1.625000000000000711e+01,2.900000000000000711e+01,-1.175000000000000355e+01,-5.500000000000001776e+00,3.100000000000000711e+01,-1.075000000000000178e+01,-1.775000000000000355e+01,-4.250000000000001776e+00,1.700000000000000355e+01,7.000000000000001776e+00,-1.700000000000000355e+01,2.050000000000000711e+01,-8.000000000000003553e+00,8.000000000000003553e+00,-2.000000000000000711e+01,1.625000000000000355e+01,-1.850000000000000355e+01,1.375000000000000355e+01,3.500000000000000888e+00,-2.025000000000000711e+01,5.250000000000001776e+00,1.750000000000000355e+01,-6.750000000000000888e+00,-1.400000000000000355e+01,1.650000000000000355e+01,-1.575000000000000355e+01,1.250000000000000355e+01,1.150000000000000355e+01,-1.425000000000000355e+01,-7.500000000000002220e-01,-5.750000000000001776e+00,-1.175000000000000178e+01,4.475000000000001421e+01,-2.900000000000000711e+01,-1.375000000000000355e+01,1.950000000000000355e+01,-7.500000000000001776e+00,-2.750000000000000888e+00,1.850000000000000711e+01,-1.625000000000000355e+01,-2.325000000000000711e+01,3.750000000000000711e+01,-1.700000000000000355e+01,5.000000000000000000e-01,-2.750000000000000000e+00,1.925000000000000355e+01,-1.625000000000000355e+01,-3.425000000000000711e+01,7.675000000000001421e+01,-7.875000000000001421e+01,5.325000000000000711e+01,-4.050000000000000711e+01,1.775000000000000355e+01,6.250000000000002665e+00,5.250000000000000888e+00,5.000000000000001110e-01,-2.500000000000000555e-01,0.000000000000000000e+00,2.500000000000000555e-01,0.000000000000000000e+00,-2.500000000000000555e-01,2.500000000000000555e-01,0.000000000000000000e+00,-2.500000000000000555e-01,2.500000000000000555e-01,2.500000000000000555e-01,-7.500000000000002220e-01,7.500000000000002220e-01,-2.500000000000000555e-01,2.500000000000000555e-01,0.000000000000000000e+00,-5.000000000000001110e-01,0.000000000000000000e+00,2.500000000000000555e-01,2.500000000000000555e-01,-2.500000000000000555e-01,-2.500000000000000555e-01,5.000000000000001110e-01,-5.000000000000001110e-01,2.500000000000000555e-01,0.000000000000000000e+00,0.000000000000000000e+00,0.000000000000000000e+00,-2.500000000000000555e-01,5.000000000000001110e-01,-5.000000000000001110e-01,2.500000000000000555e-01,5.000000000000001110e-01,-1.000000000000000222e+00,2.500000000000000555e-01,5.000000000000001110e-01,-2.500000000000000555e-01,2.500000000000000555e-01,-5.000000000000001110e-01,2.500000000000000555e-01,7.500000000000002220e-01,-1.500000000000000444e+00,7.500000000000002220e-01,0.000000000000000000e+00,0.000000000000000000e+00,2.500000000000000555e-01,-5.000000000000001110e-01,5.000000000000001110e-01,-5.000000000000001110e-01,5.000000000000001110e-01,-2.500000000000000555e-01,-2.500000000000000555e-01,2.500000000000000555e-01,0.000000000000000000e+00,2.500000000000000555e-01,-1.000000000000000222e+00,1.250000000000000444e+00,-5.000000000000001110e-01,0.000000000000000000e+00,2.500000000000000555e-01,-5.000000000000001110e-01,2.500000000000000555e-01,0.000000000000000000e+00,-2.500000000000000555e-01,2.500000000000000555e-01,5.000000000000001110e-01,-7.500000000000002220e-01,5.000000000000001110e-01,0.000000000000000000e+00,-5.000000000000001110e-01,-2.500000000000000555e-01,1.250000000000000444e+00,-1.000000000000000222e+00,2.500000000000000555e-01,0.000000000000000000e+00,2.500000000000000555e-01,-5.000000000000001110e-01,0.000000000000000000e+00,5.000000000000001110e-01,0.000000000000000000e+00,-5.000000000000001110e-01,2.500000000000000555e-01,0.000000000000000000e+00,0.000000000000000000e+00,0.000000000000000000e+00,2.500000000000000555e-01,-2.500000000000000555e-01,0.000000000000000000e+00,-2.500000000000000555e-01,7.500000000000002220e-01,-5.000000000000001110e-01,1.000000000000000222e+00,-5.000000000000001110e-01,1.150000000000000355e+01,-6.000000000000001776e+00,3.000000000000000000e+00,-2.400000000000000711e+01,1.575000000000000355e+01,8.250000000000001776e+00,7.500000000000001776e+00,-3.000000000000000000e+00,-8.750000000000003553e+00,-2.250000000000000355e+01,2.850000000000000711e+01,6.500000000000001776e+00,-2.650000000000000711e+01,1.875000000000000355e+01,5.000000000000000000e-01,-2.100000000000000355e+01,3.300000000000000711e+01,-1.375000000000000178e+01,-2.350000000000000711e+01,-8.250000000000000000e+00,8.175000000000001421e+01,-4.950000000000001421e+01,-1.225000000000000355e+01,1.325000000000000355e+01,-2.125000000000000355e+01,1.200000000000000178e+01,1.575000000000000355e+01,-3.875000000000000711e+01,7.500000000000001421e+01,-4.550000000000001421e+01,-3.850000000000000711e+01,2.925000000000000711e+01,1.675000000000000355e+01,-1.200000000000000355e+01,-3.000000000000000444e+00,4.175000000000000711e+01,-5.825000000000001421e+01,3.425000000000000711e+01,-1.350000000000000355e+01,-1.050000000000000355e+01,1.200000000000000355e+01,-2.775000000000000355e+01,3.400000000000000711e+01,1.025000000000000178e+01,-2.750000000000000355e+01,-4.000000000000000888e+00,1.550000000000000355e+01,1.625000000000000355e+01,-3.125000000000000711e+01,1.350000000000000355e+01,8.250000000000003553e+00,-3.300000000000000711e+01,3.975000000000000711e+01,-2.625000000000000711e+01,2.375000000000000711e+01,-9.750000000000001776e+00,-2.025000000000000711e+01,2.500000000000000711e+01,-1.900000000000000355e+01,1.000000000000000000e+00,2.025000000000000711e+01,-9.500000000000003553e+00,-1.350000000000000355e+01,1.100000000000000178e+01,5.000000000000001776e+00,-7.000000000000001776e+00,0.000000000000000000e+00,0.000000000000000000e+00,-2.500000000000000555e-01,2.500000000000000555e-01,-2.500000000000000555e-01,7.500000000000002220e-01,-7.500000000000002220e-01,5.000000000000001110e-01,-2.500000000000000555e-01,0.000000000000000000e+00,0.000000000000000000e+00,0.000000000000000000e+00,2.500000000000000555e-01,-7.500000000000002220e-01,7.500000000000002220e-01,-2.500000000000000555e-01,-2.500000000000000555e-01,2.500000000000000555e-01,2.500000000000000555e-01,-2.500000000000000555e-01,0.000000000000000000e+00,0.000000000000000000e+00,0.000000000000000000e+00,-5.000000000000000888e+00,5.750000000000000888e+00,3.250000000000000888e+00,-3.750000000000000888e+00,-1.500000000000000222e+00,-3.500000000000000888e+00,7.500000000000001776e+00,-2.075000000000000355e+01,3.375000000000000711e+01,-2.525000000000000711e+01,4.250000000000000888e+00,1.325000000000000355e+01,0.000000000000000000e+00,-2.425000000000000711e+01,-5.500000000000000000e+00,2.375000000000000355e+01,2.325000000000000711e+01,-4.250000000000001421e+01,1.200000000000000355e+01,4.000000000000000888e+00,1.625000000000000355e+01,-1.100000000000000355e+01,-2.350000000000000355e+01,2.800000000000000711e+01,-6.500000000000001776e+00,-1.775000000000000355e+01,1.375000000000000355e+01,1.175000000000000178e+01,-2.175000000000000711e+01,1.550000000000000355e+01,-1.675000000000000355e+01,2.850000000000000711e+01,-5.750000000000001776e+00,-9.500000000000001776e+00,-1.250000000000000222e+00,-1.025000000000000178e+01,-7.750000000000001776e+00,3.750000000000000711e+01,-3.900000000000000711e+01,3.275000000000000711e+01,-2.850000000000000711e+01,-2.500000000000000000e+00,4.450000000000001421e+01,-2.175000000000000711e+01,-8.500000000000001776e+00,2.150000000000000355e+01,-3.400000000000000711e+01,7.000000000000001776e+00,2.950000000000000711e+01,-2.650000000000000711e+01,-2.250000000000000000e+00,7.000000000000001776e+00,-8.500000000000001776e+00,3.150000000000000711e+01,-1.900000000000000355e+01,-1.200000000000000178e+01,1.575000000000000355e+01,5.000000000000000888e+00,-3.275000000000000711e+01,3.700000000000000711e+01,-2.200000000000000711e+01,-3.000000000000000000e+00,1.750000000000000000e+00,1.550000000000000355e+01,-1.500000000000000888e+00,-4.250000000000000888e+00,-8.500000000000001776e+00,-1.400000000000000178e+01,5.450000000000001421e+01,-5.025000000000001421e+01,1.250000000000000355e+01,-2.750000000000000888e+00,1.850000000000000355e+01,-2.500000000000000711e+01,2.325000000000000711e+01,-2.750000000000000000e+00,-2.750000000000000888e+00,-5.000000000000000000e-01,-2.275000000000000355e+01,3.250000000000000711e+01,-2.325000000000000711e+01,3.750000000000000000e+00,1.575000000000000355e+01,-1.025000000000000178e+01,7.500000000000002220e-01,-3.000000000000000888e+00,1.025000000000000355e+01,-2.750000000000000711e+01,3.325000000000000711e+01,-9.000000000000003553e+00,-1.825000000000000355e+01,2.225000000000000711e+01,-1.875000000000000355e+01,1.575000000000000355e+01,-1.100000000000000355e+01,1.625000000000000355e+01,-8.500000000000001776e+00,3.000000000000000444e+00,-1.000000000000000000e+00,-2.575000000000000355e+01,2.525000000000000355e+01,5.500000000000000888e+00,-1.900000000000000355e+01,1.775000000000000355e+01,-3.125000000000000711e+01,7.200000000000002842e+01,-6.300000000000001421e+01,-2.250000000000000000e+00,2.150000000000000355e+01,-1.075000000000000355e+01,4.000000000000001776e+00,7.750000000000001776e+00,-4.000000000000000888e+00,-7.250000000000001776e+00,1.600000000000000355e+01,-2.075000000000000355e+01,6.250000000000000888e+00,3.200000000000000711e+01,-4.025000000000001421e+01,1.825000000000000355e+01,-4.250000000000000888e+00,-7.000000000000000888e+00,1.475000000000000355e+01,-2.900000000000000711e+01,2.600000000000000711e+01,-1.175000000000000355e+01,1.525000000000000355e+01,-2.925000000000000711e+01,5.275000000000001421e+01,-4.125000000000000711e+01,6.250000000000001776e+00,-1.675000000000000355e+01,2.250000000000000355e+01,2.500000000000000888e+00,-1.350000000000000355e+01,5.250000000000001776e+00,5.500000000000001776e+00,3.750000000000000888e+00,-1.225000000000000355e+01,-1.875000000000000355e+01,2.750000000000000355e+01,8.000000000000000000e+00,6.250000000000001776e+00,-3.675000000000000711e+01,3.350000000000000711e+01,-2.825000000000000711e+01,2.500000000000001776e+00,-9.250000000000001776e+00
