-2.529831250000001432e+02,-3.083425000000001432e+02,-3.545456250000002001e+02,-3.921393750000003138e+02,-4.223737500000003138e+02,-4.450456250000003138e+02,-4.597018750000003138e+02,-4.670143750000003138e+02,-4.670143750000003138e+02,-4.669987500000003138e+02,-4.669987500000003138e+02,-4.664675000000003138e+02,-4.655300000000003138e+02,-4.638112500000003138e+02,-4.620612500000003138e+02,-4.600768750000003138e+02,-4.572175000000003138e+02,-4.537800000000003138e+02,-4.486862500000003138e+02,-4.427331250000003138e+02,-4.366237500000003138e+02,-4.301393750000003138e+02,-4.211081250000003138e+02,-4.105925000000003138e+02,-4.002956250000003138e+02,-3.897175000000003138e+02,-3.803425000000002569e+02,-3.718893750000002001e+02,-3.632643750000001432e+02,-3.561393750000001432e+02,-3.517175000000001432e+02,-3.488268750000001432e+02,-3.465456250000001432e+02,-3.439831250000001432e+02,-3.414831250000001432e+02,-3.388737500000001432e+02,-3.360456250000001432e+02,-3.324206250000001432e+02,-3.284675000000001432e+02,-3.231393750000001432e+02,-3.155612500000001432e+02,-3.072643750000001432e+02,-2.972956250000001432e+02,-2.864050000000001432e+02,-2.742643750000001432e+02,-2.605925000000001432e+02,-2.446237500000001432e+02,-2.280456250000001432e+02,-2.112331250000001432e+02,-1.936550000000001432e+02,-1.747018750000000864e+02,-1.529987500000000580e+02,-1.288112500000000580e+02,-1.006393750000000296e+02,-6.931125000000001535e+01,-3.421749999999999403e+01,4.048125000000026397e+00,4.403250000000005571e+01,8.457937500000008413e+01,1.255168750000001125e+02,1.655793750000001410e+02,2.032200000000001694e+02,2.390637500000001978e+02,2.725950000000001978e+02,3.037512500000001978e+02,3.346106250000001978e+02,3.651887500000002547e+02,3.932668750000003683e+02,4.197981250000003683e+02,4.450012500000003683e+02,4.674387500000003683e+02,4.863293750000003683e+02,5.021106250000003683e+02,5.138762500000003683e+02,5.219543750000003683e+02,5.278293750000003683e+02,5.313293750000003683e+02,5.325325000000003683e+02,5.322200000000003683e+02,5.311575000000003683e+02,5.293606250000003683e+02,5.261887500000003683e+02,5.221887500000003683e+02,5.156106250000003683e+02,5.071262500000003683e+02,4.967043750000003683e+02,4.837356250000003683e+02,4.680012500000003683e+02,4.495950000000003683e+02,4.299075000000003683e+02,4.072981250000003683e+02,3.854075000000003683e+02,3.633293750000002547e+02,3.410793750000001978e+02,3.209231250000001978e+02,3.028762500000001978e+02,2.867668750000001978e+02,2.720325000000001978e+02,2.600637500000001978e+02,2.498450000000001978e+02,2.415168750000001978e+02,2.348293750000001978e+02,2.290481250000001978e+02,2.251106250000001978e+02,2.225325000000001978e+02,2.220950000000001978e+02,2.236731250000001978e+02,2.258450000000001978e+02,2.283606250000001978e+02,2.319231250000001978e+02,2.339387500000001978e+02,2.355168750000001978e+02,2.378762500000001978e+02,2.379700000000001978e+02,2.369856250000001978e+02,2.352356250000001978e+02,2.324543750000001978e+02,2.298450000000001978e+02,2.299075000000001978e+02,2.299075000000001978e+02,2.282512500000001978e+02,2.288137500000001978e+02,2.292043750000001978e+02,2.297512500000001978e+02,2.326731250000001978e+02,2.343918750000001978e+02,2.348450000000001978e+02,2.362200000000001978e+02,2.384387500000001978e+02,2.403293750000001978e+02,2.430012500000001978e+02,2.474231250000001978e+02,2.507981250000001978e+02,2.536418750000001978e+02,2.578450000000001978e+02,2.608293750000001978e+02,2.632981250000001978e+02,2.653606250000001978e+02,2.662981250000001978e+02,2.655012500000001978e+02,2.656262500000001978e+02,2.665637500000001978e+02,2.655950000000001978e+02,2.643137500000001978e+02,2.644387500000001978e+02,2.637356250000001978e+02,2.630168750000001978e+02,2.602825000000001978e+02,2.535637500000001978e+02,2.479387500000001978e+02,2.420637500000001978e+02,2.360481250000001978e+02,2.267356250000001978e+02,2.168918750000001978e+02,2.071887500000001978e+02,1.990168750000001978e+02,1.927200000000001694e+02,1.845168750000001410e+02,1.759231250000001125e+02,1.668293750000001125e+02,1.604543750000001125e+02,1.542825000000001125e+02,1.471575000000001125e+02,1.401731250000001125e+02,1.335950000000001125e+02,1.264856250000001125e+02,1.198450000000001125e+02,1.134231250000001125e+02,1.056106250000001125e+02,9.817312500000011255e+01,9.072000000000008413e+01,8.243875000000008413e+01,7.368875000000006992e+01,6.586062500000006992e+01,5.729812500000006992e+01,4.904812500000006281e+01,3.932937500000005571e+01,2.912625000000004860e+01,1.890750000000004150e+01,7.766875000000032614e+00,-4.576874999999976268e+00,-1.799874999999998337e+01,-3.165499999999998693e+01,-4.793625000000000114e+01,-6.443625000000001535e+01,-8.246750000000002956e+01,-1.010768750000000438e+02,-1.197018750000000580e+02,-1.385456250000000580e+02,-1.583112500000000580e+02,-1.788737500000000864e+02,-1.971862500000001432e+02,-2.134831250000001432e+02,-2.292643750000001432e+02,-2.449987500000001432e+02,-2.596393750000001432e+02,-2.745612500000001432e+02,-2.882800000000001432e+02,-3.009831250000001432e+02,-3.145143750000001432e+02,-3.288737500000001432e+02,-3.426081250000001432e+02,-3.557175000000001432e+02,-3.683268750000002001e+02,-3.788737500000002569e+02,-3.888893750000003138e+02,-3.969050000000003138e+02,-4.038581250000003138e+02,-4.097175000000003138e+02,-4.142956250000003138e+02,-4.174675000000003138e+02,-4.202956250000003138e+02,-4.225925000000003138e+02,-4.244050000000003138e+02,-4.274675000000003138e+02,-4.292175000000003138e+02,-4.311862500000003138e+02,-4.330456250000003138e+02,-4.351081250000003138e+02,-4.377018750000003138e+02,-4.402800000000003138e+02,-4.415925000000003138e+02,-4.422643750000003138e+02,-4.439518750000003138e+02,-4.449050000000003138e+02,-4.456862500000003138e+02,-4.466706250000003138e+02,-4.461706250000003138e+02,-4.458268750000003138e+02,-4.471550000000003138e+02,-4.483737500000003138e+02,-4.491550000000003138e+02,-4.503425000000003138e+02,-4.515925000000003138e+02,-4.527487500000003138e+02,-4.552175000000003138e+02,-4.576237500000003138e+02,-4.587800000000003138e+02,-4.598112500000003138e+02,-4.608893750000003138e+02,-4.615612500000003138e+02,-4.613425000000003138e+02,-4.607331250000003138e+02,-4.583425000000003138e+02,-4.553581250000003138e+02,-4.520925000000003138e+02,-4.475612500000003138e+02,-4.421237500000003138e+02,-4.362487500000003138e+02,-4.310300000000003138e+02,-4.253425000000003138e+02,-4.216706250000003138e+02,-4.180456250000003138e+02,-4.158893750000003138e+02,-4.163737500000003138e+02,-4.177956250000003138e+02,-4.201706250000003138e+02,-4.238268750000003138e+02,-4.286081250000003138e+02,-4.321081250000003138e+02,-4.369831250000003138e+02,-4.412956250000003138e+02,-4.442487500000003138e+02,-4.476550000000003138e+02,-4.509206250000003138e+02,-4.530925000000003138e+02,-4.551081250000003138e+02,-4.580143750000003138e+02,-4.599987500000003138e+02,-4.617331250000003138e+02,-4.634831250000003138e+02,-4.645925000000003138e+02,-4.654675000000003138e+02,-4.663581250000003138e+02,-4.669050000000003138e+02,-4.669206250000003138e+02,-4.669050000000003138e+02,-4.663112500000003138e+02,-4.648112500000003138e+02,-4.629987500000003138e+02,-4.595300000000003138e+02,-4.544518750000003138e+02,-4.480456250000003138e+02,-4.399987500000003138e+02,-4.301862500000003138e+02,-4.190768750000003138e+02,-4.077643750000003138e+02,-3.948581250000003138e+02,-3.819362500000003138e+02,-3.687331250000002001e+02,-3.554675000000001432e+02,-3.422331250000001432e+02,-3.288425000000001432e+02,-3.159987500000001432e+02,-3.020925000000001432e+02,-2.883893750000001432e+02,-2.757331250000001432e+02,-2.634206250000001432e+02,-2.499518750000001432e+02,-2.356862500000001432e+02,-2.210768750000001432e+02,-2.058893750000001432e+02,-1.918893750000001432e+02,-1.774831250000000864e+02,-1.609518750000000580e+02,-1.452331250000000580e+02,-1.307956250000000580e+02,-1.177487500000000580e+02,-1.061081250000000580e+02,-9.473312500000005798e+01,-8.271750000000002956e+01,-7.138937500000001535e+01,-6.159250000000001535e+01,-5.043625000000000824e+01,-3.831125000000000114e+01,-2.502999999999998693e+01,-1.110812499999997982e+01,3.454375000000029949e+00,1.900125000000003794e+01,3.447000000000004860e+01,5.048562500000005571e+01,6.622000000000006992e+01,8.118875000000008413e+01,9.587625000000009834e+01,1.108450000000001125e+02,1.253137500000001125e+02,1.390012500000001125e+02,1.538137500000001125e+02,1.691731250000001410e+02,1.844856250000001694e+02,1.992200000000001978e+02,2.132512500000001978e+02,2.276262500000001978e+02,2.409700000000001978e+02,2.539387500000001978e+02,2.653450000000001978e+02,2.757200000000001978e+02,2.860793750000001978e+02,2.973450000000001978e+02,3.097043750000001978e+02,3.218293750000001978e+02,3.354700000000001978e+02,3.498762500000001978e+02,3.657043750000002547e+02,3.813918750000003683e+02,3.968293750000003683e+02,4.120168750000003683e+02,4.253450000000003683e+02,4.380325000000003683e+02,4.493762500000003683e+02,4.589543750000003683e+02,4.671575000000003683e+02,4.757356250000003683e+02,4.837512500000003683e+02,4.912356250000003683e+02,4.993293750000003683e+02,5.063293750000003683e+02,5.127512500000003683e+02,5.190325000000003683e+02,5.243918750000003683e+02,5.282825000000003683e+02,5.312512500000003683e+02,5.331887500000003683e+02,5.341106250000003683e+02,5.348606250000003683e+02,5.352825000000003683e+02,5.353762500000003683e+02,5.354387500000003683e+02,5.355012500000003683e+02,5.355637500000003683e+02,5.356575000000003683e+02,5.357356250000003683e+02,5.358137500000003683e+02,5.358918750000003683e+02,5.360168750000003683e+02,5.361418750000003683e+02,5.362668750000003683e+02,5.363762500000003683e+02,5.364543750000003683e+02,5.365481250000003683e+02,5.366575000000003683e+02,5.367512500000003683e+02,5.368137500000003683e+02,5.368606250000003683e+02,5.368918750000003683e+02,5.369387500000003683e+02,5.370012500000003683e+02,5.370481250000003683e+02,5.370793750000003683e+02,5.371106250000003683e+02,5.371418750000003683e+02,5.371731250000003683e+02,5.372043750000003683e+02,5.372200000000003683e+02,5.372043750000003683e+02,5.371575000000003683e+02,5.371262500000003683e+02,5.370793750000003683e+02,5.370481250000003683e+02,5.370168750000003683e+02,5.370012500000003683e+02,5.369856250000003683e+02,5.369856250000003683e+02,5.370481250000003683e+02,5.370793750000003683e+02,5.371418750000003683e+02,5.371887500000003683e+02,5.372356250000003683e+02,5.372512500000003683e+02,5.372512500000003683e+02,5.372668750000003683e+02,5.372512500000003683e+02,5.372512500000003683e+02,5.372200000000003683e+02,5.371731250000003683e+02,5.371106250000003683e+02,5.370325000000003683e+02,5.369700000000003683e+02,5.368762500000003683e+02,5.367512500000003683e+02,5.366106250000003683e+02,5.364700000000003683e+02,5.362981250000003683e+02,5.361106250000003683e+02,5.359387500000003683e+02,5.356731250000003683e+02,5.353137500000003683e+02,5.348762500000003683e+02,5.337981250000003683e+02,5.316887500000003683e+02,5.280325000000003683e+02,5.224700000000003683e+02,5.151887500000003683e+02,5.052981250000003683e+02,4.931418750000003683e+02,4.782981250000003683e+02,4.608762500000003683e+02,4.417356250000003683e+02,4.212512500000003683e+02,4.000793750000003683e+02,3.785793750000003683e+02,3.602668750000002547e+02,3.447043750000001978e+02,3.273918750000001978e+02,3.086262500000001978e+02,2.871262500000001978e+02,2.647825000000001978e+02,2.409700000000001978e+02,2.139231250000001978e+02,1.800950000000001410e+02,1.388606250000001125e+02,1.011106250000000841e+02,6.825125000000006992e+01,4.087625000000005571e+01,1.665750000000003794e+01,-3.733124999999977600e+00,-1.952999999999998693e+01,-2.940499999999999403e+01,-3.298312499999999403e+01,-3.606124999999999403e+01,-4.071750000000000114e+01,-4.518625000000000114e+01,-4.946750000000001535e+01,-5.457687500000001535e+01,-5.868625000000001535e+01,-6.279562500000001535e+01,-6.637375000000001535e+01,-6.990500000000001535e+01,-7.113937500000001535e+01,-7.295187500000001535e+01,-7.365500000000001535e+01,-7.243625000000001535e+01,-7.118625000000001535e+01,-6.896750000000001535e+01,-6.587375000000001535e+01,-6.174875000000001535e+01,-5.984250000000001535e+01,-5.763937500000001535e+01,-5.798312500000001535e+01,-5.998312500000001535e+01,-6.301437500000001535e+01,-6.792062500000001535e+01,-7.465500000000001535e+01,-8.399875000000002956e+01,-9.287375000000004377e+01,-1.033425000000000580e+02,-1.120300000000000580e+02,-1.204206250000000580e+02,-1.291550000000000580e+02,-1.371706250000000580e+02,-1.448737500000000580e+02,-1.501706250000000580e+02,-1.544050000000000580e+02,-1.571081250000000580e+02,-1.603581250000000580e+02,-1.636862500000000580e+02,-1.668268750000000580e+02,-1.705456250000000580e+02,-1.737331250000000580e+02,-1.779206250000000580e+02,-1.840612500000000864e+02,-1.908112500000001148e+02,-1.971862500000001432e+02,-2.037800000000001432e+02,-2.102956250000001432e+02,-2.156862500000001432e+02,-2.216237500000001432e+02,-2.275768750000001432e+02,-2.320143750000001432e+02,-2.355300000000001432e+02,-2.389050000000001432e+02,-2.417331250000001432e+02,-2.436237500000001432e+02,-2.456237500000001432e+02,-2.464050000000001432e+02,-2.469987500000001432e+02,-2.470300000000001432e+02,-2.469518750000001432e+02,-2.477018750000001432e+02,-2.485456250000001432e+02,-2.502018750000001432e+02,-2.522331250000001432e+02,-2.546393750000001432e+02,-2.567643750000001432e+02,-2.595300000000001432e+02,-2.633893750000001432e+02,-2.657175000000001432e+02,-2.677487500000001432e+02,-2.680300000000001432e+02,-2.676550000000001432e+02,-2.679518750000001432e+02,-2.674518750000001432e+02,-2.669050000000001432e+02,-2.653112500000001432e+02,-2.640300000000001432e+02,-2.625768750000001432e+02,-2.620612500000001432e+02,-2.618112500000001432e+02,-2.606706250000001432e+02,-2.594831250000001432e+02,-2.577018750000001432e+02,-2.553112500000001432e+02,-2.534050000000001432e+02,-2.507018750000001432e+02,-2.484831250000001432e+02,-2.457018750000001432e+02,-2.429050000000001432e+02,-2.410612500000001432e+02,-2.388268750000001432e+02,-2.381393750000001432e+02,-2.369206250000001432e+02,-2.365612500000001432e+02,-2.362175000000001432e+02,-2.361550000000001432e+02,-2.359362500000001432e+02,-2.347487500000001432e+02,-2.350456250000001432e+02,-2.342175000000001432e+02,-2.343268750000001432e+02,-2.343268750000001432e+02,-2.336237500000001432e+02,-2.336706250000001432e+02,-2.337018750000001432e+02,-2.342175000000001432e+02,-2.337487500000001432e+02,-2.329518750000001432e+02,-2.310925000000001432e+02,-2.298893750000001432e+02,-2.282018750000001432e+02,-2.256706250000001432e+02,-2.232800000000001432e+02,-2.210612500000001432e+02,-2.189206250000001432e+02,-2.171550000000001432e+02,-2.152956250000001432e+02,-2.126706250000001432e+02,-2.109518750000001432e+02,-2.092175000000001432e+02,-2.074206250000001432e+02,-2.057956250000001432e+02,-2.033581250000001432e+02,-2.010300000000001432e+02,-1.993268750000001432e+02,-1.970612500000001432e+02,-1.942643750000001432e+02,-1.904206250000001432e+02,-1.857956250000000864e+02,-1.801706250000000864e+02,-1.754987500000000580e+02,-1.708268750000000580e+02,-1.655300000000000580e+02,-1.605768750000000580e+02,-1.557800000000000580e+02,-1.527800000000000580e+02,-1.515768750000000580e+02,-1.508268750000000580e+02,-1.489518750000000580e+02,-1.471706250000000580e+02,-1.452018750000000580e+02,-1.428893750000000580e+02,-1.405925000000000580e+02,-1.374831250000000580e+02,-1.326550000000000580e+02,-1.280456250000000580e+02,-1.248893750000000580e+02,-1.216081250000000580e+02,-1.185612500000000580e+02,-1.159987500000000580e+02,-1.133581250000000580e+02,-1.100612500000000580e+02,-1.070143750000000580e+02,-1.035612500000000580e+02,-9.918625000000005798e+01,-9.463937500000005798e+01,-8.978000000000002956e+01,-8.476437500000001535e+01,-7.984250000000001535e+01,-7.543625000000001535e+01,-7.167062500000001535e+01,-6.804562500000001535e+01,-6.503000000000001535e+01,-6.148312500000001535e+01,-5.842062500000001535e+01,-5.632687500000001535e+01,-5.417062500000001535e+01,-5.265500000000001535e+01,-5.179562500000001535e+01,-5.043625000000001535e+01,-4.821750000000001535e+01,-4.751437500000000824e+01,-4.746750000000000824e+01,-4.663937500000000114e+01,-4.595187500000000114e+01,-4.420187500000000114e+01,-4.151437499999999403e+01,-3.952999999999999403e+01,-3.823312499999999403e+01,-3.624874999999999403e+01,-3.385812499999999403e+01,-3.090499999999999403e+01,-2.777999999999999403e+01,-2.638937499999999403e+01,-2.521749999999999403e+01,-2.459249999999999403e+01,-2.481124999999999403e+01,-2.442062499999999403e+01,-2.417062499999999403e+01,-2.454562499999999403e+01,-2.538937499999999403e+01,-2.445187499999999403e+01,-2.304562499999998693e+01,-2.132687499999998693e+01,-1.790499999999998337e+01,-1.481124999999998337e+01,-1.143624999999997982e+01,-8.873749999999978044e+00,-6.061249999999976268e+00,-3.873749999999975380e+00,-2.826874999999974492e+00,-7.018749999999732703e-01,6.375000000002725709e-02,-1.706249999999729094e-01,2.356250000000273404e-01,2.157500000000028617e+00,4.891875000000029949e+00,6.673125000000030838e+00,9.798125000000034390e+00,1.197000000000003439e+01,1.486062500000003617e+01,1.851687500000003794e+01,2.164187500000004150e+01,2.320437500000004505e+01,2.317312500000004505e+01,2.473562500000004860e+01,2.514187500000004860e+01,2.561062500000004860e+01,2.548562500000004860e+01,2.564187500000004860e+01,2.550125000000004860e+01,2.642312500000004860e+01,2.886062500000004860e+01,3.003250000000004860e+01,3.209500000000004860e+01,3.411062500000004860e+01,3.654812500000004860e+01,3.856375000000004860e+01,4.076687500000004860e+01,4.229812500000004860e+01,4.284500000000004860e+01,4.322000000000004860e+01,4.231375000000004860e+01,4.056375000000004860e+01,3.907937500000004860e+01,3.757937500000004860e+01,3.593875000000004860e+01,3.497000000000004860e+01,3.337625000000004860e+01,3.243875000000004860e+01,3.278250000000004860e+01,3.447000000000004860e+01,3.467312500000004860e+01,3.520437500000004860e+01,3.467312500000004860e+01,3.348562500000004860e+01,3.368875000000004860e+01,3.365750000000004860e+01,3.301687500000004860e+01,3.128250000000004860e+01,3.131375000000004860e+01,3.043875000000004860e+01,3.132937500000004860e+01,3.217312500000004860e+01,3.161062500000004860e+01,3.154812500000004860e+01,3.115750000000004860e+01,3.126687500000004860e+01,2.967312500000004860e+01,2.825125000000004860e+01,2.512625000000004505e+01,2.248562500000004150e+01,2.036062500000004150e+01,1.762625000000003794e+01,1.472000000000003794e+01,1.164187500000003439e+01,9.938750000000034390e+00,9.266875000000032614e+00,1.014187500000003261e+01,1.020437500000003261e+01,1.076687500000003261e+01,1.078250000000003261e+01,1.162625000000003439e+01,1.259500000000003794e+01,1.337625000000003794e+01,1.362625000000003794e+01,1.339187500000003794e+01,1.453250000000003794e+01,1.603250000000003794e+01,1.839187500000003794e+01,2.098562500000004150e+01,2.401687500000004860e+01,2.654812500000004860e+01,2.812625000000004860e+01,2.982937500000004860e+01,3.047000000000004860e+01,2.965750000000004860e+01,2.907937500000004860e+01,2.742312500000004860e+01,2.492312500000004860e+01,2.304812500000004150e+01,2.290750000000004150e+01,2.195437500000004150e+01,2.097000000000004150e+01,2.089187500000004150e+01,2.015750000000003794e+01,2.039187500000003794e+01,2.176687500000004150e+01,2.254812500000004150e+01,2.157937500000003794e+01,2.115750000000003794e+01,2.148562500000004150e+01,2.170437500000004150e+01,2.281375000000004150e+01,2.325125000000004150e+01,2.232937500000004150e+01,2.182937500000003794e+01,2.237625000000004150e+01,2.347000000000004150e+01,2.442312500000004505e+01,2.556375000000004860e+01,2.536062500000004860e+01,2.553250000000004860e+01,2.622000000000004860e+01,2.631375000000004860e+01,2.678250000000004860e+01,2.668875000000004860e+01,2.579812500000004860e+01,2.442312500000004505e+01,2.415750000000004505e+01,2.297000000000004150e+01,2.264187500000004150e+01,2.229812500000004150e+01,2.034500000000003794e+01,1.786062500000003794e+01,1.576687500000003794e+01,1.390750000000003794e+01,1.109500000000003439e+01,9.891875000000032614e+00,7.813750000000030838e+00,5.923125000000030838e+00,5.610625000000030838e+00,5.470000000000030838e+00,5.954375000000030838e+00,6.673125000000032614e+00,8.048125000000032614e+00,8.751250000000032614e+00,9.282500000000032614e+00,1.117312500000003439e+01,1.284500000000003617e+01,1.578250000000003794e+01,1.775125000000003794e+01,2.042312500000004150e+01,2.418875000000004505e+01,2.750125000000004860e+01,3.162625000000004860e+01,3.445437500000004860e+01,3.662625000000004860e+01,3.712625000000004860e+01,3.832937500000004860e+01,3.745437500000004860e+01,3.436062500000004860e+01,3.139187500000004860e+01,2.714187500000004860e+01,2.200125000000004150e+01,1.725125000000003794e+01,1.329812500000003439e+01,8.110625000000032614e+00,4.766875000000029949e+00,2.298125000000028617e+00,-6.862499999999733813e-01,-2.529999999999974492e+00,-2.748749999999974492e+00,-3.436249999999974492e+00,-4.217499999999975380e+00,-3.154999999999974936e+00,-2.811249999999974936e+00,-2.717499999999974492e+00,-1.826874999999973603e+00,-9.674999999999731592e-01,-7.487499999999731592e-01,-3.424999999999728262e-01,8.762500000000279510e-01,9.075000000000279510e-01,4.075000000000275069e-01,1.282500000000028173e+00,2.251250000000029061e+00,2.251250000000029061e+00,2.454375000000029061e+00,3.470000000000029505e+00,3.063750000000029061e+00,3.438750000000029949e+00,5.141875000000030838e+00,5.657500000000030838e+00,7.157500000000031726e+00,9.923125000000032614e+00,1.243875000000003439e+01,1.520437500000003794e+01,1.925125000000004150e+01,2.262625000000004150e+01,2.598562500000004505e+01,3.050125000000004860e+01,3.323562500000004860e+01,3.557937500000004860e+01,3.886062500000004860e+01,4.073562500000004860e+01,4.201687500000004860e+01,4.447000000000004860e+01,4.603250000000005571e+01,4.614187500000005571e+01,4.703250000000005571e+01,4.729812500000005571e+01,4.540750000000005571e+01,4.348562500000005571e+01,4.061062500000005571e+01,3.564187500000004860e+01,3.042312500000004860e+01,2.490750000000004150e+01,1.851687500000003794e+01,1.162625000000003439e+01,6.266875000000030838e+00,8.450000000000277289e-01,-3.561249999999974936e+00,-7.264374999999978044e+00,-1.168624999999997982e+01,-1.520187499999998337e+01,-1.846749999999998337e+01,-2.068624999999998693e+01,-2.346749999999999048e+01,-2.529562499999999403e+01,-2.724874999999999403e+01,-2.810812499999999403e+01,-2.759249999999999403e+01,-2.751437499999999403e+01,-2.624874999999999403e+01,-2.452999999999999403e+01,-2.296749999999998693e+01,-2.192062499999998693e+01,-2.004562499999998693e+01,-1.887374999999998337e+01,-1.796749999999998337e+01,-1.620187499999998337e+01,-1.634249999999998337e+01,-1.727999999999998337e+01,-1.667062499999998337e+01,-1.596749999999998337e+01,-1.634249999999998337e+01,-1.656124999999998337e+01,-1.662374999999998337e+01,-1.745187499999998337e+01,-1.599874999999998337e+01,-1.445187499999998337e+01,-1.374874999999998337e+01,-1.265499999999998337e+01,-1.107687499999998160e+01,-9.373749999999979821e+00,-6.733124999999978044e+00,-3.186249999999975380e+00,-8.893749999999738254e-01,2.220000000000028617e+00,4.110625000000029949e+00,5.688750000000030838e+00,6.673125000000032614e+00,6.376250000000032614e+00,5.095000000000030838e+00,2.016875000000029061e+00,-1.576874999999973603e+00,-5.592499999999976268e+00,-8.498749999999978044e+00,-1.142062499999997982e+01,-1.299874999999998160e+01,-1.276437499999998160e+01,-1.337374999999998337e+01,-1.274874999999998160e+01,-1.124874999999997982e+01,-1.099874999999997982e+01,-1.031124999999997982e+01,-8.904999999999978044e+00,-8.420624999999978044e+00,-9.342499999999979821e+00,-9.279999999999979821e+00,-8.279999999999978044e+00,-7.576874999999978044e+00,-5.342499999999976268e+00,-2.920624999999974492e+00,-1.389374999999973603e+00,2.512500000000275624e-01,3.735625000000029949e+00,7.032500000000032614e+00,8.923125000000032614e+00,1.086062500000003439e+01,1.247000000000003794e+01,1.297000000000003794e+01,1.365750000000003794e+01,1.411062500000003794e+01,1.256375000000003617e+01,1.107937500000003439e+01,1.057937500000003439e+01,1.076687500000003439e+01,1.117312500000003439e+01,1.223562500000003439e+01,1.359500000000003794e+01,1.501687500000003794e+01,1.714187500000003794e+01,2.023562500000004150e+01,2.289187500000004150e+01,2.526687500000004505e+01,2.754812500000004860e+01,2.989187500000004860e+01,3.312625000000004860e+01,3.647000000000004860e+01,4.039187500000005571e+01,4.315750000000005571e+01,4.504812500000005571e+01,4.675125000000005571e+01,4.831375000000006992e+01,4.903250000000006992e+01,4.832937500000006992e+01,4.857937500000006992e+01,4.895437500000006992e+01,4.934500000000006992e+01,5.117312500000006992e+01,5.212625000000006992e+01,5.247000000000006992e+01,5.298562500000006992e+01,5.357937500000006992e+01,5.326687500000006992e+01,5.193875000000006992e+01,5.045437500000006992e+01,4.861062500000006281e+01,4.761062500000005571e+01,4.745437500000005571e+01,4.787625000000006281e+01,4.964187500000006992e+01,5.128250000000006992e+01,5.400125000000006992e+01,5.806375000000006992e+01,6.147000000000006992e+01,6.606375000000006992e+01,7.029812500000006992e+01,7.392312500000006992e+01,7.484500000000006992e+01,7.525125000000006992e+01,7.367312500000006992e+01,6.956375000000006992e+01,5.736062500000005571e+01,3.464187500000004150e+01,3.251250000000027285e+00,-3.512375000000000114e+01,-7.951437500000002956e+01,-1.313737500000000580e+02,-1.892487500000000864e+02
-3.567187500000002132e+01,-7.093750000000004263e+01,-8.323437500000005684e+01,-7.482812500000004263e+01,-4.453125000000002842e+01,-2.192187500000001421e+01,-7.328125000000005329e+00,-1.562500000000001041e-02,-1.562500000000001041e-02,3.125000000000002082e-02,3.125000000000002082e-02,-5.625000000000003331e-01,-1.562500000000000888e+00,-3.281250000000001776e+00,-4.968750000000003553e+00,-4.703125000000003553e+00,-3.687500000000002665e+00,-3.125000000000004441e-01,1.468750000000000888e+00,-9.843750000000006661e-01,-3.343750000000002665e+00,-9.703125000000007105e+00,-1.217187500000000711e+01,-8.125000000000003553e+00,-5.359375000000002665e+00,2.937500000000002665e+00,9.687500000000007105e+00,1.067187500000000711e+01,1.335937500000000888e+01,1.067187500000000711e+01,4.937500000000003553e+00,2.421875000000001776e+00,-1.046875000000000444e+00,-2.859375000000001776e+00,-1.171875000000000666e+00,-2.406250000000001332e+00,-5.046875000000003553e+00,-4.359375000000002665e+00,-5.375000000000003553e+00,-3.390625000000002220e+00,1.156250000000001332e+00,-2.015625000000000888e+00,-6.234375000000004441e+00,-1.181250000000000711e+01,-1.807812500000001421e+01,-1.312500000000001066e+01,-3.656250000000003109e+00,5.390625000000003553e+00,1.326562500000001066e+01,8.000000000000007105e+00,-3.703125000000002220e+00,-1.565625000000001066e+01,-2.784375000000001776e+01,-2.895312500000001776e+01,-2.440625000000001421e+01,-1.781250000000001066e+01,-8.015625000000001776e+00,-1.749999999999998890e+00,4.015625000000003553e+00,1.032812500000000711e+01,1.520312500000000711e+01,1.793750000000001066e+01,1.578125000000000888e+01,9.812500000000007105e+00,9.687500000000004441e-01,-6.328125000000005329e+00,-7.218750000000005329e+00,-3.546875000000003109e+00,4.984375000000001776e+00,1.571875000000001066e+01,2.253125000000001421e+01,2.489062500000001776e+01,2.279687500000001421e+01,1.640625000000001066e+01,9.890625000000007105e+00,5.328125000000003553e+00,2.515625000000001776e+00,1.687500000000001332e+00,1.937500000000001332e+00,2.625000000000001776e+00,3.359375000000002220e+00,5.218750000000003553e+00,6.531250000000004441e+00,8.296875000000005329e+00,1.103125000000000711e+01,1.101562500000000711e+01,1.342187500000000711e+01,1.284375000000000711e+01,9.875000000000007105e+00,1.006250000000000711e+01,4.609375000000003553e+00,1.000000000000000444e+00,-2.046875000000003109e+00,-9.109375000000007105e+00,-1.270312500000001066e+01,-1.490625000000001066e+01,-1.548437500000001066e+01,-1.162500000000000711e+01,-4.718750000000002665e+00,-6.875000000000002220e-01,1.703125000000001554e+00,5.156250000000006661e-01,-7.703125000000005329e+00,-1.201562500000000711e+01,-1.418750000000000888e+01,-1.387500000000000888e+01,-5.515625000000003553e+00,-7.500000000000005551e-01,1.859375000000000888e+00,4.671875000000002665e+00,3.093750000000001776e+00,4.578125000000003553e+00,6.781250000000005329e+00,8.312500000000005329e+00,6.546875000000003553e+00,1.546875000000000222e+00,-4.843750000000007772e-01,-7.125000000000005329e+00,-6.062500000000005329e+00,-2.625000000000001776e+00,-7.031250000000005329e+00,-1.156250000000000888e+00,-7.968750000000008882e-01,-1.468750000000001332e+00,5.921875000000003553e+00,2.828125000000002220e+00,1.312500000000000888e+00,-1.062500000000000888e+00,-6.156250000000003553e+00,-4.859375000000003553e+00,-4.343750000000002665e+00,-1.140625000000000444e+00,-2.031249999999997780e-01,-4.843750000000001110e-01,6.875000000000002220e-01,1.140625000000000666e+00,6.421875000000003553e+00,7.421875000000004441e+00,9.359375000000007105e+00,7.593750000000005329e+00,-2.468750000000002220e+00,-3.843750000000003109e+00,-1.025000000000000533e+01,-1.046875000000000533e+01,2.031250000000001776e+00,4.296875000000003553e+00,1.301562500000000711e+01,1.618750000000001066e+01,8.093750000000003553e+00,8.218750000000003553e+00,2.593750000000001332e+00,-1.703125000000000888e+00,-2.265625000000000888e+00,-5.484375000000003553e+00,-4.281250000000002665e+00,1.562499999999977796e-02,3.625000000000002220e+00,4.078125000000002665e+00,2.359375000000001776e+00,-3.171875000000002220e+00,-6.734375000000005329e+00,-4.812500000000003553e+00,-2.937500000000001776e+00,7.968750000000006661e-01,4.437500000000003553e+00,3.109375000000002220e+00,2.062500000000001332e+00,1.671875000000000888e+00,-1.015625000000000444e+00,-8.906250000000004441e-01,6.250000000000004441e-01,9.375000000000019429e-02,1.531250000000000888e+00,2.671875000000001332e+00,9.843750000000004441e-01,5.468750000000002220e-01,3.906250000000002220e-01,-3.124999999999955591e-02,2.375000000000001776e+00,6.703125000000003553e+00,7.234375000000005329e+00,7.781250000000005329e+00,6.437500000000003553e+00,4.687500000000006661e-01,1.093750000000000444e+00,1.812500000000001776e+00,3.609375000000003553e+00,8.421875000000007105e+00,4.828125000000004441e+00,-3.124999999999955591e-02,-5.281250000000003553e+00,-1.159375000000000711e+01,-9.921875000000007105e+00,-6.640625000000005329e+00,-4.718750000000003553e+00,-2.656250000000000000e-01,1.156250000000000444e+00,1.375000000000000666e+00,4.578125000000002665e+00,4.546875000000002665e+00,8.437500000000005551e-01,-7.968750000000006661e-01,-5.687500000000003553e+00,-9.890625000000007105e+00,-7.156250000000005329e+00,-7.828125000000005329e+00,-6.750000000000005329e+00,-3.046875000000002665e+00,-5.687500000000003553e+00,-4.421875000000002665e+00,-1.437500000000000888e+00,-3.109375000000001776e+00,5.625000000000000000e-01,1.375000000000000666e+00,-9.375000000000006661e-01,1.750000000000000888e+00,2.812500000000000000e-01,2.031249999999997780e-01,9.531250000000003331e-01,-8.281250000000006661e-01,-6.250000000000004441e-01,-1.875000000000001332e+00,-1.453125000000001110e+00,-2.328125000000001332e+00,-3.500000000000001776e+00,-9.062500000000002220e-01,-7.968750000000001110e-01,1.453125000000001332e+00,3.921875000000002665e+00,1.062500000000000888e+00,3.437500000000003331e-01,1.875000000000003331e-01,-7.500000000000002220e-01,1.750000000000001332e+00,2.781250000000001776e+00,1.250000000000000888e+00,3.437500000000000000e-01,-1.812500000000001554e+00,-3.218750000000002665e+00,-3.078125000000002665e+00,-3.281250000000002665e+00,-2.750000000000001776e+00,-2.484375000000001776e+00,-3.312500000000002665e+00,-3.921875000000002665e+00,-4.500000000000003553e+00,-5.906250000000003553e+00,-3.968750000000002665e+00,-1.781250000000000888e+00,-6.249999999999955591e-02,5.250000000000003553e+00,7.015625000000004441e+00,8.390625000000003553e+00,1.054687500000000533e+01,8.656250000000005329e+00,6.515625000000004441e+00,5.328125000000003553e+00,2.046875000000000888e+00,-1.359375000000001110e+00,-1.859375000000001332e+00,-4.359375000000003553e+00,-5.109375000000003553e+00,-2.531250000000001776e+00,-1.562500000000001332e+00,5.156250000000003331e-01,2.500000000000001776e+00,1.640625000000001332e+00,-2.031249999999997780e-01,-1.531250000000000888e+00,-3.046875000000001776e+00,-3.234375000000002220e+00,-1.812500000000001332e+00,-1.062500000000000888e+00,-4.218750000000003331e-01,-1.250000000000001110e-01,-4.218750000000002776e-01,-3.750000000000002220e-01,-7.812500000000004441e-01,-2.031250000000000888e+00,-3.593750000000001776e+00,-7.000000000000003553e+00,-9.828125000000007105e+00,-1.048437500000000711e+01,-1.146875000000000888e+01,-7.593750000000005329e+00,-3.078125000000001776e+00,-5.156249999999993339e-01,4.390625000000003553e+00,3.281250000000002665e+00,1.015625000000000444e+00,-5.000000000000013323e-01,-4.796875000000004441e+00,-3.812500000000003553e+00,-1.343750000000001110e+00,4.375000000000001110e-01,3.984375000000002220e+00,4.328125000000002665e+00,1.828125000000001110e+00,8.593750000000006661e-01,-2.031250000000000888e+00,-6.390625000000005329e+00,-7.265625000000005329e+00,-8.078125000000005329e+00,-5.421875000000003553e+00,2.984375000000003109e+00,9.578125000000007105e+00,1.226562500000000711e+01,1.134375000000000888e+01,5.703125000000004441e+00,-1.734375000000000444e+00,-3.437500000000001776e+00,-3.890625000000002220e+00,-4.062500000000002665e+00,9.375000000000000000e-02,-1.718750000000001332e+00,-3.562500000000002665e+00,-3.546875000000001776e+00,-8.046875000000003553e+00,-6.031250000000003553e+00,-2.125000000000000888e+00,4.687499999999977796e-02,7.125000000000003553e+00,8.906250000000003553e+00,5.906250000000003553e+00,4.687500000000002665e+00,-2.531250000000001332e+00,-7.406250000000004441e+00,-6.218750000000003553e+00,-7.390625000000003553e+00,-2.140625000000000888e+00,3.500000000000001776e+00,5.031250000000003553e+00,9.968750000000007105e+00,9.500000000000007105e+00,5.906250000000003553e+00,3.500000000000001332e+00,-2.187500000000002220e+00,-5.484375000000004441e+00,-4.000000000000003553e+00,-4.296875000000002665e+00,-3.609375000000000888e+00,-2.812500000000000888e+00,-7.031250000000004441e+00,-6.546875000000004441e+00,-4.046875000000003553e+00,-8.593750000000008882e-01,8.453125000000005329e+00,1.375000000000000888e+01,1.462500000000001066e+01,1.334375000000000711e+01,5.328125000000002665e+00,-3.125000000000001776e+00,-6.265625000000004441e+00,-7.656250000000005329e+00,-4.453125000000002665e+00,2.140625000000001332e+00,5.015625000000003553e+00,7.343750000000003553e+00,8.062500000000005329e+00,5.953125000000004441e+00,4.875000000000003553e+00,3.468750000000002220e+00,1.968750000000001332e+00,1.296875000000000888e+00,6.093750000000004441e-01,1.875000000000001110e-01,-3.125000000000002776e-02,-1.562500000000001110e-01,-1.562500000000001110e-01,-9.375000000000006939e-02,-3.469446951953614189e-18,4.687500000000003469e-02,3.125000000000002776e-02,-4.687500000000003469e-02,-4.687500000000004163e-02,-4.687500000000004163e-02,-4.687500000000004857e-02,3.125000000000002082e-02,1.562500000000001388e-02,4.687500000000002776e-02,1.250000000000000833e-01,9.375000000000005551e-02,9.375000000000005551e-02,4.687500000000002776e-02,-4.687500000000002776e-02,-3.125000000000002082e-02,-3.125000000000002082e-02,-1.562500000000001041e-02,1.562500000000001041e-02,-1.562500000000001041e-02,1.562500000000001041e-02,4.687500000000002776e-02,7.812500000000005551e-02,1.250000000000000833e-01,7.812500000000005551e-02,6.250000000000004163e-02,3.125000000000002776e-02,1.562500000000001041e-02,4.687500000000002776e-02,-4.687500000000002776e-02,-9.375000000000006939e-02,-2.031250000000001665e-01,-2.656250000000002220e-01,-1.406250000000001110e-01,-4.687500000000004163e-02,1.406250000000001110e-01,2.187500000000001665e-01,1.718750000000001388e-01,9.375000000000008327e-02,-3.125000000000002082e-02,-4.687500000000002776e-02,-3.125000000000002082e-02,3.125000000000002776e-02,6.250000000000004163e-02,4.687500000000002776e-02,4.687500000000002776e-02,6.250000000000005551e-02,1.250000000000000833e-01,1.562500000000001110e-01,1.562500000000001110e-01,4.687500000000004163e-02,-6.250000000000002776e-02,-7.812500000000005551e-02,-7.812500000000008327e-02,9.375000000000005551e-02,2.968750000000001665e-01,4.062500000000002776e-01,5.937500000000004441e-01,1.234375000000000888e+00,2.656250000000002220e+00,5.562500000000004441e+00,1.006250000000000711e+01,1.390625000000001066e+01,1.679687500000001066e+01,1.607812500000000711e+01,1.104687500000000711e+01,6.656250000000004441e+00,9.218749999999993339e-01,-7.187500000000002220e-01,1.890625000000001776e+00,7.656250000000011102e-01,-7.343749999999988898e-01,-9.984375000000005329e+00,-2.035937500000001066e+01,-2.053125000000001066e+01,-7.781250000000003553e+00,2.406250000000001421e+01,5.256250000000002842e+01,6.504687500000004263e+01,5.018750000000002842e+01,7.859375000000003553e+00,-3.132812500000001776e+01,-5.859375000000003553e+01,-6.040625000000004263e+01,-4.350000000000002842e+01,-2.492187500000001421e+01,-5.750000000000004441e+00,1.687500000000001332e+00,6.578125000000004441e+00,8.656250000000007105e+00,3.500000000000001776e+00,2.531250000000001776e+00,-2.812500000000001332e+00,-6.203125000000003553e+00,-4.468750000000002665e+00,-4.921875000000002665e+00,-5.312500000000000000e-01,5.625000000000006661e-01,-7.812500000000000000e-02,-1.406250000000000000e-01,-5.750000000000003553e+00,-7.718750000000005329e+00,-7.781250000000005329e+00,-8.937500000000005329e+00,-3.031250000000001776e+00,1.656250000000000888e+00,4.250000000000002665e+00,1.067187500000000711e+01,1.170312500000000711e+01,1.332812500000000711e+01,1.379687500000000711e+01,9.203125000000005329e+00,4.187500000000002665e+00,-2.531250000000001332e+00,-5.156250000000003553e+00,-3.937500000000002665e+00,6.250000000000006661e-01,4.140625000000003553e+00,2.937500000000002220e+00,-2.921875000000001332e+00,-9.968750000000005329e+00,-1.242187500000000711e+01,-1.175000000000000711e+01,-4.109375000000001776e+00,1.953125000000001332e+00,4.468750000000003553e+00,7.734375000000005329e+00,4.640625000000003553e+00,3.953125000000002665e+00,4.203125000000002665e+00,1.093750000000000888e+00,1.656250000000000888e+00,2.187500000000000000e-01,-1.250000000000000666e+00,-9.218750000000006661e-01,-3.343750000000001776e+00,-3.406250000000002220e+00,-3.765625000000002665e+00,-3.765625000000002665e+00,-1.110223024625156540e-16,-5.625000000000004441e-01,-8.593750000000005551e-01,-1.656250000000000888e+00,-6.406250000000003553e+00,-5.250000000000003553e+00,-3.406250000000002665e+00,-1.125000000000001110e+00,4.046875000000002665e+00,4.859375000000003553e+00,3.953125000000002665e+00,3.671875000000002665e+00,2.265625000000001776e+00,1.171875000000000888e+00,2.171875000000001776e+00,-6.249999999999977796e-02,-2.703125000000001776e+00,-3.062500000000001776e+00,-5.531250000000003553e+00,-4.375000000000003553e+00,-3.750000000000002665e+00,-3.890625000000002665e+00,-2.390625000000001776e+00,-8.125000000000005551e-01,3.593750000000003109e+00,4.687500000000003553e+00,5.734375000000003553e+00,2.281250000000001776e+00,-4.593750000000002665e+00,-4.921875000000003553e+00,-7.296875000000003553e+00,-3.265625000000001332e+00,2.593750000000001776e+00,1.250000000000001110e+00,3.171875000000001776e+00,-6.093750000000008882e-01,-3.703125000000002665e+00,-8.125000000000006661e-01,9.374999999999983347e-02,4.046875000000002665e+00,6.859375000000005329e+00,4.890625000000003553e+00,1.781250000000001110e+00,-4.375000000000003331e-01,-4.437500000000002665e+00,-3.968750000000002665e+00,-9.687500000000007772e-01,-1.734375000000001332e+00,2.062500000000000888e+00,2.421875000000001332e+00,1.546875000000000888e+00,3.656250000000002665e+00,1.703125000000001110e+00,1.093750000000000833e-01,-1.812500000000001332e+00,-4.031250000000002665e+00,-5.640625000000003553e+00,-4.625000000000003553e+00,-2.140625000000001776e+00,-1.265625000000001110e+00,3.015625000000001776e+00,3.937500000000002665e+00,1.593750000000000888e+00,2.828125000000001776e+00,-1.625000000000000888e+00,-3.421875000000002220e+00,-6.093750000000005551e-01,-3.078125000000001776e+00,8.125000000000008882e-01,3.015625000000002220e+00,1.140625000000000888e+00,3.703125000000002220e+00,-2.500000000000000000e-01,-2.828125000000001332e+00,-3.531250000000002665e+00,-5.828125000000003553e+00,-2.734375000000001776e+00,-2.796875000000001776e+00,-2.234375000000000888e+00,-1.718750000000000888e+00,-3.265625000000001776e+00,1.687500000000001332e+00,5.296875000000003553e+00,8.312500000000005329e+00,1.081250000000000711e+01,5.734375000000003553e+00,1.484375000000000888e+00,-2.015625000000001332e+00,-5.921875000000003553e+00,-5.578125000000003553e+00,-6.453125000000003553e+00,-5.812500000000003553e+00,-3.046875000000001776e+00,-7.500000000000001110e-01,4.515625000000003553e+00,6.296875000000003553e+00,5.828125000000003553e+00,5.531250000000003553e+00,2.187500000000000000e-01,-2.609375000000002220e+00,-4.281250000000003553e+00,-7.765625000000005329e+00,-5.343750000000003553e+00,-3.718750000000001776e+00,-1.140625000000000000e+00,4.312500000000002665e+00,4.109375000000002665e+00,4.875000000000003553e+00,2.781250000000001776e+00,-1.734375000000001332e+00,-7.968750000000006661e-01,-1.500000000000001110e+00,8.281250000000000000e-01,4.015625000000002665e+00,2.484375000000001776e+00,2.078125000000001332e+00,6.875000000000005551e-01,3.281250000000003331e-01,1.656250000000001332e+00,2.250000000000001332e+00,1.484375000000000888e+00,-2.375000000000001776e+00,-3.703125000000002665e+00,-2.890625000000001776e+00,-1.828125000000001332e+00,2.796875000000002220e+00,2.437500000000001776e+00,-1.921875000000001332e+00,-2.468750000000001776e+00,-4.921875000000003553e+00,-2.687500000000001776e+00,4.000000000000002665e+00,4.859375000000003553e+00,6.062500000000003553e+00,5.250000000000003553e+00,1.406250000000000666e+00,6.406250000000003331e-01,3.906250000000001665e-01,-1.546875000000001332e+00,-3.265625000000002665e+00,-4.140625000000002665e+00,-6.921875000000003553e+00,-5.328125000000003553e+00,-2.937500000000001776e+00,-2.031250000000001332e+00,2.968750000000001332e+00,2.968750000000001332e+00,4.781250000000002665e+00,6.906250000000003553e+00,3.984375000000002665e+00,3.671875000000002665e+00,-9.062500000000004441e-01,-4.546875000000003553e+00,-5.390625000000003553e+00,-5.000000000000003553e+00,-1.671875000000001110e+00,-9.531250000000004441e-01,2.968750000000002220e-01,-6.250000000000005551e-01,-8.906250000000009992e-01,1.453125000000000888e+00,2.515625000000001776e+00,4.828125000000003553e+00,5.109375000000003553e+00,3.671875000000002665e+00,3.015625000000002220e+00,-2.031250000000004441e-01,-3.328125000000002665e+00,-3.484375000000002665e+00,-5.406250000000003553e+00,-2.828125000000001776e+00,4.843750000000001110e-01,-1.875000000000004996e-01,1.562500000000000666e+00,-1.015625000000000666e+00,-1.953125000000000888e+00,-2.812500000000000000e-01,2.031250000000003331e-01,4.359375000000002665e+00,4.812500000000002665e+00,4.625000000000002665e+00,5.156250000000002665e+00,2.218750000000001332e+00,2.390625000000001776e+00,1.328125000000000888e+00,-2.593750000000001332e+00,-4.937500000000003553e+00,-7.656250000000005329e+00,-7.781250000000005329e+00,-3.187500000000002665e+00,2.562500000000002220e+00,5.921875000000005329e+00,6.328125000000005329e+00,3.921875000000002665e+00,2.968750000000003331e-01,-1.906250000000001332e+00,-5.625000000000005551e-01,-1.109375000000000888e+00,-1.937500000000001554e+00,-7.187500000000005551e-01,-3.531250000000002665e+00,-1.671875000000001332e+00,4.843750000000002220e-01,6.718750000000002220e-01,3.296875000000002220e+00,2.937500000000001776e+00,2.765625000000001776e+00,1.609375000000000888e+00,1.343750000000000444e+00,1.656250000000001110e+00,1.859375000000001554e+00,3.484375000000002665e+00,1.343750000000001110e+00,-1.875000000000001332e+00,-4.421875000000002665e+00,-7.468750000000004441e+00,-6.296875000000003553e+00,-3.734375000000002220e+00,-2.421875000000001776e+00,2.031250000000002220e-01,1.375000000000000888e+00,3.281250000000002220e+00,5.437500000000003553e+00,5.281250000000003553e+00,2.218750000000001332e+00,-3.109375000000002220e+00,-8.000000000000005329e+00,-1.081250000000000711e+01,-7.734375000000005329e+00,-2.890625000000001776e+00,3.015625000000002220e+00,8.484375000000005329e+00,8.281250000000005329e+00,7.640625000000005329e+00,5.000000000000003553e+00,1.250000000000000888e+00,-4.687500000000005551e-02,-1.140625000000000888e+00,-1.015625000000000444e+00,-1.265625000000000888e+00,-1.062500000000000666e+00,-2.296875000000001332e+00,-4.562500000000002665e+00,-3.171875000000001776e+00,-1.250000000000000888e+00,1.828125000000000888e+00,5.390625000000003553e+00,3.796875000000002665e+00,-6.093749999999998890e-01,-3.687500000000001776e+00,-5.140625000000002665e+00,-1.921875000000000888e+00,2.656250000000001776e+00,4.218750000000002665e+00,3.765625000000002220e+00,-9.218750000000004441e-01,-3.031250000000001776e+00,-2.875000000000001776e+00,-3.640625000000002220e+00,1.562500000000000000e-01,-1.562500000000022204e-02,-3.125000000000004441e-01,3.812500000000001776e+00,3.593750000000001776e+00,4.625000000000003553e+00,4.406250000000003553e+00,-1.765625000000001332e+00,-4.703125000000003553e+00,-5.187500000000003553e+00,-3.625000000000003109e+00,2.453125000000000888e+00,6.046875000000003553e+00,6.937500000000004441e+00,4.234375000000002665e+00,5.781250000000006661e-01,-1.125000000000000444e+00,-3.250000000000001776e+00,-1.984375000000001332e+00,-2.531250000000001332e+00,-4.203125000000002665e+00,-4.203125000000002665e+00,-3.812500000000002665e+00,-1.609375000000001110e+00,7.968750000000006661e-01,3.734375000000002665e+00,1.906250000000001332e+00,5.625000000000005551e-01,-1.140625000000000444e+00,-5.625000000000003553e+00,-3.750000000000002220e+00,-4.656250000000003553e+00,-3.265625000000002220e+00,9.687500000000007772e-01,9.062500000000008882e-01,3.343750000000002665e+00,2.890625000000002665e+00,2.593750000000001776e+00,4.031250000000003553e+00,5.140625000000003553e+00,8.515625000000005329e+00,8.546875000000005329e+00,6.390625000000003553e+00,4.265625000000002665e+00,-1.468750000000000666e+00,-4.843750000000002665e+00,-4.453125000000002665e+00,-5.828125000000003553e+00,-3.796875000000002665e+00,-1.015625000000000666e+00,-1.593750000000001332e+00,-1.000000000000000888e+00,-6.562500000000005551e-01,-2.343750000000001776e+00,-2.812500000000001776e+00,-2.187500000000001332e+00,-2.343750000000001332e+00,-7.500000000000003331e-01,1.296875000000000888e+00,2.562500000000001776e+00,3.218750000000001776e+00,2.187500000000001332e+00,-9.375000000000011102e-02,-2.625000000000001776e+00,-3.187500000000001776e+00,-2.875000000000001776e+00,2.187500000000002220e-01,3.218750000000002665e+00,2.265625000000001776e+00,3.000000000000001776e+00,2.187500000000000000e-01,-3.656250000000002665e+00,-1.984375000000001332e+00,-3.125000000000001332e+00,-3.937500000000001776e+00,-1.203125000000000888e+00,-2.906250000000001776e+00,-4.109375000000002665e+00,-3.437500000000004441e-01,-1.562500000000000000e-01,1.546875000000000666e+00,5.593750000000003553e+00,2.734375000000001332e+00,1.265625000000000666e+00,4.843750000000000000e-01,-2.015625000000001776e+00,7.812500000000000000e-02,1.687500000000001110e+00,3.187500000000002220e+00,3.265625000000002220e+00,8.750000000000006661e-01,1.421875000000000666e+00,9.375000000000002220e-01,3.546875000000001776e+00,9.609375000000005329e+00,9.953125000000005329e+00,9.296875000000005329e+00,5.562500000000002665e+00,-4.421875000000002665e+00,-8.968750000000005329e+00,-1.035937500000000711e+01,-9.187500000000005329e+00,-7.812500000000000000e-01,2.859375000000001776e+00,5.218750000000004441e+00,4.796875000000003553e+00,-1.187500000000000222e+00,-2.218750000000000888e+00,-6.250000000000003553e+00,-6.359375000000003553e+00,-2.968750000000001776e+00,-4.421875000000002665e+00,-3.750000000000002220e-01,4.687499999999977796e-02,-2.656250000000001776e+00,6.249999999999988898e-02,-1.750000000000000888e+00,-1.546875000000000666e+00,3.078125000000001776e+00,2.218750000000001332e+00,3.500000000000002665e+00,2.921875000000002220e+00,-1.000000000000000666e+00,-4.375000000000003331e-01,-1.546875000000001110e+00,1.187500000000000666e+00,2.625000000000001776e+00,-4.687500000000007216e-01,8.437500000000002220e-01,-3.578125000000001776e+00,-4.593750000000002665e+00,-1.562500000000000347e-02,-2.968750000000001776e+00,-3.125000000000004441e-01,1.984375000000000888e+00,-2.468750000000001332e+00,9.531250000000006661e-01,-4.687500000000008882e-01,-4.640625000000003553e+00,-1.562500000000000666e+00,-2.765625000000001332e+00,1.843750000000002220e+00,9.921875000000007105e+00,1.303125000000000888e+01,1.443750000000001066e+01,9.328125000000007105e+00,6.093750000000000000e-01,-8.375000000000007105e+00,-1.153125000000000888e+01,-1.073437500000000711e+01,-7.968750000000005329e+00,-1.078125000000001110e+00,-9.375000000000000000e-02,3.125000000000000000e-02,2.156250000000001776e+00,1.593750000000001110e+00,3.781250000000002665e+00,5.500000000000003553e+00,2.578125000000001776e+00,-2.000000000000001332e+00,-5.437500000000004441e+00,-7.812500000000005329e+00,-5.328125000000003553e+00,6.250000000000000000e-02,1.765625000000001332e+00,3.859375000000002665e+00,1.093750000000000666e+00,-3.203125000000001776e+00,-1.687500000000000888e+00,-3.328125000000002220e+00,3.593750000000004441e-01,6.687500000000004441e+00,5.625000000000003553e+00,8.375000000000005329e+00,5.546875000000004441e+00,-1.531250000000000888e+00,-1.734375000000001332e+00,-5.609375000000003553e+00,-4.859375000000002665e+00,-2.140625000000001332e+00,-5.203125000000003553e+00,-3.250000000000001776e+00,-3.421875000000001776e+00,-1.546875000000000444e+00,5.296875000000003553e+00,5.828125000000004441e+00,5.703125000000004441e+00,7.968750000000013323e-01,-7.046875000000003553e+00,-9.343750000000005329e+00,-8.937500000000005329e+00,-2.484375000000001776e+00,5.187500000000003553e+00,1.117187500000000711e+01,1.309375000000000888e+01,9.093750000000005329e+00,4.062500000000002665e+00,-4.359375000000001776e+00,-8.796875000000005329e+00,-8.421875000000005329e+00,-7.750000000000005329e+00,-2.015625000000001332e+00,2.781250000000001776e+00,4.875000000000003553e+00,8.109375000000005329e+00,8.828125000000005329e+00,5.640625000000003553e+00,2.718750000000001776e+00,-2.296875000000001776e+00,-8.265625000000005329e+00,-7.265625000000004441e+00,-6.359375000000004441e+00,-3.468750000000002220e+00,1.703125000000000888e+00,-4.375000000000004441e-01,-1.031250000000000666e+00,-3.531250000000002220e+00,-5.937500000000003553e+00,-2.968750000000001776e+00,-1.328125000000001110e+00,4.859375000000002665e+00,8.625000000000005329e+00,1.196875000000000711e+01,1.660937500000001066e+01,1.403125000000000888e+01,1.954687500000001421e+01,2.882812500000002132e+01,4.190625000000002842e+01,6.740625000000004263e+01,7.167187500000005684e+01,5.578125000000004263e+01,2.165625000000002132e+01
-6.125000000000002842e+01,-8.787500000000004263e+01,-2.962500000000001421e+01,6.250000000000000000e-02,5.000000000000002220e-01,6.250000000000000000e-02,-3.750000000000002220e-01,-1.250000000000000833e-01,1.250000000000000555e-01,6.250000000000002776e-02,6.250000000000002776e-02,1.250000000000000555e-01,-6.250000000000002776e-02,-3.125000000000001665e-01,-1.250000000000000833e-01,-1.875000000000000888e+00,-5.750000000000002665e+00,-4.312500000000001776e+00,4.062500000000001776e+00,1.081250000000000533e+01,4.062500000000002665e+00,-1.081250000000000355e+01,-1.162500000000000533e+01,-6.437500000000003553e+00,-1.750000000000000888e+00,1.287500000000000355e+01,7.750000000000001776e+00,-1.293750000000000533e+01,5.000000000000017764e-01,2.281250000000001421e+01,8.875000000000005329e+00,-1.600000000000000711e+01,-1.431250000000000711e+01,8.687500000000003553e+00,1.400000000000000533e+01,-7.375000000000001776e+00,-1.031250000000000355e+01,7.125000000000003553e+00,9.375000000000008882e-01,-1.262500000000000711e+01,-3.750000000000002665e+00,1.112500000000000355e+01,1.512500000000000711e+01,-3.437500000000001776e+00,-2.681250000000001421e+01,-1.768750000000000711e+01,5.625000000000004441e+00,1.225000000000000711e+01,9.312500000000003553e+00,7.250000000000003553e+00,6.500000000000003553e+00,-6.750000000000001776e+00,-2.450000000000001066e+01,-1.581250000000000711e+01,1.312500000000001998e+00,-1.250000000000000000e-01,-4.937500000000004441e+00,-6.875000000000000000e-01,5.750000000000005329e+00,2.250000000000000444e+00,-6.187500000000005329e+00,4.437500000000002665e+00,2.475000000000001421e+01,1.293750000000000533e+01,-1.912500000000000711e+01,-1.493750000000000533e+01,1.012500000000000711e+01,1.375000000000000888e+00,-1.468750000000000711e+01,2.625000000000002665e+00,2.087500000000000711e+01,1.387500000000000533e+01,3.187500000000001776e+00,1.062500000000000666e+00,7.500000000000003331e-01,1.875000000000000555e-01,2.500000000000001665e-01,3.750000000000002220e-01,4.375000000000002220e-01,5.625000000000002220e-01,6.250000000000002220e-01,4.375000000000001110e-01,8.750000000000003331e-01,3.687500000000001776e+00,4.187500000000001776e+00,8.750000000000003331e-01,1.187500000000000888e+00,5.250000000000002665e+00,1.012500000000000355e+01,2.625000000000000444e+00,-1.156250000000000533e+01,2.187500000000001776e+00,1.606250000000000711e+01,-6.125000000000003553e+00,-1.812500000000000711e+01,-3.749999999999991118e-01,4.062500000000001776e+00,-9.562500000000003553e+00,-1.100000000000000533e+01,3.187500000000002220e+00,1.412500000000000711e+01,5.750000000000002665e+00,-7.500000000000003553e+00,-6.250000000000003553e+00,-8.000000000000003553e+00,-1.062500000000000533e+01,6.875000000000000000e-01,5.750000000000002665e+00,4.375000000000002665e+00,4.500000000000002665e+00,-4.187500000000001776e+00,-6.750000000000003553e+00,3.187500000000001332e+00,6.312500000000002665e+00,6.562500000000002665e+00,9.812500000000003553e+00,-5.875000000000002665e+00,-2.137500000000001066e+01,1.750000000000000000e+00,1.431250000000000711e+01,-3.125000000000000888e+00,-3.062500000000000444e+00,-5.312500000000001776e+00,-8.437500000000003553e+00,1.075000000000000533e+01,1.162500000000000533e+01,-3.562500000000001776e+00,-3.812500000000001776e+00,-2.187500000000000888e+00,-6.375000000000002665e+00,-2.312500000000000888e+00,6.062500000000002665e+00,1.250000000000000888e+00,-1.812500000000000444e+00,3.812500000000001332e+00,-4.375000000000001776e+00,-1.212500000000000355e+01,8.562500000000005329e+00,2.568750000000001421e+01,-2.250000000000000000e+00,-2.081250000000001066e+01,6.625000000000003553e+00,1.125000000000000711e+01,-1.250000000000000711e+01,-2.062500000000000711e+01,-4.687500000000001776e+00,3.156250000000001421e+01,2.762500000000001421e+01,-1.856250000000000711e+01,-2.181250000000000711e+01,8.187500000000003553e+00,1.750000000000000711e+01,5.375000000000003553e+00,-1.206250000000000355e+01,-1.756250000000000711e+01,-3.937500000000001776e+00,1.475000000000000711e+01,1.800000000000000711e+01,-4.375000000000000000e-01,-1.756250000000000711e+01,-7.375000000000002665e+00,6.375000000000002665e+00,1.250000000000004441e-01,-8.750000000000000000e-01,3.812500000000001776e+00,-1.750000000000001110e+00,2.187500000000000888e+00,7.500000000000003553e+00,-7.000000000000002665e+00,-9.937500000000003553e+00,7.750000000000003553e+00,9.312500000000003553e+00,-5.625000000000002665e+00,-9.437500000000003553e+00,4.312500000000001776e+00,1.450000000000000711e+01,-1.375000000000000000e+00,-1.800000000000000711e+01,-1.687500000000000000e+00,1.562500000000000711e+01,4.937500000000002665e+00,-3.187500000000000888e+00,1.062500000000000666e+00,3.312500000000001776e+00,3.187500000000001776e+00,-7.500000000000003553e+00,-1.143750000000000355e+01,9.125000000000003553e+00,2.181250000000000711e+01,5.687500000000003553e+00,-1.800000000000000711e+01,-1.712500000000000711e+01,3.000000000000001332e+00,5.250000000000001776e+00,-9.375000000000004441e-01,3.500000000000001776e+00,-3.750000000000001776e+00,-9.250000000000003553e+00,7.750000000000002665e+00,1.106250000000000355e+01,-3.125000000000000888e+00,-2.500000000000001332e+00,2.499999999999995559e-01,-4.687500000000001776e+00,-6.125000000000001776e+00,-4.437500000000001776e+00,5.000000000000001776e+00,5.250000000000001776e+00,-9.750000000000003553e+00,-4.437500000000001776e+00,6.250000000000002665e+00,-3.500000000000001776e+00,-3.125000000000001776e+00,6.375000000000002665e+00,3.250000000000001776e+00,-4.437500000000001776e+00,-7.250000000000003553e+00,3.437500000000001776e+00,1.200000000000000711e+01,-2.125000000000000888e+00,-1.325000000000000711e+01,6.250000000000088818e-02,1.056250000000000533e+01,-1.250000000000000000e-01,-6.000000000000002665e+00,-2.312500000000000888e+00,-4.187500000000001776e+00,2.562500000000001332e+00,9.750000000000003553e+00,4.375000000000000000e-01,-3.625000000000002220e+00,-1.937500000000001110e+00,-5.562500000000002665e+00,1.437500000000000888e+00,1.056250000000000533e+01,2.312500000000000888e+00,-7.125000000000003553e+00,-3.562500000000001776e+00,2.125000000000000888e+00,1.562500000000000888e+00,-1.062500000000000444e+00,-2.812500000000001332e+00,-3.437500000000001776e+00,1.500000000000000888e+00,5.625000000000003553e+00,-2.812500000000000444e+00,-9.687500000000003553e+00,-1.312500000000000000e+00,4.125000000000002665e+00,9.375000000000006661e-01,-1.062500000000000666e+00,-2.000000000000000888e+00,5.500000000000003553e+00,1.018750000000000533e+01,-1.437500000000000888e+00,-3.125000000000001776e+00,6.437500000000003553e+00,6.250000000000008882e-01,-3.437500000000001776e+00,3.562500000000001776e+00,-3.312500000000001776e+00,-7.500000000000003553e+00,4.125000000000001776e+00,1.812500000000000000e+00,-6.750000000000003553e+00,2.437500000000000888e+00,8.812500000000003553e+00,-4.375000000000000000e-01,-5.875000000000002665e+00,-2.625000000000000888e+00,6.250000000000005551e-02,7.500000000000004441e-01,3.750000000000002220e-01,-1.250000000000000555e-01,-1.250000000000000555e-01,-3.125000000000001110e-01,-3.750000000000001665e-01,-6.250000000000002776e-02,1.875000000000000833e-01,1.875000000000000833e-01,1.250000000000000555e-01,-2.125000000000000888e+00,-8.125000000000003553e+00,-6.437500000000001776e+00,3.375000000000001332e+00,-1.500000000000001332e+00,-7.375000000000003553e+00,7.062500000000002665e+00,1.125000000000000355e+01,-3.687500000000000888e+00,-8.187500000000003553e+00,2.375000000000000888e+00,4.500000000000001776e+00,-1.006250000000000355e+01,-8.500000000000003553e+00,1.450000000000000711e+01,1.325000000000000711e+01,-8.812500000000003553e+00,-1.006250000000000355e+01,2.062500000000000888e+00,7.562500000000003553e+00,4.000000000000000888e+00,-1.093750000000000355e+01,-1.575000000000000533e+01,-1.875000000000000000e-01,1.050000000000000355e+01,1.387500000000000711e+01,1.275000000000000533e+01,-6.250000000000003553e+00,-1.668750000000000711e+01,2.500000000000000000e+00,9.375000000000003553e+00,-5.000000000000001776e+00,-5.812500000000001776e+00,2.375000000000000888e+00,5.437500000000002665e+00,5.000000000000008882e-01,-7.312500000000002665e+00,-5.625000000000001776e+00,-3.750000000000001776e+00,8.125000000000000000e-01,1.075000000000000533e+01,2.000000000000000888e+00,-5.187500000000002665e+00,9.312500000000003553e+00,7.062500000000001776e+00,-1.125000000000000533e+01,-1.275000000000000533e+01,-9.375000000000004441e-01,8.500000000000003553e+00,2.375000000000000888e+00,-5.437500000000002665e+00,2.250000000000001776e+00,6.125000000000003553e+00,5.750000000000002665e+00,7.000000000000002665e+00,-5.187500000000002665e+00,-1.350000000000000533e+01,-1.499999999999999556e+00,6.937500000000003553e+00,3.125000000000001332e+00,-2.812500000000000888e+00,-4.500000000000001776e+00,-5.625000000000006661e-01,-4.000000000000001776e+00,-6.375000000000001776e+00,3.875000000000001776e+00,7.000000000000001776e+00,7.187500000000003553e+00,1.187500000000000711e+01,2.312500000000001776e+00,-8.437500000000003553e+00,-5.375000000000002665e+00,-5.750000000000003553e+00,-3.687500000000001776e+00,6.625000000000003553e+00,5.500000000000002665e+00,-7.500000000000002220e-01,1.500000000000000666e+00,3.250000000000001332e+00,1.187500000000000444e+00,1.250000000000000555e-01,1.875000000000000833e-01,1.875000000000000833e-01,1.250000000000000555e-01,1.250000000000000555e-01,0.000000000000000000e+00,-1.875000000000000833e-01,-2.500000000000001110e-01,-1.250000000000000555e-01,1.875000000000001110e-01,3.125000000000001665e-01,0.000000000000000000e+00,-2.500000000000001110e-01,-1.250000000000000555e-01,0.000000000000000000e+00,1.250000000000000555e-01,1.875000000000000833e-01,-1.250000000000000833e-01,-2.500000000000001110e-01,6.250000000000002776e-02,2.500000000000001110e-01,1.875000000000000833e-01,-6.250000000000002776e-02,-2.500000000000001110e-01,-6.250000000000002776e-02,1.250000000000000555e-01,6.250000000000002776e-02,0.000000000000000000e+00,0.000000000000000000e+00,-6.250000000000002776e-02,-1.250000000000000555e-01,6.250000000000002776e-02,2.500000000000001110e-01,6.250000000000002776e-02,-1.250000000000000555e-01,-6.250000000000002776e-02,0.000000000000000000e+00,0.000000000000000000e+00,1.250000000000000555e-01,1.875000000000000833e-01,-1.875000000000000833e-01,-3.750000000000001665e-01,-6.250000000000002776e-02,6.250000000000002776e-02,6.250000000000002776e-02,1.875000000000000833e-01,1.875000000000000833e-01,0.000000000000000000e+00,-1.250000000000000555e-01,-1.250000000000000555e-01,-1.250000000000000555e-01,6.250000000000002776e-02,3.125000000000001665e-01,1.250000000000000833e-01,-3.125000000000001110e-01,-2.500000000000001110e-01,2.500000000000001110e-01,3.125000000000001110e-01,-6.250000000000002776e-02,-6.250000000000002776e-02,1.875000000000000833e-01,-1.250000000000000555e-01,-4.375000000000002220e-01,6.250000000000000000e-02,3.750000000000001665e-01,1.250000000000000555e-01,1.250000000000000833e-01,6.250000000000005551e-02,-1.387778780781445676e-17,5.000000000000002220e-01,5.625000000000003331e-01,2.000000000000000888e+00,7.500000000000003553e+00,1.087500000000000533e+01,6.750000000000003553e+00,-1.937500000000001332e+00,-7.062500000000003553e+00,-1.687500000000000444e+00,1.375000000000001332e+00,-5.000000000000001110e-01,6.062500000000002665e+00,6.125000000000002665e+00,-3.437500000000001776e+00,-9.750000000000005329e+00,-2.400000000000001066e+01,-3.400000000000001421e+01,9.562500000000007105e+00,8.837500000000004263e+01,8.231250000000002842e+01,-2.037500000000000711e+01,-7.693750000000002842e+01,-4.281250000000001421e+01,3.750000000000008882e-01,5.437500000000003553e+00,-4.000000000000001776e+00,-6.125000000000003553e+00,-2.437500000000001776e+00,9.500000000000003553e+00,9.500000000000003553e+00,-3.187500000000000888e+00,-1.000000000000000000e+00,1.125000000000000444e+00,-4.625000000000002665e+00,-3.250000000000001776e+00,-9.375000000000003331e-01,-1.750000000000000666e+00,1.187500000000000444e+00,7.312500000000002665e+00,6.875000000000000000e-01,-9.000000000000003553e+00,7.500000000000008882e-01,2.062500000000000888e+00,-1.150000000000000533e+01,-4.750000000000001776e+00,6.687500000000003553e+00,4.187500000000001776e+00,2.812500000000001332e+00,3.750000000000000000e-01,5.000000000000000000e-01,7.312500000000002665e+00,8.562500000000003553e+00,3.312500000000001332e+00,-1.875000000000000444e+00,-7.625000000000001776e+00,-1.187500000000000533e+01,-2.250000000000001776e+00,1.387500000000000533e+01,1.356250000000000533e+01,-1.062500000000000444e+00,-1.106250000000000711e+01,-1.306250000000000711e+01,-8.750000000000003553e+00,3.312500000000000888e+00,9.500000000000003553e+00,5.812500000000002665e+00,-1.812500000000001110e+00,-6.250000000000002665e+00,4.125000000000002665e+00,7.812500000000003553e+00,-3.937500000000001332e+00,-1.750000000000000000e+00,4.562500000000002665e+00,-3.875000000000000888e+00,-4.937500000000001776e+00,7.625000000000003553e+00,4.875000000000002665e+00,-1.306250000000000711e+01,-7.875000000000004441e+00,1.037500000000000355e+01,3.812500000000001776e+00,-4.812500000000001776e+00,2.375000000000001776e+00,1.625000000000000888e+00,-8.000000000000003553e+00,-9.500000000000005329e+00,3.750000000000001776e+00,1.150000000000000533e+01,-1.312500000000000888e+00,-4.312500000000001776e+00,7.875000000000003553e+00,8.125000000000008882e-01,-1.118750000000000533e+01,1.937500000000000888e+00,1.368750000000000711e+01,2.187500000000001776e+00,-1.312500000000000533e+01,-1.062500000000000355e+01,7.000000000000002665e+00,1.000000000000000355e+01,-5.062500000000002665e+00,-9.062500000000003553e+00,-4.375000000000000000e-01,1.562500000000000888e+00,1.687500000000000888e+00,9.187500000000003553e+00,5.875000000000002665e+00,-5.500000000000002665e+00,-8.062500000000003553e+00,-7.375000000000003553e+00,-1.875000000000000000e-01,5.812500000000003553e+00,4.250000000000001776e+00,4.625000000000001776e+00,-2.562500000000001776e+00,-8.000000000000003553e+00,-1.437500000000000222e+00,1.062500000000000444e+00,1.875000000000000666e+00,4.625000000000001776e+00,3.875000000000001776e+00,2.875000000000001332e+00,-2.250000000000000888e+00,-8.062500000000003553e+00,-7.500000000000000000e-01,2.562500000000001776e+00,-2.625000000000000888e+00,4.250000000000001776e+00,4.250000000000001776e+00,-6.875000000000003553e+00,-2.937500000000001776e+00,8.062500000000003553e+00,7.187500000000003553e+00,-4.375000000000001776e+00,-1.087500000000000533e+01,-8.125000000000008882e-01,8.312500000000003553e+00,-3.125000000000001776e+00,-9.937500000000005329e+00,4.250000000000001776e+00,7.687500000000003553e+00,8.125000000000003331e-01,1.437500000000000444e+00,-3.375000000000001332e+00,-4.687500000000001776e+00,1.125000000000000222e+00,6.250000000000000000e-01,1.750000000000000666e+00,-1.500000000000000888e+00,-3.500000000000001776e+00,7.250000000000003553e+00,5.625000000000002665e+00,-5.750000000000002665e+00,-5.062500000000001776e+00,-3.125000000000001110e-01,-2.250000000000001332e+00,-3.062500000000001332e+00,6.250000000000003553e+00,6.562500000000003553e+00,-7.812500000000003553e+00,-1.206250000000000355e+01,-1.124999999999999556e+00,1.456250000000000533e+01,1.556250000000000533e+01,-2.312500000000000888e+00,-9.312500000000003553e+00,-3.187500000000001332e+00,-5.625000000000004441e-01,3.375000000000001776e+00,2.937500000000001332e+00,-7.750000000000003553e+00,-1.037500000000000533e+01,3.500000000000000888e+00,9.625000000000003553e+00,-1.062500000000000444e+00,3.750000000000000000e-01,7.875000000000003553e+00,-2.625000000000001776e+00,-6.187500000000003553e+00,3.437500000000001332e+00,3.749999999999995559e-01,-8.250000000000003553e+00,-5.250000000000001776e+00,5.375000000000001776e+00,4.562500000000000888e+00,-4.500000000000002665e+00,3.062500000000001776e+00,1.075000000000000533e+01,-1.750000000000000888e+00,-1.281250000000000711e+01,-4.875000000000002665e+00,1.050000000000000355e+01,6.250000000000002665e+00,-6.812500000000003553e+00,2.187500000000000888e+00,8.062500000000003553e+00,-8.937500000000005329e+00,-1.062500000000000533e+01,1.081250000000000533e+01,1.362500000000000711e+01,-3.312500000000000888e+00,-9.562500000000003553e+00,-9.062500000000003553e+00,-3.125000000000000888e+00,1.231250000000000355e+01,1.118750000000000355e+01,-4.000000000000001776e+00,-8.687500000000003553e+00,-7.125000000000003553e+00,-5.625000000000008882e-01,4.625000000000001776e+00,2.875000000000001332e+00,8.250000000000003553e+00,4.687500000000001776e+00,-1.225000000000000533e+01,-5.625000000000001776e+00,1.237500000000000533e+01,4.437500000000001776e+00,-8.000000000000003553e+00,-3.062500000000001332e+00,6.249999999999977796e-02,-2.750000000000001776e+00,-2.562500000000000888e+00,6.875000000000006661e-01,1.812500000000000888e+00,2.500000000000000555e-01,4.125000000000001776e+00,8.125000000000000000e-01,-5.312500000000002665e+00,7.125000000000002665e+00,1.093750000000000355e+01,-7.437500000000002665e+00,-1.425000000000000711e+01,-1.812500000000000888e+00,4.875000000000002665e+00,4.375000000000001776e+00,6.000000000000002665e+00,-4.000000000000001776e+00,-1.387500000000000711e+01,6.250000000000000000e-01,1.543750000000000711e+01,3.312500000000001776e+00,-1.093750000000000533e+01,4.375000000000000000e-01,1.068750000000000533e+01,-8.125000000000008882e-01,-4.562500000000002665e+00,1.437500000000000666e+00,-5.500000000000002665e+00,-6.750000000000003553e+00,4.250000000000001776e+00,7.250000000000003553e+00,1.937500000000000888e+00,-4.750000000000001776e+00,-4.750000000000001776e+00,3.125000000000001110e-01,2.125000000000000888e+00,9.375000000000004441e-01,1.875000000000000833e-01,5.000000000000001776e+00,4.375000000000001776e+00,-4.687500000000001776e+00,-3.125000000000001332e+00,3.187500000000001332e+00,4.000000000000001776e+00,3.312500000000001776e+00,-5.375000000000003553e+00,-1.331250000000000711e+01,-4.750000000000002665e+00,5.562500000000002665e+00,7.750000000000003553e+00,1.006250000000000355e+01,2.250000000000000000e+00,-1.343750000000000533e+01,-7.437500000000002665e+00,9.750000000000003553e+00,5.687500000000002665e+00,-3.000000000000000888e+00,-2.500000000000000888e+00,-5.062500000000002665e+00,-1.062500000000000444e+00,4.937500000000001776e+00,1.062500000000000444e+00,-1.250000000000000444e+00,-2.500000000000001665e-01,5.625000000000002220e-01,4.062500000000001776e+00,3.750000000000001776e+00,-6.187500000000003553e+00,-7.250000000000003553e+00,6.750000000000003553e+00,1.087500000000000533e+01,7.500000000000004441e-01,-8.125000000000003553e+00,-8.875000000000003553e+00,-2.125000000000000888e+00,2.687500000000001332e+00,3.312500000000001776e+00,2.875000000000001332e+00,-4.062500000000001776e+00,-7.812500000000002665e+00,3.312500000000002665e+00,1.293750000000000711e+01,5.500000000000003553e+00,-5.937500000000001776e+00,-7.187500000000002665e+00,-4.375000000000001776e+00,-4.562500000000001776e+00,-3.250000000000001332e+00,4.062500000000001776e+00,6.812500000000002665e+00,3.437500000000001776e+00,4.125000000000001776e+00,-6.250000000000008882e-01,-6.062500000000002665e+00,3.312500000000001776e+00,6.062500000000002665e+00,-7.312500000000003553e+00,-6.187500000000002665e+00,8.250000000000003553e+00,3.937500000000002220e+00,-5.812500000000002665e+00,-1.875000000000000888e+00,-4.562500000000001776e+00,-6.625000000000001776e+00,9.187500000000003553e+00,1.550000000000000533e+01,6.250000000000000000e-01,-1.137500000000000533e+01,-1.200000000000000533e+01,-3.937500000000001776e+00,9.625000000000003553e+00,1.387500000000000711e+01,1.250000000000000888e+00,-9.562500000000003553e+00,-4.750000000000001776e+00,-1.000000000000000444e+00,6.250000000000000000e-02,6.125000000000002665e+00,1.500000000000000000e+00,-5.625000000000003553e+00,-3.187500000000001332e+00,-6.249999999999977796e-02,8.187500000000003553e+00,9.250000000000003553e+00,-4.437500000000001776e+00,-5.875000000000002665e+00,-1.625000000000000444e+00,-8.500000000000003553e+00,-3.500000000000002220e+00,1.350000000000000533e+01,1.256250000000000355e+01,-3.250000000000000888e+00,-8.500000000000003553e+00,-3.937500000000001776e+00,2.000000000000000444e+00,6.687500000000002665e+00,-1.437500000000000000e+00,-8.125000000000003553e+00,2.187500000000000888e+00,3.437500000000000888e+00,-9.750000000000003553e+00,-4.625000000000001776e+00,1.281250000000000533e+01,8.437500000000003553e+00,-6.500000000000002665e+00,-8.437500000000003553e+00,8.750000000000008882e-01,5.812500000000002665e+00,-3.750000000000001776e+00,-6.312500000000002665e+00,4.375000000000004441e-01,6.875000000000006661e-01,5.125000000000001776e+00,7.250000000000002665e+00,-5.125000000000002665e+00,-1.006250000000000533e+01,5.125000000000001776e+00,1.187500000000000533e+01,-3.125000000000000000e-01,-6.875000000000000000e-01,6.437500000000003553e+00,-1.437500000000000444e+00,-5.062500000000001776e+00,-2.000000000000000888e+00,-5.187500000000002665e+00,1.625000000000000000e+00,6.312500000000001776e+00,-5.875000000000003553e+00,-3.625000000000001776e+00,8.000000000000003553e+00,-1.625000000000001776e+00,-7.625000000000004441e+00,4.187500000000001776e+00,1.750000000000000888e+00,-8.187500000000003553e+00,1.375000000000000888e+00,9.000000000000003553e+00,-2.875000000000002220e+00,-5.000000000000002665e+00,9.062500000000003553e+00,4.812500000000001776e+00,-1.337500000000000533e+01,-8.312500000000003553e+00,8.875000000000003553e+00,4.875000000000002665e+00,-1.375000000000000666e+00,4.625000000000001776e+00,-2.437500000000001776e+00,-6.437500000000003553e+00,4.937500000000001776e+00,-1.187500000000001776e+00,-7.625000000000003553e+00,5.375000000000003553e+00,4.062500000000002665e+00,-5.750000000000002665e+00,-3.562500000000001776e+00,-2.875000000000001332e+00,3.812500000000002220e+00,9.250000000000005329e+00,-3.875000000000001776e+00,-2.750000000000001776e+00,9.000000000000003553e+00,-4.875000000000003553e+00,-1.350000000000000711e+01,6.937500000000003553e+00,1.362500000000000711e+01,-4.812500000000002665e+00,-5.312500000000002665e+00,6.625000000000002665e+00,-2.750000000000001776e+00,-7.437500000000003553e+00,5.375000000000002665e+00,8.000000000000003553e+00,6.375000000000003553e+00,5.125000000000003553e+00,-3.000000000000001776e+00,-5.562500000000003553e+00,-7.812500000000004441e+00,-1.081250000000000533e+01,6.875000000000008882e-01,1.225000000000000711e+01,8.312500000000003553e+00,-3.750000000000001776e+00,-6.250000000000001776e+00,1.750000000000001110e+00,1.062500000000000444e+00,-3.500000000000001776e+00,-5.437500000000002665e+00,-2.625000000000001332e+00,7.062500000000003553e+00,2.812500000000001776e+00,-5.500000000000002665e+00,-9.375000000000004441e-01,-1.187500000000000444e+00,1.062500000000000888e+00,4.312500000000001776e+00,-7.000000000000003553e+00,-2.187500000000000888e+00,1.637500000000000711e+01,5.437500000000000888e+00,-1.793750000000001066e+01,-1.068750000000000711e+01,1.212500000000000711e+01,1.056250000000000533e+01,-1.125000000000000444e+00,-3.875000000000001776e+00,-8.125000000000003553e+00,-6.250000000000000000e-02,6.812500000000003553e+00,-4.687500000000001776e+00,-4.375000000000000000e-01,5.687500000000002665e+00,-5.562500000000002665e+00,-2.375000000000000888e+00,4.500000000000001776e+00,2.125000000000000888e+00,4.375000000000001110e-01,-8.500000000000003553e+00,-7.937500000000003553e+00,6.500000000000002665e+00,1.043750000000000355e+01,7.812500000000003553e+00,7.000000000000003553e+00,1.312500000000000444e+00,-7.187500000000002665e+00,-1.187500000000000533e+01,-9.750000000000005329e+00,4.312500000000001776e+00,1.018750000000000533e+01,-5.187500000000001776e+00,-3.437500000000001776e+00,9.187500000000003553e+00,-5.500000000000003553e+00,-1.137500000000000533e+01,1.175000000000000711e+01,1.543750000000000711e+01,-4.062500000000002665e+00,-9.937500000000005329e+00,-6.812500000000003553e+00,-6.250000000000003553e+00,2.125000000000000444e+00,1.250000000000000533e+01,5.625000000000002665e+00,-9.500000000000003553e+00,-3.687500000000001776e+00,5.000000000000002665e+00,-5.250000000000002665e+00,-2.375000000000001776e+00,5.687500000000002665e+00,-1.750000000000000888e+00,4.562500000000001776e+00,1.218750000000000533e+01,-9.375000000000000000e-01,-1.125000000000000533e+01,-7.625000000000004441e+00,3.437500000000001776e+00,6.062500000000002665e+00,-1.875000000000002220e-01,-1.750000000000000666e+00,-6.500000000000001776e+00,-6.500000000000001776e+00,3.812500000000001332e+00,6.875000000000003553e+00,7.375000000000003553e+00,6.250000000000001776e+00,-5.000000000000003553e+00,-1.518750000000000711e+01,-1.018750000000000355e+01,5.437500000000002665e+00,9.250000000000005329e+00,1.250000000000004441e-01,1.000000000000000888e+00,1.143750000000000533e+01,7.000000000000003553e+00,-8.375000000000003553e+00,-8.437500000000003553e+00,-4.687500000000001776e+00,-5.250000000000002665e+00,5.687500000000002665e+00,7.437500000000003553e+00,-6.250000000000003553e+00,-2.500000000000001776e+00,9.937500000000005329e+00,5.937500000000003553e+00,-8.125000000000002220e-01,-8.125000000000004441e-01,-1.750000000000001110e+00,-7.250000000000002665e+00,-1.075000000000000355e+01,3.437500000000001776e+00,1.375000000000000533e+01,-2.000000000000001776e+00,-8.125000000000003553e+00,3.312500000000001332e+00,1.562500000000000888e+00,-9.500000000000003553e+00,-5.875000000000003553e+00,8.562500000000003553e+00,9.125000000000003553e+00,-3.750000000000002220e-01,-4.687500000000001776e+00,4.250000000000002665e+00,2.043750000000000711e+01,8.375000000000003553e+00,-1.781250000000000711e+01,-9.937500000000003553e+00,3.643750000000001421e+01,8.818750000000004263e+01,5.168750000000002842e+01
-1.170000000000000284e+02,2.500000000000000555e-01,-5.000000000000001110e-01,0.000000000000000000e+00,5.000000000000001110e-01,0.000000000000000000e+00,-5.000000000000001110e-01,2.500000000000000555e-01,0.000000000000000000e+00,0.000000000000000000e+00,0.000000000000000000e+00,0.000000000000000000e+00,2.500000000000000555e-01,-5.000000000000001110e-01,2.500000000000000555e-01,-2.500000000000000555e-01,7.500000000000002220e-01,-9.500000000000001776e+00,1.125000000000000178e+01,-8.000000000000001776e+00,1.800000000000000355e+01,-1.625000000000000355e+01,-6.000000000000000888e+00,1.425000000000000355e+01,-2.050000000000000355e+01,1.100000000000000355e+01,2.100000000000000355e+01,-3.075000000000000711e+01,4.500000000000001776e+00,1.975000000000000355e+01,-2.000000000000000000e+00,-6.500000000000001776e+00,-1.000000000000000178e+01,3.250000000000000000e+00,1.775000000000000355e+01,-9.250000000000001776e+00,-1.650000000000000355e+01,1.775000000000000355e+01,6.000000000000000888e+00,-2.675000000000000711e+01,2.025000000000000355e+01,-1.275000000000000355e+01,1.550000000000000355e+01,4.750000000000000000e+00,-2.075000000000000355e+01,-8.500000000000001776e+00,1.675000000000000355e+01,-8.500000000000001776e+00,1.075000000000000178e+01,-1.500000000000000444e+00,-4.000000000000000888e+00,1.950000000000000355e+01,-3.275000000000000711e+01,4.500000000000000000e+00,6.500000000000001776e+00,-4.750000000000001776e+00,0.000000000000000000e+00,-2.500000000000000000e+00,2.750000000000001776e+00,6.000000000000000888e+00,-7.500000000000002665e+00,-5.500000000000000000e+00,1.550000000000000355e+01,1.275000000000000355e+01,-1.550000000000000355e+01,-1.925000000000000711e+01,2.700000000000000711e+01,-3.000000000000000888e+00,-1.700000000000000355e+01,2.750000000000000000e+00,1.725000000000000355e+01,-4.000000000000000888e+00,2.000000000000000444e+00,-2.500000000000000555e-01,5.000000000000001110e-01,-2.500000000000000555e-01,0.000000000000000000e+00,5.000000000000001110e-01,-5.000000000000001110e-01,7.500000000000002220e-01,-2.500000000000000555e-01,2.500000000000000555e-01,5.000000000000001110e-01,-1.500000000000000444e+00,5.750000000000000888e+00,-1.500000000000000000e+00,-6.250000000000001776e+00,1.600000000000000355e+01,-2.150000000000000711e+01,3.750000000000000711e+01,-3.825000000000000711e+01,8.500000000000001776e+00,2.075000000000000355e+01,-9.750000000000001776e+00,-1.700000000000000355e+01,1.050000000000000355e+01,5.750000000000000888e+00,-9.750000000000001776e+00,-4.250000000000000888e+00,3.750000000000000888e+00,-2.500000000000000555e-01,1.800000000000000355e+01,-2.475000000000000711e+01,1.125000000000000355e+01,1.750000000000000000e+00,-1.850000000000000355e+01,1.125000000000000355e+01,5.250000000000001776e+00,-1.350000000000000355e+01,1.900000000000000355e+01,-9.750000000000001776e+00,-8.250000000000001776e+00,1.225000000000000355e+01,-6.500000000000001776e+00,8.000000000000001776e+00,-8.500000000000001776e+00,2.600000000000000355e+01,-3.925000000000000711e+01,3.500000000000000000e+00,4.050000000000001421e+01,-4.500000000000001421e+01,1.950000000000000355e+01,1.400000000000000355e+01,-4.575000000000001421e+01,4.475000000000001421e+01,-1.375000000000000355e+01,-1.500000000000000444e+00,1.750000000000000444e+00,-2.000000000000000444e+00,2.000000000000000444e+00,-1.025000000000000178e+01,9.750000000000001776e+00,7.250000000000001776e+00,-2.425000000000000711e+01,2.975000000000000711e+01,-1.950000000000000711e+01,4.500000000000001776e+00,-1.325000000000000355e+01,2.575000000000000711e+01,1.225000000000000178e+01,-5.225000000000001421e+01,3.675000000000000711e+01,8.500000000000001776e+00,-3.125000000000000711e+01,2.425000000000000711e+01,-3.025000000000000711e+01,9.500000000000001776e+00,5.900000000000000711e+01,-7.000000000000001421e+01,2.875000000000000711e+01,-1.475000000000000355e+01,2.025000000000000355e+01,-4.750000000000000000e+00,-2.250000000000000888e+00,-7.250000000000001776e+00,-7.000000000000001776e+00,1.500000000000000355e+01,-2.500000000000000000e+00,1.425000000000000355e+01,-2.300000000000000355e+01,-2.500000000000008882e-01,1.425000000000000355e+01,-7.250000000000001776e+00,-7.000000000000001776e+00,1.525000000000000355e+01,-7.750000000000001776e+00,-1.000000000000000178e+01,2.550000000000000711e+01,-1.750000000000000355e+01,-5.250000000000000888e+00,6.000000000000000888e+00,1.225000000000000355e+01,-1.550000000000000355e+01,7.000000000000001776e+00,-1.250000000000000355e+01,2.000000000000000355e+01,-2.500000000000000000e-01,-1.800000000000000355e+01,5.000000000000000000e-01,1.500000000000000355e+01,2.500000000000000000e+00,-2.150000000000000355e+01,3.025000000000000711e+01,-2.975000000000000711e+01,2.525000000000000711e+01,-8.750000000000001776e+00,-1.500000000000000355e+01,1.125000000000000355e+01,9.000000000000003553e+00,1.750000000000000000e+00,-3.750000000000001776e+00,-2.000000000000000355e+01,1.450000000000000355e+01,6.750000000000000888e+00,-1.825000000000000355e+01,1.550000000000000355e+01,2.250000000000000000e+00,-2.175000000000000355e+01,1.475000000000000355e+01,1.000000000000000355e+01,-1.275000000000000355e+01,-2.000000000000000444e+00,1.725000000000000355e+01,-2.600000000000000711e+01,2.225000000000000711e+01,-1.875000000000000711e+01,3.750000000000001332e+00,1.675000000000000355e+01,-1.675000000000000355e+01,-8.750000000000001776e+00,2.575000000000000711e+01,-1.800000000000000355e+01,-5.750000000000000888e+00,2.275000000000000711e+01,-2.275000000000000711e+01,2.100000000000000355e+01,-1.975000000000000355e+01,3.500000000000000888e+00,1.425000000000000355e+01,-6.250000000000000888e+00,-6.750000000000001776e+00,-4.500000000000000888e+00,1.625000000000000355e+01,-4.500000000000000888e+00,-1.250000000000000355e+01,1.600000000000000355e+01,-1.125000000000000355e+01,-5.750000000000000888e+00,2.225000000000000711e+01,-1.525000000000000355e+01,7.500000000000000000e-01,7.000000000000001776e+00,-8.250000000000001776e+00,-4.500000000000000888e+00,1.650000000000000355e+01,-7.250000000000001776e+00,-1.500000000000000444e+00,-2.750000000000000444e+00,4.000000000000000888e+00,-5.000000000000002220e-01,-1.000000000000000222e+00,0.000000000000000000e+00,-2.500000000000000555e-01,-5.750000000000001776e+00,1.175000000000000355e+01,-5.500000000000000888e+00,-2.750000000000000444e+00,-8.500000000000001776e+00,2.200000000000000355e+01,-2.575000000000000711e+01,2.425000000000000711e+01,-1.825000000000000355e+01,4.250000000000000888e+00,1.325000000000000355e+01,-7.750000000000001776e+00,-6.500000000000000888e+00,9.500000000000001776e+00,6.250000000000000888e+00,-2.250000000000000711e+01,2.350000000000000711e+01,-7.250000000000000888e+00,-1.400000000000000355e+01,1.475000000000000355e+01,5.000000000000000000e-01,-1.075000000000000178e+01,2.250000000000000000e+00,1.175000000000000355e+01,-8.250000000000001776e+00,-5.000000000000001110e-01,5.000000000000001110e-01,-1.250000000000000222e+00,1.750000000000000444e+00,-7.500000000000002220e-01,0.000000000000000000e+00,2.500000000000000555e-01,-2.500000000000000555e-01,-2.500000000000000555e-01,2.500000000000000555e-01,-2.500000000000000555e-01,5.000000000000001110e-01,-5.000000000000001110e-01,5.000000000000001110e-01,-2.500000000000000555e-01,-9.000000000000001776e+00,3.500000000000000888e+00,1.475000000000000355e+01,-3.025000000000000711e+01,2.150000000000000355e+01,3.500000000000000888e+00,-8.500000000000001776e+00,2.250000000000000444e+00,-8.250000000000001776e+00,1.725000000000000355e+01,-1.050000000000000355e+01,-1.275000000000000355e+01,1.300000000000000355e+01,1.525000000000000355e+01,-1.950000000000000355e+01,2.500000000000000000e-01,6.750000000000001776e+00,-6.000000000000001776e+00,1.025000000000000355e+01,-2.000000000000000444e+00,-2.025000000000000355e+01,1.425000000000000355e+01,-7.500000000000000000e-01,-2.500000000000000000e-01,1.075000000000000178e+01,2.750000000000000888e+00,-2.275000000000000711e+01,6.750000000000001776e+00,2.100000000000000711e+01,-2.625000000000000711e+01,1.225000000000000355e+01,-2.250000000000000888e+00,-3.750000000000000888e+00,1.525000000000000355e+01,-2.000000000000000355e+01,7.750000000000000888e+00,2.500000000000000444e+00,-1.425000000000000355e+01,1.600000000000000355e+01,7.000000000000001776e+00,-2.650000000000000711e+01,2.225000000000000355e+01,5.250000000000000888e+00,-1.825000000000000355e+01,7.250000000000001776e+00,-7.750000000000001776e+00,4.250000000000000000e+00,1.500000000000000355e+01,-2.775000000000000711e+01,2.125000000000000355e+01,-4.500000000000000888e+00,-4.500000000000001776e+00,1.225000000000000355e+01,-2.250000000000000000e+00,-1.400000000000000355e+01,4.250000000000000000e+00,9.750000000000003553e+00,-1.225000000000000355e+01,1.525000000000000355e+01,-1.825000000000000711e+01,9.500000000000003553e+00,4.750000000000000888e+00,-2.050000000000000355e+01,1.775000000000000355e+01,-2.000000000000000444e+00,-5.750000000000001776e+00,1.250000000000000355e+01,3.500000000000000888e+00,-1.650000000000000355e+01,1.000000000000000178e+01,-1.250000000000000222e+00,-1.400000000000000355e+01,1.700000000000000355e+01,-3.750000000000000888e+00,-3.250000000000000888e+00,3.500000000000000888e+00,5.000000000000001110e-01,-2.500000000000000555e-01,2.500000000000000555e-01,-2.500000000000000555e-01,5.000000000000001110e-01,-5.000000000000001110e-01,5.000000000000001110e-01,-2.500000000000000555e-01,0.000000000000000000e+00,0.000000000000000000e+00,-2.500000000000000555e-01,2.500000000000000555e-01,0.000000000000000000e+00,2.500000000000000555e-01,-5.000000000000001110e-01,2.500000000000000555e-01,0.000000000000000000e+00,-2.500000000000000555e-01,5.000000000000001110e-01,-2.500000000000000555e-01,-2.500000000000000555e-01,2.500000000000000555e-01,0.000000000000000000e+00,0.000000000000000000e+00,2.500000000000000555e-01,-5.000000000000001110e-01,2.500000000000000555e-01,0.000000000000000000e+00,0.000000000000000000e+00,0.000000000000000000e+00,0.000000000000000000e+00,0.000000000000000000e+00,0.000000000000000000e+00,-2.500000000000000555e-01,5.000000000000001110e-01,-2.500000000000000555e-01,0.000000000000000000e+00,0.000000000000000000e+00,0.000000000000000000e+00,0.000000000000000000e+00,0.000000000000000000e+00,0.000000000000000000e+00,5.000000000000001110e-01,-1.250000000000000444e+00,1.250000000000000444e+00,-1.000000000000000222e+00,7.500000000000002220e-01,-5.000000000000001110e-01,5.000000000000001110e-01,-2.500000000000000555e-01,0.000000000000000000e+00,0.000000000000000000e+00,0.000000000000000000e+00,-2.500000000000000555e-01,5.000000000000001110e-01,-2.500000000000000555e-01,2.500000000000000555e-01,-7.500000000000002220e-01,7.500000000000002220e-01,-2.500000000000000555e-01,2.500000000000000555e-01,-5.000000000000001110e-01,5.000000000000001110e-01,0.000000000000000000e+00,-5.000000000000001110e-01,0.000000000000000000e+00,7.500000000000002220e-01,-7.500000000000002220e-01,5.000000000000001110e-01,0.000000000000000000e+00,-2.500000000000000555e-01,0.000000000000000000e+00,1.000000000000000222e+00,-1.000000000000000222e+00,5.000000000000001110e-01,8.000000000000001776e+00,-2.000000000000000000e+00,2.500000000000000000e+00,-3.500000000000000888e+00,-8.750000000000001776e+00,1.975000000000000355e+01,-2.175000000000000355e+01,1.250000000000000355e+01,8.250000000000001776e+00,-1.650000000000000355e+01,1.275000000000000178e+01,-1.125000000000000178e+01,-1.275000000000000355e+01,-1.200000000000000355e+01,2.075000000000000711e+01,8.950000000000001421e+01,-6.825000000000001421e+01,-5.750000000000000000e+00,-2.775000000000000711e+01,2.125000000000000355e+01,1.500000000000000888e+00,-1.525000000000000355e+01,1.650000000000000355e+01,-1.775000000000000355e+01,7.000000000000001776e+00,1.800000000000000355e+01,-2.150000000000000711e+01,5.750000000000001776e+00,1.425000000000000355e+01,-2.750000000000000711e+01,2.750000000000000711e+01,-2.625000000000000711e+01,2.275000000000000711e+01,-1.975000000000000355e+01,1.300000000000000355e+01,6.500000000000000888e+00,-1.850000000000000355e+01,5.500000000000001776e+00,1.400000000000000178e+01,-1.850000000000000355e+01,-5.250000000000001776e+00,2.450000000000000711e+01,-2.550000000000000711e+01,2.125000000000000711e+01,-8.000000000000001776e+00,-6.750000000000001776e+00,1.700000000000000355e+01,-1.475000000000000355e+01,2.125000000000000355e+01,-2.350000000000000711e+01,2.175000000000000711e+01,-2.375000000000000711e+01,6.750000000000001776e+00,4.500000000000000888e+00,5.750000000000001776e+00,2.250000000000000000e+00,-1.400000000000000355e+01,1.075000000000000355e+01,-1.800000000000000355e+01,9.000000000000001776e+00,8.000000000000001776e+00,-1.150000000000000355e+01,1.800000000000000355e+01,-2.075000000000000711e+01,5.750000000000001776e+00,1.600000000000000355e+01,-1.700000000000000355e+01,1.000000000000000444e+00,1.250000000000000178e+01,-1.100000000000000178e+01,2.500000000000000000e-01,-1.500000000000000222e+00,1.625000000000000355e+01,-1.550000000000000355e+01,-1.025000000000000178e+01,1.825000000000000355e+01,2.750000000000000000e+00,-2.250000000000000711e+01,2.600000000000000711e+01,-1.750000000000000355e+01,1.075000000000000355e+01,-1.300000000000000355e+01,-5.000000000000000000e-01,1.650000000000000355e+01,-6.750000000000001776e+00,-1.100000000000000178e+01,1.375000000000000355e+01,4.250000000000000888e+00,-1.725000000000000355e+01,2.750000000000000888e+00,1.700000000000000355e+01,-1.200000000000000178e+01,7.000000000000001776e+00,-1.800000000000000355e+01,8.500000000000001776e+00,1.550000000000000355e+01,-2.000000000000000711e+01,1.100000000000000355e+01,-1.475000000000000355e+01,2.125000000000000355e+01,-2.225000000000000711e+01,1.575000000000000355e+01,7.000000000000000888e+00,-1.800000000000000355e+01,1.275000000000000355e+01,-8.750000000000001776e+00,-8.750000000000003553e+00,2.500000000000000711e+01,-2.600000000000000711e+01,2.100000000000000711e+01,-2.250000000000000888e+00,-1.950000000000000355e+01,2.325000000000000711e+01,-2.000000000000000355e+01,1.500000000000000355e+01,-9.250000000000001776e+00,1.125000000000000355e+01,-1.100000000000000355e+01,1.400000000000000355e+01,-1.425000000000000355e+01,-3.250000000000000888e+00,2.125000000000000711e+01,-2.550000000000000711e+01,1.200000000000000355e+01,1.275000000000000355e+01,-2.525000000000000711e+01,1.900000000000000711e+01,-1.500000000000000355e+01,2.250000000000000711e+01,-1.850000000000000355e+01,8.750000000000001776e+00,-1.650000000000000355e+01,2.150000000000000711e+01,-6.750000000000001776e+00,-1.150000000000000178e+01,4.500000000000000888e+00,1.675000000000000355e+01,-2.425000000000000711e+01,2.075000000000000711e+01,-5.750000000000001776e+00,-1.550000000000000355e+01,2.425000000000000711e+01,-2.050000000000000355e+01,8.750000000000001776e+00,9.000000000000001776e+00,-2.375000000000000711e+01,2.050000000000000355e+01,1.750000000000000888e+00,-1.500000000000000355e+01,1.375000000000000355e+01,-1.550000000000000355e+01,1.750000000000000355e+01,-1.825000000000000355e+01,7.250000000000000888e+00,1.375000000000000355e+01,-1.800000000000000355e+01,5.000000000000001776e+00,-5.500000000000001776e+00,2.000000000000000888e+00,1.850000000000000355e+01,-1.075000000000000355e+01,-8.250000000000001776e+00,1.225000000000000355e+01,-1.225000000000000355e+01,6.500000000000001776e+00,4.500000000000000888e+00,-6.750000000000001776e+00,-2.000000000000000444e+00,-7.000000000000000888e+00,2.100000000000000355e+01,-1.325000000000000355e+01,-4.500000000000000888e+00,1.625000000000000355e+01,-4.500000000000000888e+00,-1.675000000000000355e+01,2.300000000000000711e+01,-1.450000000000000355e+01,5.250000000000000888e+00,-7.750000000000001776e+00,1.500000000000000888e+00,1.300000000000000355e+01,-1.375000000000000355e+01,-3.000000000000000000e+00,2.300000000000000711e+01,-1.975000000000000355e+01,9.750000000000001776e+00,-1.650000000000000355e+01,1.225000000000000355e+01,1.125000000000000178e+01,-2.025000000000000355e+01,6.000000000000000888e+00,1.300000000000000355e+01,-9.500000000000001776e+00,-1.150000000000000178e+01,9.250000000000001776e+00,1.450000000000000355e+01,-1.475000000000000355e+01,1.000000000000000222e+00,4.000000000000000888e+00,-1.575000000000000355e+01,1.350000000000000355e+01,1.100000000000000178e+01,-1.675000000000000355e+01,7.500000000000001776e+00,-3.000000000000000888e+00,-1.175000000000000355e+01,2.325000000000000711e+01,-2.025000000000000355e+01,1.000000000000000178e+01,1.175000000000000355e+01,-1.625000000000000355e+01,-6.500000000000000888e+00,1.750000000000000355e+01,-2.500000000000000000e-01,-1.225000000000000355e+01,4.750000000000000888e+00,6.000000000000000888e+00,-1.550000000000000355e+01,1.950000000000000355e+01,-2.475000000000000711e+01,2.775000000000000711e+01,-2.225000000000000711e+01,9.250000000000001776e+00,1.125000000000000178e+01,-2.275000000000000711e+01,1.200000000000000355e+01,1.300000000000000355e+01,-1.575000000000000355e+01,3.500000000000000888e+00,-1.325000000000000355e+01,2.500000000000000711e+01,-2.600000000000000711e+01,2.300000000000000711e+01,-5.250000000000000888e+00,-1.400000000000000355e+01,5.500000000000000888e+00,4.500000000000000888e+00,1.275000000000000355e+01,-2.425000000000000711e+01,1.025000000000000178e+01,5.250000000000000888e+00,3.500000000000000888e+00,-1.950000000000000711e+01,2.250000000000000711e+01,-1.050000000000000178e+01,-1.275000000000000355e+01,2.150000000000000711e+01,-1.700000000000000355e+01,1.750000000000000355e+01,-1.225000000000000355e+01,-1.750000000000000000e+00,8.500000000000001776e+00,-1.100000000000000355e+01,1.350000000000000355e+01,-1.175000000000000355e+01,5.250000000000000888e+00,7.250000000000001776e+00,-7.000000000000001776e+00,-7.250000000000001776e+00,1.800000000000000355e+01,-2.025000000000000355e+01,2.175000000000000711e+01,-1.425000000000000355e+01,2.750000000000000888e+00,-1.375000000000000355e+01,2.050000000000000711e+01,-1.525000000000000355e+01,1.250000000000000355e+01,4.250000000000000888e+00,-1.125000000000000178e+01,-6.250000000000001776e+00,9.250000000000001776e+00,1.150000000000000355e+01,-2.625000000000000711e+01,2.800000000000000711e+01,-2.175000000000000711e+01,2.500000000000000888e+00,1.450000000000000355e+01,-1.825000000000000355e+01,1.750000000000000355e+01,-1.675000000000000355e+01,1.550000000000000355e+01,-1.425000000000000355e+01,1.575000000000000355e+01,-6.500000000000001776e+00,-1.200000000000000178e+01,1.350000000000000355e+01,-7.500000000000000000e-01,3.500000000000000888e+00,-8.000000000000001776e+00,3.500000000000000888e+00,-1.175000000000000178e+01,1.900000000000000355e+01,-2.000000000000000355e+01,2.025000000000000355e+01,-1.200000000000000178e+01,-1.000000000000000444e+00,-1.250000000000000000e+00,7.500000000000001776e+00,6.750000000000001776e+00,-1.425000000000000355e+01,9.750000000000001776e+00,-1.175000000000000355e+01,1.000000000000000355e+01,-1.175000000000000355e+01,6.000000000000001776e+00,5.250000000000000888e+00,-3.750000000000000888e+00,-1.500000000000000222e+00,1.525000000000000355e+01,-2.575000000000000711e+01,1.875000000000000355e+01,-4.250000000000000000e+00,5.500000000000001776e+00,-2.150000000000000711e+01,2.200000000000000711e+01,-1.500000000000000000e+00,-1.250000000000000355e+01,8.250000000000001776e+00,2.750000000000000444e+00,-1.650000000000000355e+01,1.075000000000000355e+01,1.025000000000000178e+01,-5.500000000000000888e+00,-4.000000000000000888e+00,-2.500000000000001110e-01,-8.750000000000001776e+00,1.000000000000000178e+01,1.750000000000000444e+00,6.750000000000001776e+00,-1.325000000000000355e+01,5.000000000000000000e-01,1.050000000000000355e+01,-1.775000000000000355e+01,1.525000000000000355e+01,3.250000000000000888e+00,-1.950000000000000711e+01,2.125000000000000711e+01,-1.875000000000000355e+01,9.500000000000001776e+00,8.750000000000001776e+00,-5.500000000000000888e+00,-1.275000000000000355e+01,2.175000000000000711e+01,-2.075000000000000711e+01,2.500000000000000000e+00,6.250000000000001776e+00,7.250000000000001776e+00,-1.750000000000000888e+00,-1.375000000000000355e+01,1.725000000000000355e+01,-2.075000000000000355e+01,2.050000000000000355e+01,-4.750000000000000888e+00,-1.150000000000000355e+01,7.500000000000001776e+00,5.000000000000000888e+00,-5.500000000000000888e+00,-1.275000000000000355e+01,1.750000000000000355e+01,5.000000000000000888e+00,-1.725000000000000355e+01,1.550000000000000355e+01,-2.200000000000000711e+01,2.525000000000000711e+01,-1.025000000000000178e+01,-1.475000000000000355e+01,2.650000000000000711e+01,-2.700000000000000711e+01,2.000000000000000355e+01,-6.500000000000000888e+00,8.000000000000001776e+00,-1.700000000000000355e+01,5.500000000000000888e+00,1.425000000000000355e+01,-9.500000000000001776e+00,-5.000000000000000888e+00,1.325000000000000355e+01,-2.000000000000000000e+00,-1.625000000000000355e+01,2.325000000000000711e+01,-2.100000000000000711e+01,3.500000000000000888e+00,1.450000000000000355e+01,-1.175000000000000178e+01,-7.750000000000001776e+00,1.650000000000000355e+01,-1.500000000000000000e+00,-1.825000000000000711e+01,1.725000000000000355e+01,-5.000000000000000000e-01,-1.025000000000000178e+01,2.500000000000000000e-01,1.250000000000000355e+01,-4.500000000000001776e+00,-1.175000000000000178e+01,1.225000000000000355e+01,7.000000000000000888e+00,-1.375000000000000355e+01,-5.000000000000000888e+00,8.750000000000001776e+00,9.750000000000001776e+00,-2.225000000000000711e+01,2.000000000000000711e+01,2.500000000000000000e-01,-2.325000000000000711e+01,2.400000000000000711e+01,-3.250000000000000888e+00,-1.850000000000000355e+01,1.600000000000000355e+01,5.500000000000001776e+00,-1.925000000000000355e+01,1.475000000000000355e+01,-4.500000000000000888e+00,-1.325000000000000355e+01,2.875000000000000711e+01,-1.700000000000000355e+01,-1.000000000000000355e+01,2.475000000000000711e+01,-1.075000000000000355e+01,-1.250000000000000178e+01,6.000000000000000888e+00,1.525000000000000355e+01,-8.500000000000001776e+00,-1.450000000000000355e+01,2.275000000000000711e+01,-6.500000000000000888e+00,-1.750000000000000355e+01,2.150000000000000711e+01,-7.500000000000001776e+00,-1.000000000000000222e+00,1.250000000000000178e+01,-1.000000000000000178e+01,-3.000000000000000888e+00,1.100000000000000178e+01,-2.075000000000000355e+01,7.750000000000000888e+00,9.250000000000003553e+00,-8.750000000000001776e+00,1.825000000000000355e+01,-3.200000000000000711e+01,2.925000000000000711e+01,-1.425000000000000355e+01,-1.750000000000000444e+00,1.175000000000000355e+01,-2.275000000000000711e+01,2.000000000000000355e+01,7.500000000000008882e-01,-1.550000000000000355e+01,1.150000000000000178e+01,2.000000000000000444e+00,-1.950000000000000355e+01,3.075000000000000711e+01,-2.125000000000000355e+01,-6.250000000000000888e+00,2.100000000000000355e+01,-1.000000000000000000e+00,-1.025000000000000178e+01,-9.000000000000001776e+00,8.750000000000001776e+00,1.825000000000000355e+01,-3.075000000000000711e+01,2.975000000000000711e+01,-2.075000000000000355e+01,-6.250000000000002665e+00,2.875000000000000711e+01,-2.450000000000000711e+01,-1.500000000000000000e+00,2.550000000000000711e+01,-2.550000000000000711e+01,2.250000000000000000e+00,2.125000000000000711e+01,-3.150000000000000711e+01,3.300000000000000711e+01,-2.175000000000000711e+01,-4.500000000000000000e+00,1.400000000000000355e+01,-6.750000000000001776e+00,8.750000000000001776e+00,-4.250000000000000888e+00,8.750000000000001776e+00,-9.750000000000001776e+00,0.000000000000000000e+00,-1.000000000000000222e+00,-1.325000000000000355e+01,2.975000000000000711e+01,-1.825000000000000355e+01,-1.075000000000000355e+01,2.600000000000000711e+01,-1.000000000000000355e+01,-1.800000000000000355e+01,1.675000000000000355e+01,9.500000000000001776e+00,-9.500000000000001776e+00,-6.250000000000001776e+00,1.100000000000000355e+01,-1.775000000000000355e+01,1.225000000000000178e+01,-5.250000000000000888e+00,1.600000000000000355e+01,-1.375000000000000178e+01,-9.750000000000003553e+00,2.475000000000000711e+01,-1.625000000000000355e+01,-1.075000000000000355e+01,3.025000000000000711e+01,-2.575000000000000711e+01,3.500000000000000000e+00,2.325000000000000711e+01,-2.300000000000000711e+01,1.300000000000000355e+01,-1.425000000000000355e+01,2.750000000000000888e+00,1.500000000000000355e+01,-1.875000000000000355e+01,1.250000000000000355e+01,-1.000000000000000000e+00,-1.800000000000000355e+01,2.075000000000000711e+01,-9.500000000000003553e+00,1.750000000000000444e+00,1.250000000000000178e+01,-1.375000000000000355e+01,7.500000000000001776e+00,-1.925000000000000355e+01,1.375000000000000355e+01,3.500000000000000888e+00,-5.250000000000000888e+00,1.250000000000000000e+00,-7.500000000000000000e-01,1.700000000000000355e+01,-1.750000000000000355e+01,-2.250000000000000444e+00,1.325000000000000355e+01,-2.025000000000000711e+01,9.250000000000003553e+00,1.275000000000000178e+01,-1.600000000000000355e+01,5.000000000000008882e-01,8.750000000000001776e+00,3.250000000000000888e+00,-1.175000000000000355e+01,1.575000000000000355e+01,-1.750000000000000355e+01,1.600000000000000355e+01,-1.725000000000000355e+01,-1.750000000000000000e+00,2.100000000000000355e+01,-6.750000000000000888e+00,-1.975000000000000355e+01,2.925000000000000711e+01,-2.500000000000000711e+01,2.350000000000000711e+01,-3.500000000000000711e+01,3.175000000000000711e+01,-9.500000000000001776e+00,-1.750000000000000444e+00,8.500000000000001776e+00,-1.875000000000000711e+01,2.175000000000000711e+01,1.025000000000000178e+01,-2.325000000000000355e+01,-3.250000000000000888e+00,1.850000000000000355e+01,-1.150000000000000178e+01,1.170000000000000284e+02
