-4.253625000000002387e+01,-4.636437500000002387e+01,-4.858312500000003809e+01,-5.122375000000003809e+01,-5.414562500000003809e+01,-5.600500000000003809e+01,-5.658312500000003809e+01,-5.789562500000003809e+01,-5.947375000000003809e+01,-6.081750000000003809e+01,-6.370812500000003809e+01,-6.539562500000003809e+01,-6.617687500000003809e+01,-6.830187500000003809e+01,-7.042687500000003809e+01,-7.311437500000003809e+01,-7.488000000000003809e+01,-7.666125000000003809e+01,-7.750500000000003809e+01,-7.972375000000003809e+01,-8.220812500000003809e+01,-8.388000000000003809e+01,-8.514562500000003809e+01,-8.631750000000003809e+01,-8.758312500000003809e+01,-8.823937500000003809e+01,-8.875500000000003809e+01,-8.856750000000003809e+01,-8.842687500000003809e+01,-8.728625000000003809e+01,-8.606750000000003809e+01,-8.444250000000003809e+01,-8.216125000000003809e+01,-8.075500000000003809e+01,-7.995812500000003809e+01,-7.863000000000003809e+01,-7.717687500000003809e+01,-7.736437500000003809e+01,-7.703625000000003809e+01,-7.661437500000003809e+01,-7.719250000000003809e+01,-7.706750000000003809e+01,-7.681750000000003809e+01,-7.703625000000003809e+01,-7.773937500000003809e+01,-7.781750000000003809e+01,-7.891125000000003809e+01,-8.072375000000003809e+01,-8.242687500000003809e+01,-8.463000000000003809e+01,-8.648937500000003809e+01,-8.822375000000003809e+01,-9.083312500000005230e+01,-9.297375000000005230e+01,-9.561437500000006651e+01,-9.813000000000008072e+01,-9.992687500000008072e+01,-1.017393750000000807e+02,-1.041612500000000807e+02,-1.067393750000000807e+02,-1.079425000000000807e+02,-1.103643750000000807e+02,-1.119581250000000807e+02,-1.131768750000000807e+02,-1.148800000000000807e+02,-1.166143750000000807e+02,-1.178956250000000807e+02,-1.191300000000000807e+02,-1.201300000000000807e+02,-1.202393750000000807e+02,-1.200831250000000807e+02,-1.196456250000000807e+02,-1.186612500000000807e+02,-1.176456250000000807e+02,-1.154425000000000807e+02,-1.129893750000000807e+02,-1.109268750000000807e+02,-1.076143750000000807e+02,-1.044425000000000807e+02,-1.011143750000000807e+02,-9.802062500000008072e+01,-9.347375000000005230e+01,-9.031750000000003809e+01,-8.750500000000003809e+01,-8.414562500000003809e+01,-8.261437500000003809e+01,-8.028625000000003809e+01,-7.725500000000003809e+01,-7.506750000000003809e+01,-7.438000000000003809e+01,-7.395812500000003809e+01,-7.331750000000003809e+01,-7.395812500000003809e+01,-7.500500000000003809e+01,-7.853625000000003809e+01,-8.481750000000003809e+01,-9.133312500000005230e+01,-9.981750000000008072e+01,-1.086143750000000807e+02,-1.191612500000000807e+02,-1.306300000000000807e+02,-1.424112500000000807e+02,-1.541925000000000807e+02,-1.667081250000000807e+02,-1.811143750000001091e+02,-1.949425000000001660e+02,-2.103956250000001660e+02,-2.270050000000001660e+02,-2.463643750000001660e+02,-2.676456250000001660e+02,-2.915050000000001660e+02,-3.160675000000001660e+02,-3.405987500000002228e+02,-3.665362500000002228e+02,-3.929581250000003365e+02,-4.186143750000003365e+02,-4.405675000000003365e+02,-4.603331250000003365e+02,-4.759268750000003365e+02,-4.884112500000003365e+02,-4.981612500000003365e+02,-5.048331250000003365e+02,-5.085675000000003365e+02,-5.102393750000003365e+02,-5.112706250000003365e+02,-5.112862500000003365e+02,-5.113487500000003365e+02,-5.113956250000003365e+02,-5.114425000000003365e+02,-5.114893750000003365e+02,-5.115362500000003365e+02,-5.115518750000003365e+02,-5.115675000000003365e+02,-5.115987500000003365e+02,-5.115831250000003365e+02,-5.115675000000003365e+02,-5.115518750000003365e+02,-5.115518750000003365e+02,-5.115675000000003365e+02,-5.115987500000003365e+02,-5.116456250000003365e+02,-5.116456250000003365e+02,-5.116612500000003365e+02,-5.116768750000003365e+02,-5.116925000000003365e+02,-5.116925000000003365e+02,-5.116612500000003365e+02,-5.116300000000003365e+02,-5.115675000000003365e+02,-5.115675000000003365e+02,-5.115675000000003365e+02,-5.115675000000003365e+02,-5.115675000000003365e+02,-5.115675000000003365e+02,-5.115831250000003365e+02,-5.115987500000003365e+02,-5.116300000000003365e+02,-5.116300000000003365e+02,-5.116300000000003365e+02,-5.116456250000003365e+02,-5.116456250000003365e+02,-5.116300000000003365e+02,-5.116143750000003365e+02,-5.115987500000003365e+02,-5.115831250000003365e+02,-5.115675000000003365e+02,-5.115518750000003365e+02,-5.108643750000003365e+02,-5.085675000000003365e+02,-5.044893750000003365e+02,-4.985206250000003365e+02,-4.901300000000003365e+02,-4.785518750000003365e+02,-4.634737500000003365e+02,-4.442706250000003365e+02,-4.223175000000003365e+02,-3.998018750000003365e+02,-3.764268750000003365e+02,-3.521612500000002228e+02,-3.272237500000001660e+02,-3.033956250000001660e+02,-2.812550000000001660e+02,-2.614581250000001660e+02,-2.430831250000001660e+02,-2.244268750000001660e+02,-2.062550000000001660e+02,-1.883331250000001660e+02,-1.720362500000001091e+02,-1.549581250000000807e+02,-1.370518750000000807e+02,-1.179425000000000807e+02,-9.814562500000005230e+01,-7.841125000000005230e+01,-5.820812500000003809e+01,-3.842687500000002387e+01,-1.714562500000000611e+01,2.807500000000006324e+00,2.247937500000001876e+01,4.033875000000003297e+01,5.662000000000004007e+01,7.224500000000004718e+01,8.610437500000006139e+01,9.929187500000008981e+01,1.103387500000000898e+02,1.204637500000000898e+02,1.285731250000000898e+02,1.367918750000000898e+02,1.458856250000000898e+02,1.550887500000000898e+02,1.652137500000000898e+02,1.749012500000001182e+02,1.851512500000001182e+02,1.971981250000001751e+02,2.114168750000001751e+02,2.255887500000001751e+02,2.390106250000001751e+02,2.516043750000001751e+02,2.637137500000001751e+02,2.769325000000001751e+02,2.894012500000001751e+02,2.998075000000001751e+02,3.082293750000001751e+02,3.156043750000001751e+02,3.222293750000001751e+02,3.281512500000001751e+02,3.333543750000001751e+02,3.361200000000001751e+02,3.380575000000001751e+02,3.403075000000001751e+02,3.416356250000001751e+02,3.427918750000001751e+02,3.434793750000001751e+02,3.435731250000001751e+02,3.420887500000001751e+02,3.409012500000001751e+02,3.402762500000001751e+02,3.379012500000001751e+02,3.360262500000001751e+02,3.347918750000001751e+02,3.337762500000001751e+02,3.324793750000001751e+02,3.326668750000001751e+02,3.329950000000001751e+02,3.327606250000001751e+02,3.343543750000001751e+02,3.359481250000001751e+02,3.372293750000001751e+02,3.379950000000001751e+02,3.400887500000001751e+02,3.414168750000001751e+02,3.424950000000001751e+02,3.448856250000001751e+02,3.463700000000001751e+02,3.475418750000001751e+02,3.476512500000001751e+02,3.479793750000001751e+02,3.476200000000001751e+02,3.475731250000001751e+02,3.475575000000001751e+02,3.463700000000001751e+02,3.459637500000001751e+02,3.459950000000001751e+02,3.467918750000001751e+02,3.480418750000001751e+02,3.488543750000001751e+02,3.494012500000001751e+02,3.503387500000001751e+02,3.504481250000001751e+02,3.491981250000001751e+02,3.480106250000001751e+02,3.472606250000001751e+02,3.463543750000001751e+02,3.459637500000001751e+02,3.463543750000001751e+02,3.469637500000001751e+02,3.491512500000001751e+02,3.531356250000001751e+02,3.575106250000001751e+02,3.614168750000001751e+02,3.648856250000001751e+02,3.688700000000001751e+02,3.719793750000001751e+02,3.743231250000001751e+02,3.756043750000001751e+02,3.746200000000001751e+02,3.717762500000001751e+02,3.688387500000001751e+02,3.649793750000001751e+02,3.592606250000001751e+02,3.527762500000001751e+02,3.438543750000001751e+02,3.335106250000001751e+02,3.231668750000001751e+02,3.113231250000001751e+02,2.971825000000001751e+02,2.825575000000001751e+02,2.660106250000001751e+02,2.487918750000001751e+02,2.333231250000001751e+02,2.173700000000001751e+02,2.005887500000001751e+02,1.859950000000001467e+02,1.722762500000001182e+02,1.584793750000000898e+02,1.477293750000000898e+02,1.380106250000000898e+02,1.280575000000000898e+02,1.200575000000000898e+02,1.132762500000000898e+02,1.060262500000000898e+02,9.935437500000008981e+01,9.402625000000008981e+01,8.719812500000006139e+01,8.058875000000004718e+01,7.471375000000004718e+01,6.890125000000004718e+01,6.472937500000004718e+01,6.132312500000004718e+01,5.940125000000004718e+01,5.758875000000004718e+01,5.790125000000004718e+01,5.877625000000004718e+01,6.116687500000004718e+01,6.376062500000004718e+01,6.462000000000004718e+01,6.560437500000004718e+01,6.616687500000004718e+01,6.760437500000004718e+01,6.847937500000004718e+01,6.944812500000004718e+01,6.860437500000004718e+01,6.765125000000004718e+01,6.832312500000004718e+01,6.949500000000004718e+01,7.022937500000004718e+01,7.066687500000004718e+01,7.126062500000004718e+01,7.102625000000004718e+01,7.193250000000004718e+01,7.405750000000004718e+01,7.551062500000004718e+01,7.576062500000004718e+01,7.632312500000004718e+01,7.663562500000004718e+01,7.691687500000004718e+01,7.838562500000004718e+01,7.885437500000004718e+01,7.747937500000004718e+01,7.551062500000004718e+01,7.524500000000004718e+01,7.529187500000004718e+01,7.490125000000004718e+01,7.374500000000004718e+01,7.249500000000004718e+01,7.272937500000004718e+01,7.429187500000004718e+01,7.729187500000004718e+01,7.863562500000004718e+01,7.994812500000004718e+01,8.135437500000004718e+01,8.437000000000004718e+01,8.712000000000004718e+01,8.921375000000004718e+01,9.049500000000004718e+01,9.047937500000004718e+01,9.155750000000004718e+01,9.227625000000004718e+01,9.319812500000004718e+01,9.263562500000004718e+01,9.197937500000004718e+01,9.072937500000004718e+01,8.949500000000004718e+01,8.863562500000004718e+01,8.794812500000004718e+01,8.647937500000004718e+01,8.546375000000004718e+01,8.466687500000004718e+01,8.337000000000004718e+01,8.290125000000004718e+01,8.272937500000004718e+01,8.304187500000004718e+01,8.201062500000004718e+01,8.190125000000004718e+01,8.169812500000004718e+01,8.182312500000004718e+01,8.201062500000004718e+01,8.108875000000004718e+01,8.113562500000004718e+01,8.058875000000004718e+01,8.077625000000004718e+01,8.174500000000004718e+01,8.246375000000004718e+01,8.315125000000004718e+01,8.507312500000004718e+01,8.762000000000004718e+01,8.904187500000004718e+01,9.101062500000004718e+01,9.316687500000006139e+01,9.405750000000006139e+01,9.533875000000006139e+01,9.722937500000008981e+01,9.743250000000008981e+01,9.821375000000008981e+01,9.926062500000008981e+01,9.908875000000008981e+01,9.963562500000008981e+01,1.003543750000000898e+02,1.003231250000000898e+02,9.997937500000008981e+01,1.009481250000000898e+02,1.013543750000000898e+02,1.004012500000000898e+02,1.007918750000000898e+02,9.932312500000008981e+01,9.777625000000008981e+01,9.624500000000007560e+01,9.362000000000006139e+01,8.982312500000006139e+01,8.562000000000004718e+01,8.246375000000004718e+01,7.816687500000004718e+01,7.444812500000004718e+01,7.151062500000004718e+01,6.826062500000004718e+01,6.501062500000004718e+01,6.215125000000004718e+01,5.919812500000004718e+01,5.677625000000004718e+01,5.443250000000004718e+01,5.255750000000004718e+01,4.954187500000004007e+01,4.754187500000004007e+01,4.733875000000004007e+01,4.801062500000004007e+01,4.905750000000004718e+01,4.996375000000004718e+01,5.227625000000004718e+01,5.472937500000004718e+01,5.830750000000004718e+01,6.072937500000004718e+01,6.224500000000004718e+01,6.347937500000004718e+01,6.504187500000004718e+01,6.579187500000004718e+01,6.591687500000004718e+01,6.635437500000004718e+01,6.640125000000004718e+01,6.838562500000004718e+01,7.060437500000004718e+01,7.205750000000004718e+01,7.458875000000004718e+01,7.858875000000004718e+01,8.255750000000004718e+01,8.705750000000004718e+01,9.190125000000006139e+01,9.546375000000008981e+01,9.843250000000008981e+01,1.028231250000000898e+02,1.063231250000000898e+02,1.095418750000000898e+02,1.133856250000000898e+02,1.165106250000000898e+02,1.195731250000000898e+02,1.236512500000000898e+02,1.292137500000000898e+02,1.340575000000000898e+02,1.387450000000000898e+02,1.421512500000000898e+02,1.439950000000000898e+02,1.443856250000000898e+02,1.439637500000000898e+02,1.415418750000000898e+02,1.358231250000000898e+02,1.281043750000000898e+02,1.170887500000000898e+02,1.039168750000000898e+02,8.791687500000006139e+01,7.051062500000004718e+01,5.046375000000003297e+01,2.772937500000001876e+01,3.995000000000005436e+00,-2.077062500000000966e+01,-4.384875000000002387e+01,-6.509875000000003809e+01,-8.358312500000005230e+01,-1.015987500000000665e+02,-1.177081250000000807e+02,-1.309268750000000807e+02,-1.424581250000000807e+02,-1.524581250000000807e+02,-1.636925000000000807e+02,-1.758487500000001091e+02,-1.899112500000001376e+02,-2.041300000000001660e+02,-2.205518750000001660e+02,-2.385518750000001660e+02,-2.578018750000001660e+02,-2.789737500000001660e+02,-2.997393750000001660e+02,-3.210675000000001660e+02,-3.422237500000001660e+02,-3.635362500000002228e+02,-3.831768750000003365e+02,-4.027550000000003365e+02,-4.213487500000003365e+02,-4.378800000000003365e+02,-4.535362500000003365e+02,-4.679581250000003365e+02,-4.800518750000003365e+02,-4.897393750000003365e+02,-4.976768750000003365e+02,-5.032237500000003365e+02,-5.071300000000003365e+02,-5.099112500000003365e+02,-5.113331250000003365e+02,-5.114893750000003365e+02,-5.114112500000003365e+02,-5.113331250000003365e+02,-5.112862500000003365e+02,-5.112393750000003365e+02,-5.111925000000003365e+02,-5.111456250000003365e+02,-5.111300000000003365e+02,-5.111300000000003365e+02,-5.111925000000003365e+02,-5.112550000000003365e+02,-5.112862500000003365e+02,-5.113175000000003365e+02,-5.113643750000003365e+02,-5.114112500000003365e+02,-5.114425000000003365e+02,-5.114893750000003365e+02,-5.114737500000003365e+02,-5.114425000000003365e+02,-5.114425000000003365e+02,-5.114581250000003365e+02,-5.114268750000003365e+02,-5.113956250000003365e+02,-5.113800000000003365e+02,-5.113487500000003365e+02,-5.113643750000003365e+02,-5.113956250000003365e+02,-5.114112500000003365e+02,-5.114112500000003365e+02,-5.114581250000003365e+02,-5.115050000000003365e+02,-5.115206250000003365e+02,-5.115206250000003365e+02,-5.115050000000003365e+02,-5.115206250000003365e+02,-5.115362500000003365e+02,-5.100831250000003365e+02,-5.080987500000003365e+02,-5.046768750000003365e+02,-4.995987500000003365e+02,-4.934425000000003365e+02,-4.857237500000003365e+02,-4.759425000000003365e+02,-4.626768750000003365e+02,-4.476612500000003365e+02,-4.284581250000003365e+02,-4.083643750000003365e+02,-3.866300000000003365e+02,-3.621300000000002228e+02,-3.364893750000001660e+02,-3.091612500000001660e+02,-2.831925000000001660e+02,-2.595518750000001660e+02,-2.402862500000001660e+02,-2.206768750000001660e+02,-2.022862500000001660e+02,-1.848643750000001091e+02,-1.665206250000000807e+02,-1.504268750000000807e+02,-1.348956250000000807e+02,-1.173956250000000807e+02,-9.806750000000006651e+01,-7.953625000000005230e+01,-6.114562500000003809e+01,-4.434875000000002387e+01,-2.892687500000000966e+01,-1.186437500000000078e+01,6.276250000000009877e+00,2.399500000000001876e+01,4.194812500000003297e+01,6.090125000000004718e+01,8.010437500000006139e+01,1.005106250000000756e+02,1.204481250000000898e+02,1.396200000000000898e+02,1.583231250000000898e+02,1.759637500000001182e+02,1.935731250000001751e+02,2.094950000000001751e+02,2.248387500000001751e+02,2.393075000000001751e+02,2.527450000000001751e+02,2.636200000000001751e+02,2.731512500000001751e+02,2.829168750000001751e+02,2.920575000000001751e+02,3.007762500000001751e+02,3.090887500000001751e+02,3.157450000000001751e+02,3.228075000000001751e+02,3.315418750000001751e+02,3.398231250000001751e+02,3.466981250000001751e+02,3.518543750000001751e+02,3.568700000000001751e+02,3.611668750000001751e+02,3.664012500000001751e+02,3.712762500000001751e+02,3.758387500000001751e+02,3.813856250000002319e+02,3.866043750000003456e+02,3.920418750000003456e+02,3.978075000000003456e+02,4.026825000000003456e+02,4.065262500000003456e+02,4.096668750000003456e+02,4.105887500000003456e+02,4.101825000000003456e+02,4.103700000000003456e+02,4.097137500000003456e+02,4.076512500000003456e+02,4.061356250000003456e+02,4.044012500000003456e+02,4.023231250000003456e+02,4.010887500000003456e+02,3.992137500000003456e+02,3.971512500000003456e+02,3.961356250000003456e+02,3.951668750000003456e+02,3.935106250000003456e+02,3.925731250000003456e+02,3.905887500000003456e+02,3.886043750000003456e+02,3.867606250000003456e+02,3.832606250000003456e+02,3.779012500000002319e+02,3.717450000000001751e+02,3.655575000000001751e+02,3.581512500000001751e+02,3.522137500000001751e+02,3.457137500000001751e+02,3.391356250000001751e+02,3.341043750000001751e+02,3.305106250000001751e+02,3.284637500000001751e+02,3.271668750000001751e+02,3.261512500000001751e+02,3.246200000000001751e+02,3.242293750000001751e+02,3.242137500000001751e+02,3.238856250000001751e+02,3.243856250000001751e+02,3.255575000000001751e+02,3.258387500000001751e+02,3.270106250000001751e+02,3.284637500000001751e+02,3.301668750000001751e+02,3.324325000000001751e+02,3.340418750000001751e+02,3.339637500000001751e+02,3.322918750000001751e+02,3.312137500000001751e+02,3.298231250000001751e+02,3.286825000000001751e+02,3.259637500000001751e+02,3.222450000000001751e+02,3.196825000000001751e+02,3.176825000000001751e+02,3.137918750000001751e+02,3.080731250000001751e+02,3.008075000000001751e+02,2.902606250000001751e+02,2.779637500000001751e+02,2.635262500000001751e+02,2.445887500000001751e+02,2.213231250000001751e+02,1.978543750000001751e+02,1.719325000000001182e+02,1.429325000000000898e+02,1.134637500000000898e+02,8.230750000000006139e+01,4.941687500000003297e+01,1.743250000000001876e+01,-1.331750000000000256e+01,-4.642687500000002387e+01,-7.867687500000005230e+01,-1.113800000000000665e+02,-1.451612500000001091e+02,-1.795831250000001091e+02,-2.144425000000001660e+02,-2.502081250000001660e+02,-2.864737500000001660e+02,-3.209893750000001660e+02,-3.547393750000002228e+02,-3.852081250000003365e+02,-4.128643750000003365e+02,-4.358800000000003365e+02,-4.543800000000003365e+02,-4.701143750000003365e+02,-4.826925000000003365e+02,-4.919737500000003365e+02,-4.984893750000003365e+02,-5.032237500000003365e+02,-5.061300000000003365e+02,-5.085987500000003365e+02,-5.106612500000003365e+02,-5.113487500000003365e+02,-5.113018750000003365e+02,-5.095831250000003365e+02,-5.078487500000003365e+02,-5.052237500000003365e+02,-5.014737500000003365e+02,-4.977237500000003365e+02,-4.938800000000003365e+02,-4.870987500000003365e+02,-4.787237500000003365e+02,-4.722706250000003365e+02,-4.645518750000003365e+02,-4.572393750000003365e+02,-4.477081250000003365e+02,-4.364268750000003365e+02,-4.248643750000003365e+02,-4.161300000000003365e+02,-4.073018750000003365e+02,-3.969893750000003365e+02,-3.841612500000003365e+02,-3.686925000000002228e+02,-3.556768750000002228e+02,-3.408331250000001660e+02,-3.206925000000001660e+02,-2.973956250000001660e+02,-2.726768750000001660e+02,-2.460987500000001660e+02,-2.209893750000001660e+02,-1.982237500000001660e+02,-1.767550000000001091e+02,-1.583643750000000807e+02,-1.457862500000000807e+02,-1.368487500000000807e+02,-1.323800000000000807e+02,-1.313331250000000807e+02,-1.335050000000000807e+02,-1.358331250000000807e+02,-1.367393750000000807e+02,-1.383175000000000807e+02,-1.392550000000000807e+02,-1.392393750000000807e+02,-1.377550000000000807e+02,-1.363018750000000807e+02,-1.342393750000000807e+02,-1.326143750000000807e+02,-1.325050000000000807e+02,-1.320831250000000807e+02,-1.323487500000000807e+02,-1.338643750000000807e+02,-1.351456250000000807e+02,-1.348643750000000807e+02,-1.342862500000000807e+02,-1.333175000000000807e+02,-1.308643750000000807e+02,-1.281612500000000807e+02,-1.260050000000000807e+02,-1.239893750000000807e+02,-1.224737500000000807e+02,-1.240206250000000807e+02,-1.266300000000000807e+02,-1.321456250000000807e+02,-1.401612500000000807e+02,-1.512393750000000807e+02,-1.629737500000000807e+02,-1.747393750000001091e+02,-1.884112500000001660e+02,-2.009893750000001660e+02,-2.141143750000001660e+02,-2.257862500000001660e+02,-2.378331250000001660e+02,-2.482393750000001660e+02,-2.586300000000001660e+02,-2.690518750000001660e+02,-2.765206250000001660e+02,-2.826300000000001660e+02,-2.837862500000001660e+02,-2.805987500000001660e+02,-2.714737500000001660e+02,-2.547081250000001660e+02,-2.276143750000001660e+02,-1.913487500000001091e+02,-1.483800000000001091e+02,-9.675500000000005230e+01,-4.198937500000002387e+01,1.640125000000001165e+01,7.880750000000004718e+01,1.409325000000000898e+02,1.979481250000001182e+02,2.506981250000001751e+02,2.995731250000001751e+02,3.411825000000002319e+02,3.784793750000003456e+02,4.103231250000003456e+02,4.346200000000003456e+02,4.526356250000003456e+02,4.668856250000003456e+02,4.771668750000003456e+02,4.837293750000003456e+02,4.883075000000003456e+02,4.907137500000003456e+02,4.914793750000003456e+02,4.917450000000003456e+02,4.919481250000003456e+02,4.920887500000003456e+02,4.921356250000003456e+02,4.921825000000003456e+02,4.922293750000003456e+02,4.922606250000003456e+02,4.923387500000003456e+02,4.924012500000003456e+02,4.924793750000003456e+02,4.925262500000003456e+02,4.926200000000003456e+02,4.926981250000003456e+02,4.927606250000003456e+02,4.928387500000003456e+02,4.928387500000003456e+02,4.928231250000003456e+02,4.927918750000003456e+02,4.927762500000003456e+02,4.927137500000003456e+02,4.926043750000003456e+02,4.923856250000003456e+02,4.914481250000003456e+02,4.899012500000003456e+02,4.874168750000003456e+02,4.816825000000003456e+02,4.729950000000003456e+02,4.614481250000003456e+02,4.464950000000003456e+02,4.287918750000003456e+02,4.089793750000003456e+02,3.875418750000003456e+02,3.651356250000002319e+02,3.461043750000001751e+02,3.306981250000001751e+02,3.185887500000001751e+02,3.100887500000001751e+02,3.037918750000001751e+02,2.999325000000001751e+02,2.967293750000001751e+02,2.946043750000001751e+02,2.903700000000001751e+02,2.832293750000001751e+02,2.737293750000001751e+02,2.622137500000001751e+02,2.499168750000001751e+02,2.365887500000001751e+02,2.241200000000001751e+02,2.102762500000001751e+02,1.973231250000001751e+02,1.856200000000001182e+02,1.746981250000000898e+02,1.646356250000000898e+02,1.559481250000000898e+02,1.470106250000000898e+02,1.370262500000000898e+02,1.279168750000000898e+02,1.194481250000000898e+02,1.108231250000000898e+02,1.023700000000000898e+02,9.466687500000007560e+01,8.494812500000006139e+01,7.621375000000004718e+01,6.926062500000004718e+01,6.412000000000004718e+01,5.807312500000004718e+01,5.240125000000004718e+01,4.751062500000003297e+01,4.210437500000003297e+01,3.826062500000003297e+01,3.582312500000002586e+01,3.354187500000002586e+01,2.994812500000002586e+01,2.821375000000002586e+01,2.718250000000002586e+01,2.704187500000002586e+01,2.794812500000002586e+01,2.947937500000002586e+01,3.127625000000002586e+01,3.354187500000002586e+01,3.752625000000002586e+01,4.205750000000003297e+01,4.746375000000004007e+01,5.293250000000004718e+01,5.938562500000004718e+01,6.618250000000004718e+01,7.144812500000004718e+01,7.633875000000004718e+01,8.066687500000004718e+01,8.449500000000004718e+01,8.771375000000004718e+01,8.919812500000004718e+01,8.924500000000004718e+01,8.952625000000004718e+01,9.051062500000004718e+01,9.163562500000004718e+01,9.190125000000004718e+01,9.087000000000004718e+01,8.965125000000004718e+01,8.991687500000004718e+01,9.013562500000004718e+01,8.933875000000004718e+01,8.755750000000004718e+01,8.463562500000004718e+01,8.146375000000004718e+01,7.854187500000004718e+01,7.579187500000004718e+01,7.244812500000004718e+01,6.819812500000004718e+01,6.518250000000004718e+01,6.412000000000004718e+01,6.352625000000004718e+01,6.505750000000004718e+01,6.799500000000004718e+01,7.001062500000004718e+01,7.163562500000004718e+01,7.593250000000004718e+01,7.757312500000004718e+01,7.771375000000004718e+01,7.810437500000004718e+01,7.727625000000004718e+01,7.469812500000004718e+01,7.404187500000004718e+01,7.466687500000004718e+01,7.249500000000004718e+01,7.280750000000004718e+01,7.315125000000004718e+01,7.341687500000004718e+01,7.319812500000004718e+01,7.497937500000004718e+01,7.491687500000004718e+01,7.405750000000004718e+01,7.440125000000004718e+01,7.477625000000004718e+01,7.590125000000004718e+01,7.752625000000004718e+01,7.954187500000004718e+01,8.037000000000004718e+01,8.155750000000004718e+01,8.235437500000004718e+01,8.305750000000004718e+01,8.172937500000004718e+01,7.966687500000004718e+01,7.730750000000004718e+01,7.519812500000004718e+01,7.183875000000004718e+01,6.871375000000004718e+01,6.632312500000004718e+01,6.455750000000004718e+01,6.510437500000004718e+01,6.533875000000004718e+01,6.563562500000004718e+01,6.518250000000004718e+01,6.633875000000004718e+01,6.713562500000004718e+01,6.626062500000004718e+01,6.501062500000004718e+01,6.099500000000004718e+01,5.729187500000004718e+01,5.244812500000004718e+01,4.749500000000004718e+01,4.235437500000003297e+01,3.788562500000002586e+01,3.379187500000002586e+01,2.833875000000002586e+01,2.583875000000002586e+01,2.429187500000002231e+01,2.347937500000001876e+01,2.287000000000001876e+01,2.144812500000001876e+01,1.893250000000001521e+01,1.746375000000001521e+01,1.718250000000001521e+01,1.443250000000001521e+01,9.651250000000011653e+00,4.776250000000008100e+00,-1.456249999999954525e-01,-5.098749999999999005e+00,-8.458125000000000782e+00,-1.305187500000000256e+01,-1.738000000000000611e+01,-2.070812500000000966e+01,-2.353625000000001322e+01,-2.625500000000001677e+01,-2.877062500000001677e+01,-3.122375000000001677e+01,-3.603625000000001677e+01,-3.884875000000001677e+01
-6.562500000000000000e-01,-6.703125000000003553e+00,-4.921875000000002665e+00,-7.718750000000003553e+00,-4.671875000000002665e+00,-1.875000000000000278e-01,2.890625000000001776e+00,5.640625000000003553e+00,3.718750000000001776e+00,2.250000000000001332e+00,-1.734375000000001110e+00,-2.734375000000001776e+00,-1.390625000000000888e+00,-1.640625000000001110e+00,1.718750000000001665e-01,4.687500000000011102e-02,1.062500000000000888e+00,1.906250000000001332e+00,1.750000000000001110e+00,1.531250000000000888e+00,-2.109375000000001776e+00,-3.312500000000002665e+00,-3.109375000000002665e+00,-3.125000000000002665e+00,1.203125000000000666e+00,1.859375000000001110e+00,4.375000000000004441e-01,3.750000000000003331e-01,-4.828125000000002665e+00,-5.718750000000003553e+00,-4.062500000000003553e+00,-4.000000000000003553e+00,1.343750000000000444e+00,4.000000000000001776e+00,4.265625000000002665e+00,5.937500000000004441e+00,3.421875000000003109e+00,8.593750000000007772e-01,-1.281250000000000888e+00,-4.078125000000002665e+00,-3.187500000000001776e+00,-2.625000000000001776e+00,1.000000000000000000e+00,4.656250000000002665e+00,3.484375000000002220e+00,5.437500000000003553e+00,1.593750000000001332e+00,-1.968750000000000888e+00,3.593750000000004996e-01,-2.187500000000001332e+00,1.296875000000001332e+00,3.093750000000002220e+00,-4.843750000000003331e-01,4.687500000000003331e-01,-2.640625000000001776e+00,-1.812500000000001332e+00,1.296875000000000888e+00,1.671875000000001332e+00,3.406250000000002665e+00,-7.656250000000002220e-01,-3.187500000000001776e+00,-3.953125000000002665e+00,-4.921875000000003553e+00,1.171875000000001110e+00,4.000000000000002665e+00,3.859375000000002665e+00,4.578125000000003553e+00,-2.062500000000001776e+00,-6.500000000000003553e+00,-6.390625000000003553e+00,-7.984375000000005329e+00,-2.484375000000001332e+00,2.281250000000001776e+00,2.703125000000001776e+00,4.562500000000002665e+00,-1.406250000000000000e-01,-4.328125000000002665e+00,-6.453125000000003553e+00,-7.500000000000003553e+00,-2.453125000000001332e+00,1.203125000000000666e+00,6.093750000000003553e+00,7.312500000000003553e+00,3.312500000000001776e+00,9.531250000000002220e-01,-2.453125000000001776e+00,-3.031250000000001776e+00,-8.125000000000005551e-01,1.687500000000001332e+00,1.437500000000001110e+00,2.453125000000001332e+00,4.625000000000002665e+00,3.640625000000001776e+00,8.437500000000005329e+00,9.031250000000005329e+00,7.000000000000003553e+00,9.515625000000007105e+00,5.875000000000003553e+00,4.984375000000003553e+00,4.218750000000003553e+00,-7.500000000000003331e-01,-2.406250000000001332e+00,-3.500000000000002665e+00,-2.234375000000001776e+00,3.171875000000001776e+00,8.875000000000007105e+00,1.264062500000001066e+01,1.300000000000001066e+01,9.171875000000007105e+00,4.828125000000003553e+00,3.125000000000001776e+00,5.000000000000003553e+00,7.468750000000005329e+00,7.656250000000005329e+00,1.453125000000001776e+00,-9.515625000000007105e+00,-1.837500000000001421e+01,-2.523437500000001776e+01,-2.451562500000001776e+01,-1.871875000000001421e+01,-1.309375000000000711e+01,-6.484375000000003553e+00,-2.750000000000001776e+00,-1.015625000000000666e+00,7.812500000000005551e-02,1.562500000000001110e-01,1.562500000000001110e-01,7.812500000000005551e-02,6.938893903907228378e-18,-7.812500000000005551e-02,-1.562500000000001110e-01,-1.406250000000001110e-01,-1.250000000000000833e-01,-9.375000000000005551e-02,1.562500000000001735e-02,6.250000000000005551e-02,1.093750000000000833e-01,1.093750000000000833e-01,6.250000000000004163e-02,3.125000000000002082e-02,1.562500000000001041e-02,1.562500000000001041e-02,-3.125000000000002776e-02,-7.812500000000006939e-02,-1.875000000000001665e-01,-1.875000000000001665e-01,-9.375000000000008327e-02,0.000000000000000000e+00,1.875000000000001665e-01,1.875000000000001665e-01,1.250000000000001110e-01,6.250000000000005551e-02,-6.250000000000004163e-02,-6.250000000000004163e-02,-4.687500000000002776e-02,-3.125000000000002082e-02,0.000000000000000000e+00,0.000000000000000000e+00,0.000000000000000000e+00,1.562500000000001041e-02,1.562500000000001041e-02,0.000000000000000000e+00,-1.562500000000001041e-02,-9.375000000000005551e-02,-1.093750000000000555e-01,-6.250000000000004163e-02,-1.562500000000001041e-02,-5.156250000000003331e-01,-2.750000000000001776e+00,-6.890625000000003553e+00,-1.292187500000000711e+01,-1.887500000000001421e+01,-2.139062500000001421e+01,-2.009375000000001421e+01,-1.535937500000001243e+01,-8.812500000000007105e+00,-3.203125000000002665e+00,1.046875000000000444e+00,5.781250000000003553e+00,9.218750000000007105e+00,1.014062500000000711e+01,9.875000000000007105e+00,5.203125000000003553e+00,1.328125000000001554e+00,3.593750000000002220e-01,-6.250000000000002220e-01,1.390625000000000888e+00,1.218750000000000666e+00,-1.359375000000000666e+00,-2.828125000000001332e+00,-5.250000000000002665e+00,-6.609375000000004441e+00,-4.718750000000003553e+00,-3.359375000000002665e+00,-1.562500000000088818e-02,4.890625000000003553e+00,6.125000000000003553e+00,7.703125000000004441e+00,6.031250000000003553e+00,4.062500000000001776e+00,4.250000000000002665e+00,5.015625000000003553e+00,7.765625000000005329e+00,7.031250000000004441e+00,6.593750000000004441e+00,3.421875000000002220e+00,-1.093750000000002776e-01,4.687499999999983347e-02,-3.843750000000003109e+00,-6.031250000000003553e+00,-8.156250000000003553e+00,-1.084375000000000533e+01,-6.390625000000002665e+00,-9.218750000000002220e-01,3.843750000000002665e+00,7.046875000000004441e+00,4.328125000000001776e+00,1.781250000000000888e+00,-1.875000000000004441e-01,2.187500000000000000e-01,3.937500000000002665e+00,5.140625000000003553e+00,9.203125000000007105e+00,1.007812500000000711e+01,7.656250000000005329e+00,7.328125000000005329e+00,-6.250000000000044409e-02,-3.375000000000002665e+00,-3.062500000000002220e+00,-2.953125000000002220e+00,4.765625000000002665e+00,7.078125000000003553e+00,7.359375000000003553e+00,6.406250000000003553e+00,-9.062500000000004441e-01,-2.156250000000001332e+00,-2.718750000000001776e+00,-3.343750000000002220e+00,1.265625000000001332e+00,5.312500000000006661e-01,-2.171875000000000888e+00,-2.421875000000001776e+00,-5.937500000000003553e+00,-4.390625000000002665e+00,-2.343750000000002776e-01,1.546875000000001110e+00,4.578125000000002665e+00,2.000000000000000888e+00,-1.218750000000000888e+00,-2.859375000000001776e+00,-4.250000000000002665e+00,-1.265625000000000888e+00,2.125000000000001776e+00,3.515625000000002665e+00,4.031250000000002665e+00,4.328125000000002665e+00,2.000000000000001332e+00,1.921875000000001332e+00,1.437500000000000888e+00,-2.687500000000001776e+00,-3.218750000000001776e+00,-5.750000000000003553e+00,-6.234375000000003553e+00,-2.234375000000001776e+00,-1.093750000000003331e-01,4.593750000000002665e+00,6.718750000000003553e+00,6.421875000000003553e+00,5.984375000000003553e+00,1.359375000000000666e+00,-5.781250000000006661e-01,-4.109375000000002665e+00,-8.281250000000005329e+00,-7.046875000000004441e+00,-8.343750000000005329e+00,-5.093750000000003553e+00,1.718750000000001388e-01,-7.812500000000013878e-02,2.515625000000001776e+00,1.359375000000000888e+00,-6.250000000000003331e-01,3.890625000000003109e+00,4.859375000000003553e+00,7.390625000000005329e+00,1.106250000000000711e+01,6.968750000000003553e+00,6.156250000000003553e+00,5.203125000000002665e+00,-3.906250000000003331e-01,9.687500000000006661e-01,2.328125000000001332e+00,3.046875000000001776e+00,1.045312500000000711e+01,1.354687500000001066e+01,1.087500000000000711e+01,8.187500000000007105e+00,5.468750000000017764e-01,-6.984375000000005329e+00,-6.890625000000005329e+00,-5.187500000000003553e+00,-3.281250000000002665e+00,6.875000000000007772e-01,9.375000000000000000e-02,-4.109375000000002665e+00,-6.546875000000004441e+00,-9.203125000000007105e+00,-1.012500000000000711e+01,-7.062500000000004441e+00,-2.031250000000001332e+00,1.718750000000001332e+00,4.640625000000003553e+00,5.843750000000003553e+00,2.234375000000001332e+00,-7.812500000000002220e-01,-3.218750000000001332e+00,-5.531250000000002665e+00,-6.046875000000003553e+00,-6.328125000000005329e+00,-7.531250000000005329e+00,-8.593750000000005329e+00,-5.781250000000003553e+00,-3.281250000000002220e+00,1.203125000000000888e+00,5.234375000000003553e+00,4.062500000000003553e+00,3.515625000000002665e+00,1.890625000000001332e+00,4.531250000000003331e-01,5.156250000000003331e-01,-7.656250000000005551e-01,-2.421875000000001332e+00,-2.343750000000001332e+00,-1.078125000000000666e+00,1.812500000000001332e+00,3.765625000000002665e+00,1.265625000000000888e+00,-1.453125000000000888e+00,-4.343750000000003553e+00,-5.187500000000003553e+00,-5.625000000000006661e-01,2.671875000000001332e+00,3.671875000000001776e+00,3.921875000000002665e+00,6.718750000000004441e-01,-1.046875000000000666e+00,-8.906250000000005551e-01,-7.968750000000004441e-01,9.531250000000007772e-01,2.234375000000001332e+00,3.875000000000001776e+00,3.765625000000001776e+00,8.437500000000004441e-01,-3.062500000000002220e+00,-7.250000000000004441e+00,-7.734375000000005329e+00,-4.609375000000003553e+00,-1.421875000000000666e+00,1.734375000000001110e+00,1.921875000000001332e+00,7.031250000000006661e-01,2.375000000000001776e+00,1.437500000000001110e+00,1.843750000000001110e+00,1.125000000000000666e+00,-2.359375000000001776e+00,-5.625000000000003331e-01,5.937500000000005551e-01,3.484375000000002665e+00,6.296875000000004441e+00,3.703125000000002665e+00,1.578125000000000888e+00,-1.687500000000000888e+00,-4.078125000000002665e+00,-2.390625000000001776e+00,-1.046875000000000444e+00,2.187500000000001110e-01,1.828125000000001110e+00,1.625000000000000888e+00,-1.562499999999998890e-01,-4.687499999999977796e-02,-1.921875000000000888e+00,-4.078125000000002665e+00,-1.218750000000001110e+00,-1.828125000000001110e+00,1.609375000000001332e+00,5.171875000000003553e+00,2.406250000000001776e+00,3.234375000000001776e+00,-1.281250000000000888e+00,-5.031250000000003553e+00,-5.062500000000003553e+00,-6.531250000000003553e+00,-2.843750000000001776e+00,-6.406250000000006661e-01,2.500000000000001776e+00,4.578125000000002665e+00,1.671875000000000888e+00,2.515625000000001776e+00,-5.000000000000000000e-01,-2.343750000000000888e+00,1.140625000000001110e+00,-5.625000000000002220e-01,7.812500000000004441e-01,2.484375000000001332e+00,4.062500000000002776e-01,6.718750000000005551e-01,9.531250000000007772e-01,2.343750000000002220e-01,-9.843750000000007772e-01,1.093750000000000000e-01,-1.546875000000000666e+00,-1.968750000000000888e+00,1.640625000000001110e+00,2.046875000000001332e+00,6.718750000000004441e+00,7.937500000000005329e+00,5.687500000000003553e+00,3.671875000000002665e+00,-3.312500000000002220e+00,-4.281250000000002665e+00,-4.734375000000003553e+00,-3.515625000000002220e+00,1.859375000000001332e+00,1.046875000000000444e+00,1.484375000000000888e+00,2.812500000000000000e-01,-2.203125000000001776e+00,-5.312500000000002220e-01,-8.125000000000004441e-01,2.500000000000002220e-01,-1.093750000000000000e-01,-2.234375000000001332e+00,-3.343750000000001776e+00,-5.828125000000003553e+00,-6.750000000000004441e+00,-6.656250000000004441e+00,-4.531250000000003553e+00,1.406249999999997780e-01,3.875000000000001776e+00,7.203125000000003553e+00,7.375000000000004441e+00,3.515625000000002220e+00,1.515625000000000888e+00,-2.046875000000000888e+00,-3.921875000000001776e+00,-1.296875000000000444e+00,-1.531250000000000444e+00,-6.406250000000001110e-01,-5.468750000000003331e-01,-3.750000000000002220e+00,-5.281250000000003553e+00,-4.281250000000003553e+00,-2.250000000000001776e+00,-5.000000000000002220e-01,2.968750000000002220e+00,2.531250000000002220e+00,1.125000000000000888e+00,3.984375000000002665e+00,2.234375000000001776e+00,2.015625000000001776e+00,9.218750000000006661e-01,-5.390625000000003553e+00,-6.265625000000004441e+00,-6.593750000000004441e+00,-3.843750000000002665e+00,2.937500000000001776e+00,4.375000000000003553e+00,6.781250000000003553e+00,7.812500000000004441e+00,6.734375000000004441e+00,1.146875000000000711e+01,1.214062500000000711e+01,1.117187500000000711e+01,1.020312500000000711e+01,4.781250000000003553e+00,5.953125000000004441e+00,9.578125000000007105e+00,1.417187500000000711e+01,1.871875000000001066e+01,1.451562500000000711e+01,5.687500000000002665e+00,-4.859375000000002665e+00,-1.453125000000000711e+01,-1.834375000000001066e+01,-1.729687500000001066e+01,-1.490625000000001066e+01,-1.010937500000000711e+01,-4.828125000000003553e+00,2.031249999999997780e-01,4.703125000000003553e+00,6.875000000000004441e+00,7.093750000000005329e+00,5.468750000000003553e+00,6.312500000000003553e+00,7.234375000000005329e+00,8.421875000000005329e+00,9.296875000000007105e+00,5.843750000000004441e+00,9.843750000000006661e-01,-4.125000000000003553e+00,-7.531250000000007105e+00,-8.281250000000007105e+00,-4.953125000000003553e+00,-1.000000000000001332e+00,4.687500000000002220e-01,4.999999999999997780e-01,-4.156250000000003553e+00,-1.035937500000000711e+01,-1.382812500000001066e+01,-1.520312500000001066e+01,-1.295312500000000711e+01,-8.218750000000003553e+00,-4.437500000000001776e+00,-1.781250000000000888e+00,-4.218750000000003331e-01,-2.031250000000001388e-01,-9.375000000000006939e-02,1.562500000000001735e-02,9.375000000000006939e-02,1.093750000000000833e-01,1.250000000000001110e-01,1.406250000000001110e-01,1.250000000000000833e-01,1.250000000000000833e-01,6.250000000000004163e-02,0.000000000000000000e+00,-3.125000000000002082e-02,-6.250000000000004163e-02,-7.812500000000005551e-02,-9.375000000000006939e-02,-6.250000000000004163e-02,-1.562500000000001041e-02,3.125000000000002082e-02,6.250000000000004163e-02,-6.938893903907228378e-18,-1.093750000000000833e-01,-1.406250000000001110e-01,-1.093750000000000833e-01,-6.938893903907228378e-18,1.562500000000001110e-01,2.343750000000001665e-01,2.031250000000001388e-01,9.375000000000005551e-02,-3.125000000000004163e-02,-1.718750000000001110e-01,-1.875000000000001110e-01,-1.093750000000000833e-01,-4.687500000000004163e-02,6.250000000000004163e-02,7.812500000000005551e-02,3.125000000000002082e-02,-1.421875000000000666e+00,-3.406250000000001776e+00,-6.828125000000003553e+00,-1.190625000000000711e+01,-1.231250000000000711e+01,-1.221875000000000711e+01,-8.312500000000005329e+00,-1.203125000000001110e+00,-3.093750000000002665e+00,-7.046875000000004441e+00,-1.539062500000000888e+01,-2.481250000000001421e+01,-2.125000000000001421e+01,-8.390625000000005329e+00,7.468750000000006217e+00,2.343750000000001421e+01,2.854687500000002132e+01,1.959375000000001421e+01,1.117187500000000711e+01,4.687500000000000000e-01,-7.953125000000005329e+00,-8.359375000000005329e+00,-1.157812500000000711e+01,-1.085937500000000711e+01,-5.421875000000004441e+00,2.437500000000001776e+00,1.134375000000000888e+01,1.489062500000001066e+01,1.321875000000000888e+01,2.796875000000000888e+00,-7.890625000000006217e+00,-1.259375000000000888e+01,-1.631250000000001066e+01,-9.765625000000005329e+00,-6.562499999999993339e-01,3.890625000000002665e+00,1.123437500000000711e+01,9.109375000000007105e+00,3.250000000000002665e+00,4.218750000000011102e-01,-5.093750000000002665e+00,-3.078125000000001332e+00,3.000000000000001776e+00,6.968750000000003553e+00,1.106250000000000711e+01,1.100000000000000711e+01,6.500000000000003553e+00,3.843750000000003109e+00,2.703125000000002220e+00,9.375000000000008882e-01,9.687500000000008882e-01,-2.281250000000001776e+00,-5.687500000000003553e+00,-4.312500000000001776e+00,-2.046875000000001332e+00,5.921875000000003553e+00,1.054687500000000711e+01,9.390625000000005329e+00,8.562500000000005329e+00,-1.718750000000004441e-01,-4.156250000000002665e+00,-4.843750000000002665e+00,-8.718750000000007105e+00,-4.453125000000003553e+00,-2.734375000000002220e+00,-1.046875000000000888e+00,5.875000000000003553e+00,8.000000000000005329e+00,9.906250000000007105e+00,1.007812500000000711e+01,6.156250000000003553e+00,2.250000000000001332e+00,-1.000000000000000666e+00,-1.531250000000000888e+00,-2.468750000000001776e+00,-9.531250000000006661e-01,1.906250000000001332e+00,4.218750000000003331e-01,2.406250000000001332e+00,2.531250000000001332e+00,-1.531250000000000888e+00,-5.156250000000003331e-01,-2.984375000000002220e+00,-5.328125000000003553e+00,-1.515625000000001110e+00,-3.124999999999977796e-02,4.203125000000002665e+00,9.171875000000007105e+00,9.296875000000007105e+00,7.718750000000005329e+00,4.875000000000003553e+00,1.437500000000000888e+00,-1.281250000000000444e+00,-2.406250000000001332e+00,-4.781250000000002665e+00,-6.828125000000004441e+00,-7.796875000000005329e+00,-6.890625000000003553e+00,-4.093750000000002665e+00,-2.234375000000001332e+00,7.812500000000005551e-01,3.750000000000002220e-01,-4.687500000000000000e-02,2.281250000000001776e+00,5.468750000000003331e-01,4.843750000000001110e-01,-1.375000000000001110e+00,-6.906250000000004441e+00,-7.265625000000004441e+00,-5.656250000000003553e+00,-4.843750000000000000e-01,6.562500000000004441e+00,1.007812500000000711e+01,9.406250000000007105e+00,4.828125000000003553e+00,1.593750000000000666e+00,-1.640625000000001110e+00,-2.375000000000001776e+00,-7.187500000000006661e-01,-2.000000000000001776e+00,-8.750000000000007772e-01,1.062500000000000666e+00,2.453125000000001776e+00,7.609375000000005329e+00,1.212500000000000711e+01,1.667187500000001066e+01,1.946875000000001421e+01,1.715625000000001066e+01,1.396875000000001066e+01,7.109375000000005329e+00,2.890625000000002220e+00,5.125000000000004441e+00,5.375000000000003553e+00,8.031250000000003553e+00,1.018750000000000355e+01,3.515625000000001776e+00,-8.750000000000002220e-01,-4.250000000000001776e+00,-1.007812500000000355e+01,-6.578125000000003553e+00,-3.125000000000003331e-01,5.531250000000001776e+00,1.439062500000000533e+01,1.731250000000000711e+01,1.151562500000000533e+01,2.656250000000000888e+00,-1.045312500000000533e+01,-2.351562500000001421e+01,-2.654687500000001421e+01,-2.576562500000001421e+01,-2.000000000000001421e+01,-1.093750000000000711e+01,-8.515625000000007105e+00,-7.687500000000004441e+00,-8.343750000000003553e+00,-1.014062500000000533e+01,-8.218750000000003553e+00,-5.250000000000003553e+00,-2.781250000000001776e+00,-7.187500000000003331e-01,-3.125000000000002082e-02,-7.812500000000005551e-02,-1.734375000000001332e+00,-3.406250000000002665e+00,-5.968750000000003553e+00,-9.593750000000007105e+00,-6.593750000000003553e+00,-3.625000000000001776e+00,-3.125000000000000000e-02,6.343750000000003553e+00,1.328125000000000444e+00,-4.703125000000003553e+00,-5.703125000000003553e+00,-1.135937500000000711e+01,-6.453125000000004441e+00,2.671875000000001776e+00,1.875000000000002220e-01,6.984375000000005329e+00,7.984375000000005329e+00,-1.656250000000001110e+00,-1.000000000000000444e+00,-1.382812500000001066e+01,-2.623437500000001776e+01,-2.212500000000001421e+01,-2.204687500000001421e+01,-1.070312500000000711e+01,5.906250000000003553e+00,9.671875000000005329e+00,1.721875000000001066e+01,2.231250000000001421e+01,2.142187500000001421e+01,2.728125000000001421e+01,2.540625000000001421e+01,1.762500000000001066e+01,1.195312500000000711e+01,-1.312500000000000000e+00,-7.671875000000003553e+00,-8.828125000000005329e+00,-1.131250000000000711e+01,-6.625000000000003553e+00,-5.640625000000003553e+00,-3.312500000000001776e+00,1.671875000000001554e+00,3.796875000000002665e+00,8.921875000000007105e+00,9.187500000000007105e+00,5.765625000000003553e+00,2.156250000000001332e+00,-4.328125000000003553e+00,-7.171875000000005329e+00,-6.203125000000004441e+00,-4.281250000000002665e+00,-2.062500000000001332e+00,-1.765625000000000888e+00,-2.843750000000001776e+00,-3.812500000000002665e+00,-3.281250000000002220e-01,6.593750000000004441e+00,1.445312500000001066e+01,2.081250000000001421e+01,2.020312500000001066e+01,1.465625000000000711e+01,5.296875000000002665e+00,-2.093750000000000888e+00,-5.640625000000003553e+00,-5.343750000000003553e+00,-2.515625000000001776e+00,-1.828125000000001776e+00,-4.687500000000006661e-01,-2.796875000000002665e+00,-2.765625000000002665e+00,-8.750000000000002220e-01,-1.203125000000000444e+00,2.031250000000003886e-01,-4.812500000000002665e+00,-1.578125000000001066e+01,-2.884375000000001776e+01,-4.134375000000002842e+01,-4.992187500000004263e+01,-4.889062500000003553e+01,-4.190625000000002842e+01,-3.556250000000002132e+01,-2.537500000000001421e+01,-1.589062500000000888e+01,-5.843750000000003553e+00,8.375000000000005329e+00,2.093750000000001421e+01,2.635937500000001776e+01,2.704687500000002132e+01,2.523437500000001421e+01,2.093750000000001066e+01,2.257812500000001421e+01,2.642187500000001421e+01,2.687500000000002132e+01,2.598437500000002132e+01,2.060937500000001421e+01,1.289062500000000711e+01,6.953125000000003553e+00,2.875000000000001776e+00,7.812500000000004441e-01,3.281250000000002220e-01,3.125000000000002220e-01,2.968750000000002220e-01,2.812500000000001665e-01,1.093750000000000694e-01,0.000000000000000000e+00,-1.093750000000000833e-01,-1.406250000000001110e-01,-9.375000000000008327e-02,-9.375000000000008327e-02,-4.687500000000004163e-02,-9.375000000000008327e-02,-1.387778780781445676e-17,1.093750000000000833e-01,1.718750000000001110e-01,2.812500000000001665e-01,1.562500000000000833e-01,4.687500000000002776e-02,-4.687500000000003469e-02,-9.375000000000006939e-02,3.125000000000001388e-02,1.406250000000000833e-01,3.593750000000002220e-01,1.171875000000000888e+00,2.468750000000001776e+00,4.640625000000003553e+00,9.625000000000005329e+00,1.487500000000000888e+01,2.067187500000001421e+01,2.631250000000002132e+01,2.257812500000001776e+01,1.464062500000001066e+01,1.640625000000000888e+00,-1.682812500000001066e+01,-2.498437500000002132e+01,-2.989062500000002132e+01,-2.890625000000001776e+01,-1.896875000000001421e+01,-1.298437500000000711e+01,-2.375000000000000444e+00,9.078125000000007105e+00,1.520312500000001066e+01,2.206250000000001421e+01,2.057812500000001421e+01,1.189062500000000711e+01,5.468750000000003553e+00,-4.109375000000001776e+00,-8.843750000000003553e+00,-6.250000000000003553e+00,-6.593750000000004441e+00,-1.703125000000001332e+00,1.437500000000000888e+00,4.218750000000002220e-01,1.421875000000001110e+00,-3.703125000000002220e+00,-6.390625000000003553e+00,-6.343750000000003553e+00,-5.171875000000003553e+00,4.234375000000001776e+00,8.921875000000005329e+00,9.250000000000005329e+00,5.453125000000002665e+00,-6.765625000000004441e+00,-1.303125000000000888e+01,-1.370312500000001066e+01,-8.437500000000007105e+00,1.671875000000000666e+00,6.343750000000003553e+00,6.796875000000005329e+00,2.890625000000002220e+00,-3.640625000000002220e+00,-6.890625000000004441e+00,-7.671875000000005329e+00,-7.203125000000005329e+00,-4.156250000000002665e+00,-5.000000000000001110e-01,1.078125000000000888e+00,1.359375000000000888e+00,6.406250000000005551e-01,-4.843750000000002665e+00,-7.484375000000004441e+00,-7.093750000000004441e+00,-8.437500000000005329e+00,-1.906250000000001776e+00,1.000000000000000222e+00,5.468750000000004441e-01,4.687500000000002665e+00,8.593750000000004441e-01,1.468750000000000888e+00,6.578125000000003553e+00,4.875000000000002665e+00,7.906250000000005329e+00,6.609375000000004441e+00,-1.000000000000000888e+00,-1.156250000000001110e+00,-3.203125000000002665e+00,-4.265625000000003553e+00,1.343750000000000888e+00,1.125000000000000888e+00,2.156250000000001776e+00,6.078125000000004441e+00,2.734375000000002220e+00,1.781250000000001332e+00,1.250000000000000000e-01,-4.328125000000003553e+00,9.375000000000000000e-02,4.578125000000003553e+00,7.265625000000005329e+00,9.484375000000007105e+00,1.671875000000001332e+00,-8.375000000000005329e+00,-1.475000000000001066e+01,-1.790625000000001421e+01,-1.356250000000001066e+01,-4.000000000000001776e+00,4.671875000000003553e+00,9.296875000000007105e+00,1.143750000000000711e+01,9.609375000000007105e+00,3.593750000000002220e+00,9.531250000000004441e-01,2.187500000000001110e-01,-2.765625000000001776e+00,-4.843750000000000000e-01,-1.296875000000000000e+00,-5.750000000000003553e+00,-5.062500000000003553e+00,-5.406250000000003553e+00,-5.468750000000008882e-01,5.796875000000004441e+00,8.828125000000007105e+00,8.640625000000007105e+00,5.000000000000013323e-01,-6.343750000000003553e+00,-1.021875000000000711e+01,-1.109375000000000711e+01,-3.281250000000001776e+00,2.953125000000001776e+00,5.812500000000003553e+00,8.875000000000005329e+00,4.703125000000002665e+00,2.062500000000001332e+00,2.828125000000001776e+00,8.906250000000006661e-01,3.750000000000002665e+00,4.296875000000002665e+00,-2.187499999999998890e-01,-1.593750000000000666e+00,-6.265625000000003553e+00,-7.875000000000003553e+00,-5.546875000000003553e+00,-5.281250000000003553e+00,-1.515625000000000888e+00,1.875000000000000000e-01,3.343750000000002220e+00,6.984375000000005329e+00,7.984375000000005329e+00,8.296875000000005329e+00,5.437500000000003553e+00,2.953125000000001776e+00,-1.562500000000000000e-02,5.625000000000002220e-01,-9.218750000000008882e-01,-3.328125000000002665e+00,-3.109375000000002665e+00,-7.781250000000004441e+00,-5.718750000000002665e+00,-2.109375000000001332e+00,-2.109375000000001332e+00,1.312500000000000888e+00,2.343750000000002220e-01,-6.875000000000005551e-01,3.031250000000001776e+00,5.375000000000002665e+00,7.875000000000003553e+00,7.406250000000003553e+00,2.718750000000001332e+00,-4.218750000000003886e-01,-3.468750000000002220e+00,-5.296875000000003553e+00,-3.328125000000002220e+00,-4.625000000000003553e+00,-4.859375000000003553e+00,1.562500000000000000e-01,-6.875000000000006661e-01,3.828125000000001332e+00,8.093750000000003553e+00,2.406250000000000888e+00,4.093750000000002665e+00
3.312500000000001776e+00,-9.062500000000003553e+00,-3.750000000000000000e-01,2.812500000000000888e+00,-7.562500000000003553e+00,-5.187500000000002665e+00,5.062500000000001776e+00,6.375000000000002665e+00,4.625000000000001776e+00,2.687500000000001332e+00,-6.687500000000003553e+00,-8.500000000000003553e+00,1.187500000000000444e+00,6.562500000000003553e+00,4.875000000000002665e+00,-3.312500000000000888e+00,-1.006250000000000355e+01,-1.375000000000000888e+00,1.362500000000000711e+01,7.812500000000004441e+00,-1.056250000000000355e+01,-8.687500000000003553e+00,2.875000000000000888e+00,2.812500000000000888e+00,-1.000000000000000444e+00,-2.250000000000000888e+00,2.937500000000001332e+00,6.562500000000002665e+00,-1.875000000000000888e+00,-7.875000000000003553e+00,-7.250000000000003553e+00,-1.875000000000000000e-01,1.018750000000000533e+01,1.125000000000001776e+00,-8.937500000000003553e+00,5.562500000000001776e+00,1.087500000000000355e+01,-4.375000000000002665e+00,-6.312500000000003553e+00,3.562500000000001776e+00,-7.500000000000000000e-01,-7.937500000000003553e+00,1.187500000000000888e+00,6.000000000000003553e+00,1.375000000000000444e+00,3.250000000000001776e+00,6.875000000000008882e-01,-2.187500000000000888e+00,-1.062500000000000666e+00,-5.062500000000002665e+00,-1.875000000000000000e-01,6.500000000000003553e+00,4.437500000000001776e+00,1.125000000000000666e+00,-7.875000000000003553e+00,-8.687500000000003553e+00,4.750000000000003553e+00,8.937500000000003553e+00,1.250000000000000000e-01,-1.875000000000000222e+00,3.250000000000001776e+00,-5.812500000000002665e+00,-1.125000000000000533e+01,4.375000000000001776e+00,7.500000000000003553e+00,1.250000000000000278e-01,4.687500000000001776e+00,3.062500000000000888e+00,-6.000000000000002665e+00,-9.250000000000003553e+00,-4.562500000000001776e+00,5.500000000000001776e+00,2.000000000000000000e+00,-4.437500000000001776e+00,6.750000000000003553e+00,8.750000000000003553e+00,-5.625000000000003553e+00,-1.031250000000000533e+01,-3.187500000000001776e+00,4.375000000000000555e-01,1.875000000000002776e-01,3.750000000000002220e+00,4.125000000000001776e+00,5.062500000000001776e+00,5.562500000000002665e+00,-9.812500000000005329e+00,-1.531250000000000711e+01,6.687500000000003553e+00,1.500000000000000711e+01,-1.687500000000000888e+00,-6.625000000000003553e+00,-2.437500000000001332e+00,-1.062500000000000666e+00,8.687500000000003553e+00,9.125000000000003553e+00,-1.562500000000000222e+00,-4.062500000000001776e+00,-6.875000000000002220e-01,8.500000000000003553e+00,7.812500000000003553e+00,-7.000000000000003553e+00,-6.062500000000003553e+00,4.062500000000001776e+00,-1.437500000000000000e+00,-7.187500000000003553e+00,1.937500000000000444e+00,9.875000000000003553e+00,8.375000000000003553e+00,7.062500000000002665e+00,2.187499999999999556e+00,-1.225000000000000533e+01,-1.331250000000000355e+01,1.100000000000000711e+01,2.400000000000001421e+01,3.875000000000001776e+00,-1.325000000000000711e+01,-9.687500000000005329e+00,-9.312500000000005329e+00,-1.043750000000000533e+01,-4.000000000000001776e+00,-1.250000000000000555e-01,-6.250000000000002776e-02,-6.250000000000002776e-02,-1.250000000000000555e-01,6.250000000000002776e-02,2.500000000000001110e-01,6.250000000000002776e-02,-6.250000000000002776e-02,6.250000000000002776e-02,-6.250000000000002776e-02,-1.875000000000000833e-01,6.250000000000002776e-02,6.250000000000002776e-02,-1.875000000000000833e-01,-6.250000000000002776e-02,1.250000000000000555e-01,6.250000000000002776e-02,6.250000000000002776e-02,1.250000000000000555e-01,-6.250000000000002776e-02,-2.500000000000001110e-01,0.000000000000000000e+00,3.125000000000001665e-01,1.250000000000000833e-01,-2.500000000000001110e-01,-2.500000000000001110e-01,-1.250000000000000555e-01,0.000000000000000000e+00,2.500000000000001110e-01,2.500000000000001110e-01,6.250000000000002776e-02,-1.250000000000000555e-01,-2.500000000000001110e-01,0.000000000000000000e+00,2.500000000000001110e-01,0.000000000000000000e+00,-2.500000000000001110e-01,0.000000000000000000e+00,2.500000000000001110e-01,0.000000000000000000e+00,-2.500000000000001110e-01,0.000000000000000000e+00,2.500000000000001110e-01,6.250000000000002776e-02,-1.875000000000000833e-01,-2.500000000000001110e-01,-6.250000000000002776e-02,2.500000000000001110e-01,1.875000000000001110e-01,0.000000000000000000e+00,6.250000000000002776e-02,-2.625000000000000888e+00,-1.193750000000000355e+01,-1.781250000000000711e+01,-5.000000000000001776e+00,1.125000000000000355e+01,5.625000000000001776e+00,-8.000000000000003553e+00,-6.250000000000001776e+00,3.125000000000000888e+00,1.037500000000000355e+01,1.250000000000000711e+01,1.625000000000000888e+00,-1.112500000000000533e+01,-8.812500000000005329e+00,4.500000000000001776e+00,1.106250000000000711e+01,9.375000000000017764e-01,-6.812500000000001776e+00,-1.250000000000000444e+00,6.249999999999911182e-02,-2.625000000000001776e+00,-2.499999999999991118e-01,-1.562500000000000222e+00,-4.187500000000002665e+00,-3.750000000000011102e-01,5.937500000000002665e+00,9.187500000000005329e+00,2.250000000000001776e+00,-6.062500000000001776e+00,-3.125000000000001332e+00,3.000000000000000888e+00,3.562500000000000888e+00,4.250000000000001776e+00,6.562500000000003553e+00,1.250000000000004441e-01,-6.312500000000002665e+00,-3.812500000000001776e+00,1.125000000000000222e+00,8.187500000000003553e+00,3.125000000000001776e+00,-1.443750000000000533e+01,-1.593750000000000533e+01,-3.750000000000000000e-01,1.418750000000000533e+01,1.581250000000000533e+01,-3.125000000000017764e-01,-1.512500000000000711e+01,-7.875000000000003553e+00,9.750000000000003553e+00,9.875000000000003553e+00,-4.000000000000000888e+00,-5.937500000000002665e+00,3.062500000000000888e+00,1.206250000000000533e+01,8.437500000000003553e+00,-7.437500000000003553e+00,-5.562500000000002665e+00,1.875000000000000888e+00,-7.312500000000003553e+00,-5.437500000000002665e+00,1.231250000000000355e+01,1.593750000000000533e+01,-3.375000000000001776e+00,-1.212500000000000533e+01,2.750000000000001776e+00,2.187500000000001776e+00,-7.062500000000003553e+00,2.062500000000001332e+00,4.312500000000001776e+00,3.125000000000002220e-01,4.125000000000002665e+00,-5.187500000000001776e+00,-1.475000000000000711e+01,-2.500000000000008882e-01,1.437500000000000711e+01,5.062500000000001776e+00,-7.375000000000003553e+00,7.500000000000008882e-01,4.312500000000001776e+00,-8.875000000000003553e+00,-7.750000000000003553e+00,6.125000000000001776e+00,8.812500000000003553e+00,3.687500000000002220e+00,-3.687500000000001332e+00,-8.250000000000003553e+00,2.625000000000001776e+00,1.137500000000000533e+01,1.437500000000000000e+00,-8.875000000000003553e+00,-7.875000000000002665e+00,2.312500000000000888e+00,5.312500000000001776e+00,-6.125000000000003553e+00,-5.375000000000002665e+00,9.812500000000003553e+00,1.075000000000000355e+01,-3.312500000000001776e+00,-5.750000000000002665e+00,3.437500000000001776e+00,3.750000000000000000e-01,-3.062500000000001776e+00,8.125000000000002220e-01,-7.250000000000003553e+00,-9.687500000000003553e+00,3.812500000000000888e+00,9.937500000000003553e+00,3.687500000000001776e+00,-5.625000000000002665e+00,-4.875000000000002665e+00,5.000000000000005551e-01,-5.625000000000000000e-01,7.125000000000002665e+00,1.043750000000000533e+01,-3.375000000000000444e+00,-3.125000000000000444e+00,3.937500000000001776e+00,1.250000000000000666e+00,3.375000000000001776e+00,-2.812500000000001776e+00,-9.937500000000005329e+00,4.250000000000001776e+00,1.100000000000000533e+01,7.312500000000003553e+00,1.037500000000000355e+01,-2.937500000000000888e+00,-1.693750000000000711e+01,-2.812500000000001776e+00,4.187500000000001776e+00,-2.437500000000000888e+00,4.437500000000003553e+00,3.500000000000002220e+00,-6.250000000000003553e+00,1.687500000000000888e+00,1.312500000000000888e+00,-1.481250000000000711e+01,-6.125000000000003553e+00,1.137500000000000533e+01,3.750000000000000000e-01,-7.375000000000003553e+00,8.000000000000003553e+00,1.068750000000000355e+01,-4.187500000000001776e+00,-1.062500000000000355e+01,-3.250000000000000888e+00,5.437500000000002665e+00,2.625000000000000888e+00,-6.250000000000003553e+00,-4.375000000000002665e+00,2.220446049250313081e-16,-6.375000000000001776e+00,-3.750000000000000888e+00,1.012500000000000355e+01,1.143750000000000533e+01,-5.000000000000000000e-01,-1.218750000000000533e+01,-7.937500000000003553e+00,1.137500000000000533e+01,1.468750000000000711e+01,-6.812500000000003553e+00,-1.743750000000000711e+01,-1.625000000000001776e+00,1.081250000000000355e+01,4.375000000000001776e+00,1.187500000000000888e+00,3.812500000000001776e+00,-7.312500000000002665e+00,-1.312500000000000533e+01,1.375000000000000000e+00,7.937500000000002665e+00,5.437500000000002665e+00,6.625000000000003553e+00,-4.187500000000001776e+00,-1.475000000000000711e+01,6.250000000000000000e-01,1.631250000000000711e+01,2.187500000000000000e+00,-1.537500000000000711e+01,-4.750000000000001776e+00,1.281250000000000533e+01,1.137500000000000533e+01,-5.625000000000004441e-01,-1.087500000000000533e+01,-1.437500000000000711e+01,-4.562500000000001776e+00,1.275000000000000533e+01,1.375000000000000533e+01,-6.250000000000001776e+00,-1.393750000000000533e+01,8.750000000000000000e-01,9.312500000000003553e+00,5.062500000000002665e+00,-1.250000000000000222e+00,-3.750000000000001776e+00,-3.125000000000001332e+00,-5.250000000000002665e+00,1.187500000000000000e+00,1.293750000000000533e+01,7.437500000000003553e+00,-7.937500000000003553e+00,-9.187500000000003553e+00,4.062500000000002665e+00,5.312500000000003553e+00,-8.812500000000003553e+00,-3.812500000000001776e+00,1.337500000000000533e+01,3.125000000000000000e+00,-1.312500000000000711e+01,-8.125000000000000000e-01,1.075000000000000533e+01,9.375000000000000000e-01,-9.562500000000005329e+00,-7.750000000000004441e+00,5.187500000000002665e+00,9.187500000000003553e+00,1.875000000000000888e+00,-5.000000000000002220e-01,-4.687500000000001776e+00,-2.375000000000000888e+00,5.937500000000002665e+00,-3.562500000000001776e+00,-1.343750000000000711e+01,1.187500000000000888e+00,1.475000000000000711e+01,5.000000000000000000e-01,-8.812500000000003553e+00,4.937500000000002665e+00,4.562500000000002665e+00,-5.625000000000001776e+00,-4.250000000000001776e+00,-2.500000000000000000e-01,8.125000000000003553e+00,5.125000000000002665e+00,-1.187500000000000355e+01,-3.687500000000000888e+00,1.431250000000000711e+01,5.625000000000000000e-01,-1.262500000000000533e+01,2.312500000000001776e+00,7.812500000000003553e+00,-2.062500000000000444e+00,-4.812500000000001776e+00,-3.750000000000001776e+00,2.375000000000000888e+00,9.687500000000003553e+00,7.312500000000003553e+00,-2.125000000000000888e+00,-5.187500000000002665e+00,-8.125000000000004441e-01,-5.062500000000002665e+00,-4.312500000000001776e+00,6.500000000000003553e+00,3.812500000000001776e+00,-1.125000000000000666e+00,1.937500000000000888e+00,-1.625000000000000888e+00,-8.375000000000003553e+00,-1.750000000000000888e+00,1.206250000000000533e+01,5.937500000000002665e+00,-1.168750000000000355e+01,-8.875000000000003553e+00,6.937500000000003553e+00,8.062500000000003553e+00,-6.437500000000003553e+00,-1.437500000000000711e+01,-4.500000000000001776e+00,1.168750000000000355e+01,1.393750000000000533e+01,-2.000000000000001776e+00,-9.375000000000003553e+00,2.812500000000000888e+00,7.125000000000002665e+00,-2.125000000000000888e+00,-9.437500000000003553e+00,-6.000000000000001776e+00,1.037500000000000355e+01,1.181250000000000355e+01,-9.187500000000003553e+00,-1.168750000000000355e+01,2.562500000000000888e+00,-1.875000000000000000e-01,-2.187500000000000888e+00,8.500000000000003553e+00,2.625000000000001776e+00,-6.937500000000003553e+00,-4.375000000000000000e-01,1.062500000000000888e+00,2.312500000000001332e+00,8.062500000000003553e+00,1.000000000000000000e+00,-1.043750000000000533e+01,-1.068750000000000533e+01,-2.500000000000000000e-01,6.375000000000002665e+00,5.250000000000001776e+00,5.937500000000002665e+00,-1.187500000000000000e+00,-8.500000000000003553e+00,2.187500000000000888e+00,1.068750000000000533e+01,8.875000000000005329e+00,5.062500000000002665e+00,-3.250000000000002665e+00,-7.750000000000004441e+00,-3.125000000000001776e+00,7.187500000000003553e+00,1.343750000000000711e+01,1.062500000000000355e+01,7.437500000000003553e+00,-3.000000000000000000e+00,-1.975000000000001066e+01,-1.468750000000000711e+01,6.500000000000003553e+00,7.625000000000003553e+00,-8.812500000000003553e+00,-1.437500000000000711e+01,-1.375000000000000888e+00,1.387500000000000533e+01,1.168750000000000355e+01,-4.375000000000002665e+00,-8.937500000000003553e+00,2.937500000000000888e+00,7.437500000000002665e+00,1.750000000000000888e+00,3.750000000000001110e-01,4.250000000000001776e+00,6.875000000000003553e+00,-1.187500000000000000e+00,-1.337500000000000533e+01,-7.312500000000003553e+00,7.250000000000002665e+00,1.125000000000000888e+00,-6.750000000000003553e+00,6.750000000000001776e+00,1.031250000000000355e+01,-7.312500000000003553e+00,-1.450000000000000533e+01,-6.437500000000001776e+00,-7.500000000000004441e-01,6.250000000000002776e-02,1.875000000000000833e-01,6.250000000000002776e-02,-3.750000000000002220e-01,-4.375000000000002220e-01,1.250000000000000555e-01,4.375000000000002220e-01,6.250000000000005551e-02,-2.500000000000001110e-01,-6.250000000000002776e-02,1.250000000000000555e-01,1.250000000000000555e-01,1.250000000000000555e-01,0.000000000000000000e+00,-1.250000000000000555e-01,-6.250000000000002776e-02,0.000000000000000000e+00,6.250000000000002776e-02,1.250000000000000555e-01,-1.250000000000000833e-01,-3.750000000000002220e-01,6.250000000000000000e-02,5.000000000000002220e-01,6.250000000000000000e-02,-3.125000000000001665e-01,-6.250000000000002776e-02,-1.250000000000000833e-01,-2.500000000000001110e-01,3.125000000000002220e-01,5.000000000000002220e-01,-1.875000000000001110e-01,-3.125000000000001665e-01,3.125000000000001665e-01,2.500000000000001110e-01,-4.375000000000002220e-01,-5.000000000000002220e-01,1.875000000000001110e-01,5.625000000000002220e-01,6.250000000000000000e-02,-3.750000000000002220e-01,-1.250000000000000833e-01,1.250000000000000555e-01,1.250000000000000555e-01,1.250000000000000555e-01,-5.875000000000001776e+00,-1.393750000000000533e+01,-4.125000000000001776e+00,7.250000000000003553e+00,2.125000000000000888e+00,5.125000000000002665e+00,6.375000000000003553e+00,-1.318750000000000533e+01,-2.825000000000001421e+01,-2.125000000000001066e+01,8.812500000000003553e+00,3.712500000000001421e+01,2.162500000000000711e+01,-6.937500000000003553e+00,-2.875000000000001776e+00,-3.062500000000001776e+00,-1.106250000000000533e+01,5.000000000000001776e+00,1.087500000000000355e+01,-9.125000000000003553e+00,-1.906250000000000711e+01,-7.750000000000001776e+00,1.181250000000000355e+01,2.537500000000001066e+01,1.300000000000000711e+01,-1.375000000000000711e+01,-1.212500000000000711e+01,2.437500000000001332e+00,-4.812500000000001776e+00,-9.812500000000005329e+00,-3.375000000000001332e+00,3.875000000000001776e+00,1.262500000000000533e+01,8.312500000000003553e+00,-1.500000000000000666e+00,-4.125000000000000888e+00,-6.500000000000002665e+00,-2.625000000000001776e+00,8.750000000000001110e-01,-1.875000000000000555e-01,8.500000000000003553e+00,1.237500000000000533e+01,2.500000000000000000e-01,-5.875000000000002665e+00,-4.750000000000001776e+00,-3.375000000000000888e+00,8.625000000000003553e+00,1.481250000000000533e+01,-4.687500000000003553e+00,-2.412500000000001066e+01,-1.037500000000000355e+01,1.787500000000001066e+01,1.712500000000000711e+01,1.249999999999995559e-01,-4.312500000000001776e+00,-2.375000000000000888e+00,2.875000000000001776e+00,-1.062500000000000000e+00,-9.500000000000003553e+00,-5.625000000000000000e-01,4.250000000000000888e+00,-1.375000000000001110e+00,-2.062500000000000888e+00,-2.312500000000000888e+00,6.937500000000002665e+00,1.662500000000000711e+01,6.250000000000000000e-01,-1.456250000000000711e+01,-5.000000000000000000e-01,9.437500000000003553e+00,-2.812500000000001776e+00,-5.562500000000002665e+00,8.125000000000004441e-01,1.125000000000000444e+00,5.125000000000001776e+00,1.875000000000000444e+00,-6.000000000000003553e+00,2.500000000000000000e-01,2.437500000000001332e+00,-1.062500000000000444e+00,-1.187500000000000666e+00,-7.937500000000004441e+00,-2.937500000000001776e+00,1.393750000000000533e+01,9.062500000000003553e+00,-4.250000000000001776e+00,5.000000000000004441e-01,2.875000000000001332e+00,-6.250000000000001776e+00,-2.937500000000000444e+00,8.187500000000003553e+00,3.312500000000000444e+00,-1.143750000000000533e+01,-1.250000000000000533e+01,2.000000000000000888e+00,1.168750000000000711e+01,2.937500000000001776e+00,-9.625000000000005329e+00,-2.562500000000001776e+00,6.125000000000002665e+00,-8.125000000000008882e-01,5.000000000000000000e-01,4.687500000000001776e+00,-2.812500000000001332e+00,-4.375000000000001776e+00,-4.687500000000001776e+00,-1.031250000000000533e+01,-1.250000000000008882e-01,2.050000000000001066e+01,1.675000000000000711e+01,-9.250000000000003553e+00,-1.843750000000000711e+01,-6.250000000000000000e-02,1.606250000000000711e+01,3.375000000000000888e+00,-1.412500000000000711e+01,-3.187500000000001776e+00,7.625000000000002665e+00,-8.750000000000004441e-01,4.375000000000004441e-01,5.687500000000002665e+00,-2.812500000000000888e+00,1.687500000000001776e+00,2.268750000000001066e+01,1.431250000000000533e+01,-1.656250000000000711e+01,-1.137500000000000533e+01,9.562500000000005329e+00,3.062500000000001776e+00,1.625000000000000888e+00,8.625000000000003553e+00,1.874999999999991118e-01,-1.875000000000000000e-01,-6.249999999999911182e-02,-1.112500000000000711e+01,-2.875000000000002665e+00,4.562500000000001776e+00,-7.500000000000003553e+00,3.124999999999991118e-01,2.100000000000001066e+01,1.481250000000000888e+01,-5.312500000000001776e+00,-1.068750000000000711e+01,-2.625000000000002665e+00,-5.875000000000003553e+00,-2.350000000000001066e+01,-1.375000000000000711e+01,1.593750000000000711e+01,1.200000000000000711e+01,-1.000000000000000355e+01,-1.131250000000000355e+01,-2.750000000000000888e+00,6.250000000000002776e-02,0.000000000000000000e+00,0.000000000000000000e+00,0.000000000000000000e+00,0.000000000000000000e+00,0.000000000000000000e+00,-6.250000000000002776e-02,-1.250000000000000555e-01,6.250000000000002776e-02,1.875000000000000833e-01,-6.812500000000003553e+00,-1.362500000000000711e+01,3.250000000000001776e+00,1.550000000000000711e+01,1.312500000000000888e+00,4.625000000000001776e+00,2.312500000000000000e+00,-3.181250000000001776e+01,-1.800000000000001066e+01,3.231250000000001421e+01,2.681250000000001421e+01,-1.781250000000001066e+01,-3.562500000000001421e+01,1.068750000000000711e+01,5.206250000000002842e+01,-5.375000000000000000e+00,-5.181250000000002132e+01,-1.031250000000000178e+01,6.562500000000002665e+00,-6.750000000000003553e+00,7.062500000000003553e+00,1.118750000000000533e+01,-6.250000000000008882e-01,-4.375000000000000000e-01,9.312500000000005329e+00,1.062500000000000533e+01,5.625000000000000000e-01,1.137500000000000533e+01,2.300000000000001066e+01,-9.562500000000007105e+00,-3.037500000000001421e+01,-1.562500000000000000e+00,1.975000000000000711e+01,2.250000000000000000e+00,-2.000000000000001066e+01,-8.062500000000005329e+00,1.475000000000000533e+01,8.062500000000003553e+00,-1.018750000000000355e+01,-4.562500000000001776e+00,1.918750000000000711e+01,1.506250000000000711e+01,-1.893750000000000711e+01,-2.031250000000000711e+01,9.687500000000003553e+00,9.687500000000003553e+00,-9.000000000000003553e+00,-1.250000000000000888e+00,9.625000000000003553e+00,-4.062500000000001776e+00,-1.256250000000000533e+01,-1.750000000000000888e+00,7.437500000000002665e+00,1.143750000000000533e+01,1.481250000000000711e+01,8.625000000000003553e+00,-5.437500000000003553e+00,-8.812500000000003553e+00,-3.500000000000000888e+00,-1.875000000000000444e+00,1.125000000000000666e+00,6.062500000000001776e+00,8.749999999999995559e-01,-7.750000000000003553e+00,-8.750000000000000000e-01,3.625000000000001776e+00,-4.625000000000001776e+00,-1.562500000000000444e+00,8.062500000000003553e+00,5.937500000000001776e+00,-6.687500000000003553e+00,-2.031250000000001066e+01,-2.150000000000001066e+01,-1.487500000000000711e+01,-1.687500000000000711e+01,-6.187500000000000888e+00,1.550000000000000711e+01,-6.250000000000007105e+00,-3.568750000000002132e+01,-3.125000000000000000e-01,3.725000000000002132e+01,1.481250000000000711e+01,-3.375000000000002665e+00,7.312500000000003553e+00,1.000000000000000888e+00,-5.187500000000002665e+00,1.112500000000000533e+01,1.887500000000000711e+01,9.500000000000003553e+00,1.875000000000000888e+00,3.125000000000001110e-01,1.875000000000000833e-01,1.875000000000000833e-01,1.250000000000000555e-01,-1.875000000000001110e-01,-1.875000000000001110e-01,3.750000000000002220e-01,5.000000000000002220e-01,-1.250000000000000555e-01,-3.125000000000001110e-01,0.000000000000000000e+00,0.000000000000000000e+00,-1.250000000000000555e-01,6.250000000000002776e-02,1.875000000000000833e-01,-6.250000000000002776e-02,-2.500000000000001110e-01,-1.875000000000000833e-01,1.875000000000000833e-01,5.000000000000002220e-01,1.250000000000000555e-01,-2.500000000000001110e-01,-1.250000000000000555e-01,-6.250000000000002776e-02,-1.250000000000000555e-01,1.250000000000000833e-01,3.750000000000002220e-01,0.000000000000000000e+00,-2.500000000000001110e-01,3.125000000000001110e-01,8.125000000000004441e-01,3.000000000000000888e+00,6.750000000000002665e+00,4.562500000000002665e+00,7.250000000000003553e+00,2.200000000000001066e+01,1.018750000000000711e+01,-2.243750000000000711e+01,-2.175000000000001066e+01,-4.937500000000002665e+00,-3.312500000000001332e+00,-5.500000000000001776e+00,-4.187500000000001776e+00,-1.875000000000004441e-01,-2.187500000000000888e+00,6.250000000000044409e-02,1.693750000000000711e+01,1.831250000000001066e+01,1.750000000000000888e+00,-6.562500000000003553e+00,-7.437500000000003553e+00,-1.375000000000000888e+00,1.249999999999999778e+00,-6.562500000000002665e+00,-7.500000000000000000e-01,7.062500000000002665e+00,-1.500000000000000888e+00,-3.187500000000000888e+00,6.125000000000003553e+00,3.750000000000001776e+00,-1.206250000000000711e+01,-1.187500000000000533e+01,3.437500000000000888e+00,5.125000000000001776e+00,1.025000000000000355e+01,1.825000000000000711e+01,-2.562500000000000000e+00,-2.431250000000001066e+01,-1.593750000000000711e+01,9.375000000000008882e-01,7.625000000000003553e+00,1.187500000000000533e+01,1.031250000000000355e+01,-7.875000000000004441e+00,-1.400000000000000711e+01,6.187500000000003553e+00,6.750000000000004441e+00,-1.437500000000000711e+01,-6.437500000000003553e+00,1.243750000000000533e+01,2.500000000000000000e-01,-9.187500000000003553e+00,8.000000000000003553e+00,1.143750000000000355e+01,-1.018750000000000533e+01,-2.056250000000000711e+01,7.500000000000017764e-01,1.856250000000000711e+01,-4.062500000000003553e+00,-1.581250000000000711e+01,1.075000000000000711e+01,1.506250000000000711e+01,-7.437500000000003553e+00,-1.687500000000000711e+01,-5.000000000000000000e-01,2.525000000000001066e+01,1.356250000000000533e+01,-1.787500000000000711e+01,-1.275000000000000711e+01,4.062500000000001776e+00,5.500000000000002665e+00,2.875000000000001332e+00,-3.875000000000001332e+00,-2.437500000000000888e+00,2.875000000000001332e+00,-5.000000000000002220e-01,7.000000000000002665e+00,9.687500000000003553e+00,-1.093750000000000711e+01,-1.793750000000000711e+01,1.250000000000001776e+00,1.856250000000000711e+01,1.243750000000000533e+01,-4.500000000000002665e+00,-2.187500000000001332e+00,-2.250000000000001332e+00,-2.200000000000001066e+01,-1.362500000000000533e+01,1.662500000000000711e+01,8.437500000000005329e+00,-9.812500000000003553e+00,7.250000000000000888e+00,1.368750000000000355e+01,-4.187500000000001776e+00,-3.187500000000001332e+00,-1.125000000000000444e+00,-8.312500000000003553e+00,6.562500000000003553e+00,1.125000000000000533e+01,-9.125000000000003553e+00,-7.125000000000001776e+00,3.875000000000001776e+00,-7.750000000000002665e+00,-8.875000000000003553e+00,1.681250000000000711e+01,2.056250000000000711e+01,-5.687500000000001776e+00,-1.218750000000000533e+01,-4.687500000000002665e+00,-8.437500000000003553e+00,-4.625000000000001776e+00,8.125000000000003553e+00,1.168750000000000533e+01,1.937500000000000888e+00,-7.687500000000003553e+00,1.250000000000000888e+00,7.062500000000003553e+00,-5.187500000000003553e+00,-5.437500000000003553e+00,5.625000000000001776e+00,9.750000000000003553e+00,5.250000000000002665e+00,-1.193750000000000711e+01,-1.806250000000001066e+01,3.062500000000001776e+00,1.706250000000000711e+01,7.500000000000000000e-01,-1.800000000000000711e+01,-5.562500000000003553e+00,1.550000000000000711e+01,1.137500000000000533e+01,-3.437500000000001332e+00,-4.812500000000001776e+00,3.625000000000001776e+00,4.437500000000001776e+00,-4.687500000000002665e+00,-7.062500000000003553e+00,7.062500000000002665e+00,9.437500000000003553e+00,-8.937500000000003553e+00,-1.200000000000000533e+01,-4.812500000000001776e+00,2.750000000000001776e+00,1.818750000000001066e+01,7.437500000000004441e+00,-2.362500000000001066e+01,-1.612500000000000711e+01,1.881250000000000711e+01,2.181250000000000711e+01,-4.187500000000001776e+00,-1.087500000000000355e+01,1.687500000000000888e+00,1.187500000000000888e+00,-3.625000000000001332e+00,2.500000000000000000e-01,6.250000000000001110e-01,-3.125000000000000000e-01,-4.500000000000001776e+00,-7.437500000000003553e+00,8.562500000000003553e+00,1.000000000000000533e+01,-5.500000000000003553e+00,2.875000000000000888e+00
5.000000000000017764e-01,-2.525000000000000711e+01,1.950000000000000711e+01,-3.250000000000000888e+00,-5.000000000000001776e+00,-2.000000000000000444e+00,1.250000000000000444e+00,9.500000000000001776e+00,-1.225000000000000355e+01,1.450000000000000355e+01,-5.250000000000000888e+00,-1.575000000000000355e+01,2.200000000000000711e+01,-2.100000000000000355e+01,2.500000000000000711e+01,-2.000000000000000711e+01,1.150000000000000355e+01,-1.825000000000000355e+01,1.875000000000000711e+01,3.000000000000000000e+00,-8.500000000000001776e+00,-9.500000000000001776e+00,1.600000000000000355e+01,-1.075000000000000355e+01,5.000000000000000888e+00,1.250000000000000222e+00,-1.200000000000000178e+01,2.225000000000000711e+01,-1.525000000000000355e+01,5.000000000000000000e-01,5.000000000000001776e+00,-1.575000000000000355e+01,1.725000000000000355e+01,4.250000000000000888e+00,-2.175000000000000711e+01,1.275000000000000355e+01,9.500000000000001776e+00,-9.500000000000001776e+00,-4.750000000000000888e+00,7.750000000000001776e+00,7.500000000000004441e-01,-6.750000000000001776e+00,-6.750000000000000888e+00,2.500000000000000711e+01,-2.850000000000000711e+01,2.175000000000000711e+01,-3.750000000000000888e+00,-1.350000000000000355e+01,2.075000000000000355e+01,-1.750000000000000355e+01,-1.000000000000000888e+00,1.925000000000000711e+01,-2.250000000000000711e+01,2.200000000000000711e+01,-1.125000000000000355e+01,-1.175000000000000178e+01,1.750000000000000355e+01,-1.125000000000000355e+01,1.725000000000000355e+01,-2.400000000000000711e+01,2.050000000000000355e+01,-3.250000000000000888e+00,-1.825000000000000355e+01,1.125000000000000355e+01,1.200000000000000178e+01,-2.175000000000000355e+01,1.825000000000000355e+01,-1.250000000000000000e+00,-1.075000000000000355e+01,1.150000000000000355e+01,-1.875000000000000711e+01,1.325000000000000355e+01,6.000000000000001776e+00,-1.800000000000000355e+01,9.750000000000001776e+00,1.400000000000000355e+01,-2.150000000000000711e+01,1.600000000000000355e+01,-2.325000000000000711e+01,2.775000000000000711e+01,-2.675000000000000711e+01,1.925000000000000355e+01,-3.500000000000000888e+00,-7.250000000000001776e+00,1.625000000000000355e+01,-6.500000000000000888e+00,-1.675000000000000355e+01,9.000000000000003553e+00,1.300000000000000355e+01,-5.750000000000000888e+00,-1.425000000000000355e+01,2.375000000000000711e+01,-2.600000000000000711e+01,1.450000000000000355e+01,1.300000000000000355e+01,-2.400000000000000711e+01,2.250000000000000711e+01,-1.875000000000000711e+01,6.750000000000001776e+00,1.675000000000000355e+01,-2.100000000000000355e+01,6.500000000000001776e+00,-1.750000000000000222e+00,1.100000000000000355e+01,-2.225000000000000711e+01,1.775000000000000355e+01,-8.500000000000001776e+00,1.325000000000000355e+01,-1.125000000000000355e+01,1.525000000000000355e+01,-9.750000000000001776e+00,-1.200000000000000355e+01,7.750000000000001776e+00,1.150000000000000355e+01,9.250000000000000000e+00,-2.900000000000000711e+01,2.225000000000000711e+01,-1.650000000000000355e+01,5.000000000000001110e-01,-2.500000000000000555e-01,0.000000000000000000e+00,0.000000000000000000e+00,0.000000000000000000e+00,0.000000000000000000e+00,-2.500000000000000555e-01,5.000000000000001110e-01,-2.500000000000000555e-01,0.000000000000000000e+00,0.000000000000000000e+00,2.500000000000000555e-01,-5.000000000000001110e-01,2.500000000000000555e-01,2.500000000000000555e-01,-5.000000000000001110e-01,2.500000000000000555e-01,0.000000000000000000e+00,0.000000000000000000e+00,0.000000000000000000e+00,0.000000000000000000e+00,2.500000000000000555e-01,-5.000000000000001110e-01,2.500000000000000555e-01,0.000000000000000000e+00,2.500000000000000555e-01,-2.500000000000000555e-01,-2.500000000000000555e-01,5.000000000000001110e-01,-7.500000000000002220e-01,7.500000000000002220e-01,-2.500000000000000555e-01,0.000000000000000000e+00,2.500000000000000555e-01,-5.000000000000001110e-01,2.500000000000000555e-01,0.000000000000000000e+00,2.500000000000000555e-01,-5.000000000000001110e-01,2.500000000000000555e-01,0.000000000000000000e+00,2.500000000000000555e-01,-5.000000000000001110e-01,2.500000000000000555e-01,0.000000000000000000e+00,2.500000000000000555e-01,-5.000000000000001110e-01,5.000000000000001110e-01,-7.500000000000002220e-01,7.500000000000002220e-01,-2.500000000000000555e-01,0.000000000000000000e+00,0.000000000000000000e+00,2.500000000000000555e-01,-5.000000000000001110e-01,-1.000000000000000178e+01,-5.750000000000001776e+00,1.350000000000000355e+01,1.000000000000000000e+00,-7.000000000000001776e+00,-3.750000000000001776e+00,7.500000000000002665e+00,-5.500000000000000888e+00,1.150000000000000178e+01,2.250000000000000888e+00,-1.350000000000000355e+01,6.500000000000000888e+00,-1.000000000000000355e+01,1.750000000000000355e+01,-4.500000000000000888e+00,-9.250000000000001776e+00,7.750000000000001776e+00,-2.250000000000000444e+00,-1.000000000000000000e+00,-4.000000000000000888e+00,1.275000000000000355e+01,-2.175000000000000355e+01,2.125000000000000355e+01,-1.825000000000000355e+01,1.825000000000000355e+01,-3.000000000000000888e+00,-9.000000000000001776e+00,8.250000000000001776e+00,-9.500000000000001776e+00,1.500000000000000355e+01,-1.500000000000000355e+01,1.400000000000000355e+01,5.000000000000000000e-01,-1.475000000000000355e+01,1.550000000000000355e+01,-1.475000000000000355e+01,9.250000000000001776e+00,8.750000000000001776e+00,-1.425000000000000355e+01,-5.250000000000000000e+00,4.500000000000000000e+00,-2.000000000000000000e+00,1.475000000000000355e+01,-3.000000000000000888e+00,-9.750000000000003553e+00,-1.250000000000000000e+00,2.500000000000000000e-01,1.700000000000000355e+01,-1.575000000000000355e+01,7.500000000000008882e-01,7.250000000000001776e+00,-1.125000000000000178e+01,2.650000000000000711e+01,-2.000000000000000355e+01,-7.500000000000000888e+00,2.550000000000000711e+01,-2.575000000000000711e+01,7.500000000000000888e+00,7.500000000000004441e-01,7.750000000000001776e+00,9.500000000000003553e+00,-3.125000000000000711e+01,2.275000000000000711e+01,2.250000000000000000e+00,-1.900000000000000355e+01,1.150000000000000178e+01,8.000000000000001776e+00,-1.900000000000000355e+01,1.825000000000000355e+01,-1.250000000000000000e+00,-2.000000000000000711e+01,1.275000000000000355e+01,-3.250000000000000888e+00,1.675000000000000355e+01,-2.100000000000000711e+01,4.000000000000000888e+00,1.675000000000000355e+01,-2.075000000000000711e+01,4.750000000000000888e+00,-1.000000000000000000e+00,1.075000000000000355e+01,-1.075000000000000355e+01,1.300000000000000355e+01,-1.475000000000000355e+01,-1.500000000000000000e+00,2.025000000000000711e+01,-1.550000000000000355e+01,6.750000000000001776e+00,-7.750000000000001776e+00,-3.250000000000000888e+00,1.650000000000000355e+01,-1.300000000000000355e+01,-5.000000000000000888e+00,1.075000000000000178e+01,1.000000000000000444e+00,3.750000000000000888e+00,-1.600000000000000355e+01,1.350000000000000355e+01,3.000000000000000888e+00,-1.900000000000000355e+01,2.150000000000000355e+01,-9.750000000000001776e+00,-1.375000000000000355e+01,1.750000000000000355e+01,-8.750000000000001776e+00,1.000000000000000178e+01,-4.000000000000000888e+00,-1.175000000000000178e+01,1.725000000000000355e+01,-1.200000000000000355e+01,-2.500000000000000888e+00,2.250000000000000711e+01,-1.575000000000000355e+01,-8.250000000000001776e+00,2.650000000000000711e+01,-2.850000000000000711e+01,1.950000000000000355e+01,2.500000000000000000e-01,-1.700000000000000355e+01,5.750000000000001776e+00,1.875000000000000355e+01,-2.475000000000000711e+01,2.450000000000000711e+01,-1.000000000000000000e+00,-2.125000000000000711e+01,6.000000000000001776e+00,1.525000000000000355e+01,-2.225000000000000711e+01,1.150000000000000355e+01,1.075000000000000355e+01,-2.050000000000000355e+01,7.750000000000001776e+00,1.250000000000000355e+01,-1.850000000000000355e+01,-6.250000000000000888e+00,1.900000000000000355e+01,-1.500000000000000000e+00,-1.900000000000000355e+01,1.675000000000000355e+01,4.500000000000000888e+00,-9.000000000000001776e+00,3.750000000000000888e+00,-1.250000000000000355e+01,1.650000000000000355e+01,-1.000000000000000178e+01,9.000000000000001776e+00,-1.900000000000000355e+01,2.050000000000000355e+01,-1.150000000000000178e+01,-1.000000000000000355e+01,2.050000000000000711e+01,-1.150000000000000355e+01,1.500000000000000355e+01,-1.725000000000000355e+01,2.500000000000000888e+00,-3.750000000000000888e+00,2.225000000000000711e+01,-1.375000000000000355e+01,-7.250000000000001776e+00,-1.000000000000000000e+00,1.050000000000000355e+01,2.500000000000000000e-01,-9.500000000000001776e+00,1.300000000000000355e+01,-1.750000000000000888e+00,-1.800000000000000355e+01,1.075000000000000355e+01,6.500000000000001776e+00,-1.125000000000000355e+01,1.275000000000000355e+01,1.500000000000000000e+00,-1.750000000000000355e+01,4.500000000000000888e+00,9.250000000000001776e+00,7.000000000000000888e+00,-1.875000000000000355e+01,2.500000000000000000e-01,1.275000000000000355e+01,-3.500000000000000444e+00,6.500000000000001776e+00,-1.075000000000000178e+01,3.000000000000000444e+00,-1.350000000000000355e+01,1.500000000000000355e+01,1.500000000000000444e+00,6.000000000000000888e+00,-2.450000000000000711e+01,1.600000000000000355e+01,1.750000000000000222e+00,-7.500000000000001776e+00,1.725000000000000355e+01,-2.675000000000000711e+01,2.675000000000000711e+01,-2.300000000000000711e+01,8.750000000000001776e+00,1.750000000000000444e+00,1.050000000000000178e+01,-1.275000000000000178e+01,2.000000000000000444e+00,-7.000000000000001776e+00,1.975000000000000711e+01,-1.600000000000000355e+01,-7.250000000000000888e+00,1.775000000000000355e+01,1.500000000000000000e+00,-1.400000000000000355e+01,-4.250000000000000888e+00,2.475000000000000711e+01,-2.225000000000000711e+01,1.450000000000000355e+01,-1.550000000000000355e+01,1.000000000000000000e+00,2.225000000000000711e+01,-2.675000000000000711e+01,2.175000000000000355e+01,-9.000000000000001776e+00,-1.175000000000000178e+01,2.200000000000000355e+01,-1.275000000000000178e+01,-1.250000000000000000e+00,-9.000000000000001776e+00,1.875000000000000355e+01,1.500000000000000000e+00,-2.225000000000000711e+01,1.600000000000000355e+01,9.500000000000001776e+00,-2.675000000000000711e+01,2.650000000000000711e+01,-2.200000000000000355e+01,9.500000000000001776e+00,1.375000000000000355e+01,-1.800000000000000355e+01,-6.000000000000000888e+00,2.000000000000000355e+01,-5.000000000000000000e-01,-1.875000000000000355e+01,6.250000000000000888e+00,1.900000000000000355e+01,-2.875000000000000711e+01,2.600000000000000711e+01,-2.200000000000000711e+01,8.750000000000001776e+00,6.750000000000000888e+00,-8.000000000000001776e+00,1.725000000000000355e+01,-2.750000000000000711e+01,2.325000000000000711e+01,-9.750000000000001776e+00,-1.100000000000000178e+01,1.675000000000000355e+01,-2.500000000000000888e+00,-1.075000000000000355e+01,1.725000000000000355e+01,-1.575000000000000355e+01,1.275000000000000355e+01,-2.125000000000000711e+01,2.075000000000000711e+01,2.250000000000000000e+00,-1.300000000000000355e+01,5.000000000000000000e-01,-5.000000000000000000e-01,1.325000000000000355e+01,-1.125000000000000178e+01,-7.500000000000000000e-01,-7.750000000000001776e+00,9.750000000000001776e+00,3.750000000000000888e+00,5.000000000000000888e+00,-1.800000000000000355e+01,9.250000000000001776e+00,9.750000000000001776e+00,-1.625000000000000355e+01,1.600000000000000355e+01,-2.325000000000000711e+01,1.450000000000000355e+01,9.750000000000001776e+00,-7.500000000000001776e+00,-1.600000000000000355e+01,1.875000000000000355e+01,-5.500000000000000888e+00,-8.750000000000001776e+00,8.250000000000001776e+00,1.400000000000000355e+01,-3.100000000000000711e+01,2.625000000000000711e+01,-1.100000000000000178e+01,-5.250000000000001776e+00,1.725000000000000355e+01,-1.050000000000000178e+01,2.750000000000000888e+00,-7.750000000000001776e+00,-2.500000000000000000e+00,1.325000000000000355e+01,-1.075000000000000355e+01,6.750000000000001776e+00,8.000000000000001776e+00,-1.900000000000000355e+01,7.000000000000000888e+00,1.325000000000000355e+01,-1.825000000000000355e+01,2.725000000000000711e+01,-2.400000000000000355e+01,1.250000000000000355e+01,-9.750000000000001776e+00,1.750000000000000444e+00,1.300000000000000355e+01,-7.250000000000002665e+00,7.500000000000002665e+00,2.250000000000000000e+00,-8.250000000000001776e+00,-1.525000000000000355e+01,1.500000000000000355e+01,3.500000000000000000e+00,-8.750000000000001776e+00,-2.500000000000000000e-01,-1.075000000000000178e+01,1.850000000000000355e+01,-5.250000000000000888e+00,8.750000000000003553e+00,-2.000000000000000711e+01,1.250000000000000355e+01,4.500000000000000888e+00,-1.000000000000000178e+01,1.275000000000000355e+01,-1.450000000000000355e+01,1.850000000000000355e+01,-1.100000000000000355e+01,5.750000000000000888e+00,-2.125000000000000355e+01,2.250000000000000711e+01,-3.750000000000001776e+00,-1.175000000000000355e+01,5.250000000000001776e+00,1.500000000000000355e+01,-1.375000000000000355e+01,-3.000000000000000888e+00,0.000000000000000000e+00,0.000000000000000000e+00,0.000000000000000000e+00,0.000000000000000000e+00,2.500000000000000555e-01,-2.500000000000000555e-01,-2.500000000000000555e-01,0.000000000000000000e+00,5.000000000000001110e-01,-2.500000000000000555e-01,0.000000000000000000e+00,-2.500000000000000555e-01,5.000000000000001110e-01,-5.000000000000001110e-01,5.000000000000001110e-01,-2.500000000000000555e-01,0.000000000000000000e+00,0.000000000000000000e+00,0.000000000000000000e+00,0.000000000000000000e+00,0.000000000000000000e+00,2.500000000000000555e-01,-5.000000000000001110e-01,0.000000000000000000e+00,5.000000000000001110e-01,0.000000000000000000e+00,-5.000000000000001110e-01,2.500000000000000555e-01,2.500000000000000555e-01,-7.500000000000002220e-01,5.000000000000001110e-01,2.500000000000000555e-01,0.000000000000000000e+00,-7.500000000000002220e-01,7.500000000000002220e-01,0.000000000000000000e+00,-2.500000000000000555e-01,-2.500000000000000555e-01,0.000000000000000000e+00,5.000000000000001110e-01,0.000000000000000000e+00,-5.000000000000001110e-01,2.500000000000000555e-01,0.000000000000000000e+00,0.000000000000000000e+00,0.000000000000000000e+00,2.500000000000000555e-01,-5.000000000000001110e-01,-2.300000000000000355e+01,3.825000000000000711e+01,-2.975000000000000711e+01,1.100000000000000355e+01,1.300000000000000355e+01,-1.675000000000000355e+01,2.500000000000000000e-01,-1.625000000000000000e+01,4.500000000000000000e+00,1.025000000000000178e+01,3.200000000000000711e+01,-4.275000000000000711e+01,2.000000000000000355e+01,1.050000000000000178e+01,-3.450000000000000711e+01,2.550000000000000355e+01,-1.250000000000000222e+00,-5.000000000000002220e-01,-1.450000000000000355e+01,4.000000000000001776e+00,-2.000000000000001776e+00,1.150000000000000355e+01,1.175000000000000178e+01,-1.050000000000000178e+01,-2.050000000000000355e+01,3.150000000000000711e+01,-2.125000000000000355e+01,-1.750000000000000000e+00,9.750000000000001776e+00,-1.425000000000000355e+01,1.325000000000000355e+01,1.075000000000000178e+01,-2.475000000000000711e+01,2.900000000000000711e+01,-2.975000000000000711e+01,1.675000000000000355e+01,-5.750000000000001776e+00,2.000000000000000888e+00,-7.250000000000000888e+00,2.250000000000000355e+01,-1.475000000000000355e+01,5.000000000000000000e-01,4.750000000000000888e+00,-9.000000000000001776e+00,1.250000000000000000e+00,1.600000000000000355e+01,-5.750000000000000888e+00,-9.750000000000003553e+00,-1.050000000000000178e+01,1.100000000000000355e+01,2.225000000000000355e+01,-3.175000000000000711e+01,2.850000000000000711e+01,-2.300000000000000711e+01,8.500000000000001776e+00,1.225000000000000178e+01,-2.500000000000000711e+01,1.125000000000000355e+01,9.500000000000001776e+00,-2.000000000000000711e+01,2.000000000000000711e+01,-1.475000000000000355e+01,1.250000000000000000e+00,1.425000000000000355e+01,2.250000000000000000e+00,-1.825000000000000355e+01,3.750000000000000888e+00,1.300000000000000355e+01,-5.750000000000001776e+00,-1.400000000000000178e+01,2.350000000000000711e+01,-2.225000000000000711e+01,1.300000000000000355e+01,6.000000000000000888e+00,-1.600000000000000355e+01,5.750000000000001776e+00,1.200000000000000178e+01,-2.350000000000000711e+01,2.475000000000000711e+01,-1.600000000000000355e+01,-7.250000000000000888e+00,1.775000000000000355e+01,0.000000000000000000e+00,-5.750000000000001776e+00,-4.500000000000000888e+00,1.775000000000000355e+01,-1.900000000000000355e+01,4.750000000000000888e+00,3.500000000000000888e+00,4.000000000000000888e+00,-4.250000000000000888e+00,-1.250000000000000355e+01,1.025000000000000178e+01,-3.000000000000000888e+00,1.275000000000000178e+01,-1.475000000000000355e+01,-4.000000000000000888e+00,1.800000000000000355e+01,-1.200000000000000178e+01,-4.750000000000001776e+00,1.975000000000000711e+01,-1.850000000000000355e+01,5.250000000000000888e+00,4.500000000000000888e+00,-1.275000000000000355e+01,2.750000000000000000e+00,1.000000000000000888e+00,2.550000000000000355e+01,-2.425000000000000355e+01,4.250000000000000888e+00,-1.150000000000000178e+01,1.825000000000000355e+01,3.000000000000000000e+00,-1.550000000000000355e+01,-4.000000000000000888e+00,2.225000000000000711e+01,-1.875000000000000355e+01,3.500000000000000444e+00,1.000000000000000178e+01,-6.500000000000001776e+00,-6.500000000000000888e+00,1.025000000000000178e+01,2.075000000000000711e+01,-2.125000000000000711e+01,-1.675000000000000355e+01,3.500000000000000711e+01,-2.075000000000000355e+01,-5.000000000000000000e-01,1.550000000000000355e+01,-4.500000000000000000e+00,-1.775000000000000355e+01,3.725000000000000711e+01,-4.075000000000000711e+01,1.475000000000000355e+01,9.750000000000001776e+00,-1.325000000000000355e+01,-5.500000000000001776e+00,1.775000000000000355e+01,6.500000000000000000e+00,-1.325000000000000178e+01,7.750000000000001776e+00,-1.650000000000000355e+01,2.325000000000000355e+01,-2.225000000000000355e+01,-1.575000000000000355e+01,2.600000000000000711e+01,1.250000000000000000e+00,-1.200000000000000178e+01,2.500000000000000555e-01,0.000000000000000000e+00,0.000000000000000000e+00,0.000000000000000000e+00,0.000000000000000000e+00,0.000000000000000000e+00,0.000000000000000000e+00,0.000000000000000000e+00,0.000000000000000000e+00,0.000000000000000000e+00,-2.500000000000000555e-01,5.000000000000001110e-01,-2.500000000000000555e-01,-2.500000000000000555e-01,-2.650000000000000711e+01,5.350000000000001421e+01,-4.075000000000001421e+01,1.025000000000000355e+01,2.125000000000000355e+01,-1.850000000000000355e+01,-4.450000000000000711e+01,6.650000000000001421e+01,-1.825000000000000355e+01,-2.500000000000000000e-01,-3.750000000000000888e+00,-4.825000000000001421e+01,9.225000000000002842e+01,-2.150000000000000355e+01,-6.250000000000001421e+01,3.675000000000000711e+01,1.450000000000000355e+01,-4.825000000000000711e+01,4.775000000000000711e+01,-2.325000000000000711e+01,1.325000000000000355e+01,-1.150000000000000355e+01,9.250000000000003553e+00,5.000000000000000000e-01,1.250000000000000178e+01,-3.600000000000000711e+01,6.000000000000001421e+01,-2.900000000000000711e+01,-2.050000000000000355e+01,1.375000000000000355e+01,2.500000000000000888e+00,1.225000000000000355e+01,-1.950000000000000711e+01,-1.025000000000000178e+01,2.650000000000000711e+01,-1.100000000000000178e+01,4.500000000000000888e+00,-1.550000000000000355e+01,1.175000000000000355e+01,2.075000000000000355e+01,-1.925000000000000355e+01,-1.875000000000000355e+01,2.000000000000000355e+01,7.500000000000001776e+00,-1.700000000000000355e+01,5.000000000000000000e-01,1.400000000000000355e+01,-3.500000000000000888e+00,-1.650000000000000355e+01,1.425000000000000355e+01,-8.250000000000001776e+00,1.000000000000000355e+01,-1.250000000000000444e+00,9.500000000000001776e+00,-3.000000000000000000e+00,-1.550000000000000355e+01,2.150000000000000711e+01,-2.575000000000000711e+01,2.500000000000000711e+01,-2.350000000000000711e+01,3.000000000000000711e+01,-2.900000000000000711e+01,8.500000000000001776e+00,1.250000000000000355e+01,-1.850000000000000711e+01,8.500000000000001776e+00,0.000000000000000000e+00,4.250000000000001776e+00,-2.500000000000000000e-01,-9.250000000000001776e+00,-5.250000000000001776e+00,-8.000000000000001776e+00,1.475000000000000355e+01,-4.025000000000000711e+01,4.225000000000000711e+01,-3.250000000000000888e+00,-3.225000000000000711e+01,-5.250000000000000000e+00,4.250000000000000711e+01,-7.500000000000001776e+00,-2.275000000000000711e+01,3.050000000000000711e+01,-1.150000000000000178e+01,-9.250000000000001776e+00,1.075000000000000178e+01,7.250000000000001776e+00,-5.000000000000001110e-01,2.500000000000000555e-01,2.500000000000000555e-01,-2.500000000000000555e-01,2.500000000000000555e-01,0.000000000000000000e+00,0.000000000000000000e+00,-2.500000000000000555e-01,0.000000000000000000e+00,7.500000000000002220e-01,-5.000000000000001110e-01,-2.500000000000000555e-01,5.000000000000001110e-01,-5.000000000000001110e-01,5.000000000000001110e-01,-7.500000000000002220e-01,1.000000000000000222e+00,-7.500000000000002220e-01,2.500000000000000555e-01,0.000000000000000000e+00,-5.000000000000001110e-01,1.000000000000000222e+00,-5.000000000000001110e-01,0.000000000000000000e+00,0.000000000000000000e+00,0.000000000000000000e+00,0.000000000000000000e+00,-2.500000000000000555e-01,5.000000000000001110e-01,0.000000000000000000e+00,-5.000000000000001110e-01,2.500000000000000555e-01,5.000000000000001110e-01,-2.500000000000000555e-01,7.500000000000002220e-01,8.250000000000001776e+00,-1.000000000000000178e+01,6.000000000000000888e+00,3.125000000000000711e+01,-4.125000000000000711e+01,4.250000000000000888e+00,9.750000000000001776e+00,-1.775000000000000355e+01,1.700000000000000355e+01,-1.800000000000000355e+01,9.250000000000001776e+00,4.000000000000000888e+00,-1.725000000000000355e+01,1.725000000000000355e+01,9.500000000000003553e+00,-8.750000000000003553e+00,-5.000000000000000000e-01,6.250000000000000888e+00,-2.275000000000000711e+01,3.450000000000000711e+01,-3.150000000000000711e+01,8.750000000000001776e+00,1.250000000000000178e+01,-1.400000000000000178e+01,5.750000000000001776e+00,-3.750000000000000888e+00,1.125000000000000178e+01,-7.000000000000000888e+00,-1.525000000000000355e+01,1.350000000000000178e+01,6.750000000000001776e+00,-2.625000000000000711e+01,4.625000000000001421e+01,-2.700000000000000711e+01,1.750000000000000444e+00,-1.400000000000000355e+01,1.000000000000000178e+01,2.500000000000000555e-01,-3.000000000000000888e+00,1.500000000000000355e+01,-5.500000000000001776e+00,-1.500000000000000355e+01,4.500000000000000888e+00,2.300000000000000355e+01,-2.875000000000000711e+01,1.000000000000000000e+00,1.450000000000000355e+01,2.250000000000000888e+00,-2.150000000000000711e+01,1.450000000000000355e+01,1.075000000000000178e+01,-1.425000000000000178e+01,1.750000000000000222e+00,-1.975000000000000355e+01,3.250000000000000711e+01,-1.250000000000001776e+00,-3.850000000000000711e+01,3.500000000000000711e+01,2.500000000000000000e-01,-1.275000000000000355e+01,8.250000000000001776e+00,-2.225000000000000355e+01,2.275000000000000355e+01,2.025000000000000355e+01,-3.575000000000000711e+01,7.000000000000002665e+00,1.125000000000000355e+01,-1.525000000000000355e+01,1.750000000000000355e+01,-8.500000000000001776e+00,-9.750000000000001776e+00,1.975000000000000355e+01,-1.375000000000000355e+01,-4.500000000000000888e+00,2.925000000000000711e+01,-2.675000000000000355e+01,2.000000000000000000e+00,-3.750000000000000888e+00,9.000000000000001776e+00,1.025000000000000178e+01,-7.750000000000000888e+00,-1.300000000000000355e+01,3.050000000000000711e+01,-3.200000000000000711e+01,-4.250000000000001776e+00,1.200000000000000355e+01,2.050000000000000355e+01,-3.850000000000000711e+01,2.100000000000000355e+01,1.375000000000000355e+01,-1.850000000000000355e+01,7.500000000000000000e-01,1.525000000000000355e+01,-1.800000000000000355e+01,-8.500000000000001776e+00,4.700000000000001421e+01,-5.400000000000001421e+01,3.100000000000000711e+01,-1.600000000000000355e+01,1.850000000000000355e+01,-3.250000000000000711e+01,2.100000000000000355e+01,1.750000000000000355e+01,-1.725000000000000355e+01,-5.250000000000000888e+00,1.075000000000000178e+01,-8.750000000000001776e+00,-1.000000000000000355e+01,2.100000000000000711e+01,-1.825000000000000355e+01,2.825000000000000711e+01,-3.075000000000000711e+01,1.325000000000000355e+01,6.000000000000001776e+00,-3.750000000000001332e+00,-1.500000000000000355e+01,2.450000000000000711e+01,-2.075000000000000711e+01,2.225000000000000711e+01,-8.500000000000003553e+00,-2.000000000000000355e+01,1.500000000000000355e+01,-5.000000000000001110e-01,1.275000000000000355e+01,-1.975000000000000711e+01,-7.500000000000001776e+00,2.600000000000000711e+01,-1.500000000000000355e+01,1.575000000000000355e+01,-2.400000000000000711e+01,2.175000000000000711e+01,-1.025000000000000178e+01,5.250000000000000888e+00,-4.750000000000000888e+00,-1.200000000000000355e+01,3.750000000000001421e+01,-3.600000000000000711e+01,9.500000000000001776e+00,4.250000000000000888e+00,-1.550000000000000355e+01,1.525000000000000355e+01,1.650000000000000355e+01,-2.700000000000000711e+01,-6.750000000000001776e+00,1.325000000000000355e+01,1.450000000000000355e+01,-8.250000000000003553e+00,-1.300000000000000355e+01,1.350000000000000355e+01,-1.000000000000000000e+00,-1.000000000000000178e+01,9.750000000000001776e+00,-3.000000000000000444e+00,-4.500000000000001776e+00,9.500000000000003553e+00,-1.000000000000000355e+01,-1.400000000000000355e+01,5.275000000000001421e+01,-6.225000000000001421e+01,3.850000000000000711e+01
