1.450266250000000525e+02,8.713600000000002410e+01,3.599537499999999568e+01,-6.489000000000036295e+00,-4.012962500000005406e+01,-6.442650000000007537e+01,-8.011400000000007537e+01,-8.759837500000007537e+01,-8.623900000000007537e+01,-8.481712500000007537e+01,-8.269212500000007537e+01,-7.959837500000007537e+01,-7.694212500000007537e+01,-7.456712500000007537e+01,-7.228587500000007537e+01,-6.994212500000007537e+01,-6.670775000000007537e+01,-6.336400000000007537e+01,-5.944212500000007537e+01,-5.667650000000007537e+01,-5.478587500000007537e+01,-5.308275000000007537e+01,-5.152025000000007537e+01,-5.080150000000007537e+01,-5.150462500000007537e+01,-5.125462500000007537e+01,-5.087962500000007537e+01,-5.048900000000007537e+01,-4.866087500000006827e+01,-4.770775000000006827e+01,-4.736400000000006116e+01,-4.684837500000006116e+01,-4.625462500000006116e+01,-4.656712500000006116e+01,-4.789525000000006827e+01,-4.937962500000007537e+01,-5.122337500000007537e+01,-5.222337500000007537e+01,-5.237962500000007537e+01,-5.195775000000007537e+01,-5.019212500000007537e+01,-4.855150000000007537e+01,-4.583275000000006827e+01,-4.177025000000006116e+01,-3.836400000000005406e+01,-3.377025000000005406e+01,-2.953587500000005406e+01,-2.591087500000005406e+01,-2.498900000000005406e+01,-2.458275000000005406e+01,-2.616087500000005406e+01,-3.027025000000005406e+01,-3.609837500000006116e+01,-4.636400000000006116e+01,-5.955150000000007537e+01,-7.412962500000007537e+01,-8.872337500000008959e+01,-1.054421250000001180e+02,-1.232858750000001180e+02,-1.416921250000001180e+02,-1.602702500000001180e+02,-1.767233750000001464e+02,-1.917390000000002033e+02,-2.079421250000002033e+02,-2.254733750000002033e+02,-2.420671250000002033e+02,-2.578640000000002033e+02,-2.729890000000002033e+02,-2.858796250000002033e+02,-3.017546250000002033e+02,-3.178952500000002033e+02,-3.316140000000002033e+02,-3.430983750000002033e+02,-3.548640000000002033e+02,-3.657546250000002601e+02,-3.774421250000003170e+02,-3.913796250000003738e+02,-3.993327500000003738e+02,-4.057233750000003738e+02,-4.106140000000003738e+02,-4.146452500000003738e+02,-4.167546250000003738e+02,-4.179421250000003738e+02,-4.166921250000003738e+02,-4.128327500000003738e+02,-4.120358750000003738e+02,-4.118952500000003738e+02,-4.138171250000003738e+02,-4.169421250000003738e+02,-4.193483750000003738e+02,-4.215515000000003738e+02,-4.240046250000003738e+02,-4.255515000000003738e+02,-4.240515000000003738e+02,-4.214890000000003738e+02,-4.167390000000003738e+02,-4.096765000000003738e+02,-4.017233750000003738e+02,-3.931921250000003738e+02,-3.833796250000003738e+02,-3.745202500000002601e+02,-3.683483750000002033e+02,-3.598171250000002033e+02,-3.502858750000002033e+02,-3.410671250000002033e+02,-3.328015000000002033e+02,-3.251608750000002033e+02,-3.166921250000002033e+02,-3.069890000000002033e+02,-2.948171250000002033e+02,-2.841608750000002033e+02,-2.741765000000002033e+02,-2.621765000000002033e+02,-2.476608750000002033e+02,-2.313952500000002033e+02,-2.168952500000002033e+02,-2.023483750000002033e+02,-1.875046250000001749e+02,-1.719108750000001464e+02,-1.571608750000001180e+02,-1.453015000000001180e+02,-1.348483750000001180e+02,-1.247077500000001180e+02,-1.121452500000001180e+02,-9.902025000000010380e+01,-8.598900000000008959e+01,-7.364525000000007537e+01,-6.053587500000007537e+01,-4.461400000000006116e+01,-2.937962500000004695e+01,-1.491087500000003985e+01,-2.895250000000033186e+00,7.198499999999973475e+00,1.555787499999997969e+01,2.412037499999998502e+01,3.265162499999998857e+01,3.826099999999998857e+01,4.272974999999999568e+01,4.779225000000000279e+01,5.446412500000000989e+01,6.166725000000000989e+01,7.021412500000000989e+01,7.802662500000000989e+01,8.674537500000002410e+01,9.733912500000005252e+01,1.094797500000000525e+02,1.212453750000000525e+02,1.313078750000000525e+02,1.404328750000000525e+02,1.479172500000000525e+02,1.558391250000000525e+02,1.613703750000000525e+02,1.651360000000000525e+02,1.683391250000000525e+02,1.705735000000000525e+02,1.730266250000000525e+02,1.776828750000000525e+02,1.826828750000000525e+02,1.863391250000000809e+02,1.906672500000001094e+02,1.954797500000001378e+02,1.999485000000001378e+02,2.037610000000001378e+02,2.061828750000001378e+02,2.046985000000001378e+02,2.018078750000001378e+02,1.985266250000001378e+02,1.942141250000001378e+02,1.881672500000001094e+02,1.808391250000000809e+02,1.744328750000000525e+02,1.695891250000000525e+02,1.661360000000000525e+02,1.637922500000000525e+02,1.631672500000000525e+02,1.635578750000000525e+02,1.645110000000000525e+02,1.662141250000000525e+02,1.667610000000000525e+02,1.658547500000000525e+02,1.662766250000000525e+02,1.673391250000000525e+02,1.659172500000000525e+02,1.622453750000000525e+02,1.595891250000000525e+02,1.568391250000000525e+02,1.538547500000000525e+02,1.516047500000000525e+02,1.474953750000000525e+02,1.423547500000000525e+02,1.393860000000000525e+02,1.387922500000000525e+02,1.376360000000000525e+02,1.367922500000000525e+02,1.369953750000000525e+02,1.370735000000000525e+02,1.379797500000000525e+02,1.395266250000000525e+02,1.400578750000000525e+02,1.397922500000000525e+02,1.399328750000000525e+02,1.390578750000000525e+02,1.390578750000000525e+02,1.403235000000000525e+02,1.417922500000000525e+02,1.420266250000000525e+02,1.424485000000000525e+02,1.422766250000000525e+02,1.416672500000000525e+02,1.422766250000000525e+02,1.405578750000000525e+02,1.370735000000000525e+02,1.343391250000000525e+02,1.330422500000000525e+02,1.310578750000000525e+02,1.300735000000000525e+02,1.288703750000000525e+02,1.279172500000000525e+02,1.277766250000000525e+02,1.281047500000000525e+02,1.276828750000000525e+02,1.274328750000000525e+02,1.290422500000000525e+02,1.309797500000000525e+02,1.329016250000000525e+02,1.339172500000000525e+02,1.362453750000000525e+02,1.385735000000000525e+02,1.412610000000000525e+02,1.431516250000000525e+02,1.430891250000000525e+02,1.433235000000000525e+02,1.445422500000000525e+02,1.466360000000000525e+02,1.479797500000000525e+02,1.503078750000000525e+02,1.527297500000000525e+02,1.549328750000000525e+02,1.573703750000000525e+02,1.582922500000000525e+02,1.593235000000000525e+02,1.601672500000000525e+02,1.614485000000000525e+02,1.626828750000000525e+02,1.636516250000000525e+02,1.657766250000000525e+02,1.698703750000000525e+02,1.749485000000000525e+02,1.792610000000000525e+02,1.823703750000000525e+02,1.852766250000000525e+02,1.876203750000000809e+02,1.891828750000000809e+02,1.896985000000000809e+02,1.887297500000000809e+02,1.881203750000000525e+02,1.877141250000000525e+02,1.887297500000000525e+02,1.889485000000000525e+02,1.886985000000000525e+02,1.891985000000000525e+02,1.894485000000000525e+02,1.890891250000000525e+02,1.870735000000000525e+02,1.851203750000000525e+02,1.818078750000000525e+02,1.794953750000000525e+02,1.765891250000000525e+02,1.722453750000000525e+02,1.689797500000000525e+02,1.671516250000000525e+02,1.668235000000000525e+02,1.654641250000000525e+02,1.650578750000000525e+02,1.641985000000000525e+02,1.645578750000000525e+02,1.662297500000000525e+02,1.677453750000000525e+02,1.688547500000000525e+02,1.684328750000000525e+02,1.692453750000000525e+02,1.698860000000000525e+02,1.699485000000000525e+02,1.689016250000000525e+02,1.673860000000000525e+02,1.648078750000000525e+02,1.605422500000000525e+02,1.576047500000000525e+02,1.545891250000000525e+02,1.492922500000000525e+02,1.440422500000000525e+02,1.401985000000000525e+02,1.354953750000000525e+02,1.306203750000000525e+02,1.265266250000000525e+02,1.214485000000000525e+02,1.136203750000000525e+02,1.081985000000000525e+02,1.028703750000000525e+02,9.657350000000005252e+01,9.143287500000002410e+01,8.687037500000000989e+01,8.118287500000000989e+01,7.574537500000000989e+01,7.216725000000000989e+01,6.910475000000000989e+01,6.540162500000000989e+01,6.204225000000000989e+01,5.776100000000000989e+01,5.144850000000000989e+01,4.730787500000000989e+01,4.194849999999999568e+01,3.732349999999998857e+01,3.043287499999998857e+01,2.332349999999998147e+01,1.401099999999997792e+01,4.354749999999970811e+00,-2.801500000000034518e+00,-1.130150000000003985e+01,-1.880150000000004340e+01,-2.689525000000004695e+01,-3.383275000000005406e+01,-3.948900000000005406e+01,-4.377025000000006116e+01,-4.580150000000006827e+01,-4.881712500000007537e+01,-5.077025000000007537e+01,-5.106712500000007537e+01,-5.109837500000007537e+01,-5.131712500000007537e+01,-5.125462500000007537e+01,-4.941087500000007537e+01,-4.908275000000006827e+01,-4.742650000000006116e+01,-4.641087500000005406e+01,-4.736400000000006116e+01,-4.981712500000006827e+01,-5.244212500000007537e+01,-5.633275000000007537e+01,-6.172337500000007537e+01,-6.714525000000007537e+01,-7.495775000000007537e+01,-8.316087500000008959e+01,-9.047337500000008959e+01,-9.612962500000011801e+01,-1.014421250000001180e+02,-1.067390000000001180e+02,-1.120202500000001180e+02,-1.172390000000001180e+02,-1.218015000000001180e+02,-1.263640000000001180e+02,-1.334265000000001180e+02,-1.426140000000001180e+02,-1.517702500000001180e+02,-1.620046250000001180e+02,-1.733171250000001464e+02,-1.848015000000001464e+02,-1.958640000000002033e+02,-2.065827500000002033e+02,-2.153171250000002033e+02,-2.212233750000002033e+02,-2.266765000000002033e+02,-2.298483750000002033e+02,-2.311765000000002033e+02,-2.320358750000002033e+02,-2.303015000000002033e+02,-2.263327500000002033e+02,-2.197077500000002033e+02,-2.120202500000002033e+02,-2.037077500000002033e+02,-1.937233750000002033e+02,-1.836452500000001464e+02,-1.715202500000001180e+02,-1.607077500000001180e+02,-1.529890000000001180e+02,-1.475983750000001180e+02,-1.459421250000001180e+02,-1.473640000000001180e+02,-1.525983750000001180e+02,-1.605202500000001180e+02,-1.738327500000001464e+02,-1.895671250000002033e+02,-2.055358750000002033e+02,-2.225671250000002033e+02,-2.369421250000002033e+02,-2.480202500000002033e+02,-2.571296250000002033e+02,-2.616765000000002033e+02,-2.612546250000002033e+02,-2.592077500000002033e+02,-2.540046250000002033e+02,-2.477077500000002033e+02,-2.429421250000002033e+02,-2.383171250000002033e+02,-2.356921250000002033e+02,-2.406452500000002033e+02,-2.509265000000002033e+02,-2.635202500000002033e+02,-2.813640000000002033e+02,-3.022390000000002033e+02,-3.266921250000002033e+02,-3.556608750000002601e+02,-3.860515000000003738e+02,-4.119108750000003738e+02,-4.347858750000003738e+02,-4.572702500000003738e+02,-4.780202500000003738e+02,-4.970046250000003738e+02,-5.122546250000003738e+02,-5.255358750000003738e+02,-5.355046250000003738e+02,-5.445983750000003738e+02,-5.527077500000003738e+02,-5.586296250000003738e+02,-5.625827500000003738e+02,-5.650515000000003738e+02,-5.668327500000003738e+02,-5.668171250000003738e+02,-5.667858750000003738e+02,-5.667702500000003738e+02,-5.667546250000003738e+02,-5.667546250000003738e+02,-5.667546250000003738e+02,-5.667546250000003738e+02,-5.667546250000003738e+02,-5.667233750000003738e+02,-5.667077500000003738e+02,-5.666921250000003738e+02,-5.666608750000003738e+02,-5.666296250000003738e+02,-5.665671250000003738e+02,-5.665202500000003738e+02,-5.664733750000003738e+02,-5.664421250000003738e+02,-5.664421250000003738e+02,-5.664421250000003738e+02,-5.664890000000003738e+02,-5.665358750000003738e+02,-5.666296250000003738e+02,-5.666921250000003738e+02,-5.667546250000003738e+02,-5.668171250000003738e+02,-5.668327500000003738e+02,-5.668327500000003738e+02,-5.667858750000003738e+02,-5.667390000000003738e+02,-5.666921250000003738e+02,-5.666608750000003738e+02,-5.666452500000003738e+02,-5.666296250000003738e+02,-5.666296250000003738e+02,-5.666608750000003738e+02,-5.666765000000003738e+02,-5.666765000000003738e+02,-5.666452500000003738e+02,-5.665983750000003738e+02,-5.665358750000003738e+02,-5.664733750000003738e+02,-5.664108750000003738e+02,-5.663327500000003738e+02,-5.663171250000003738e+02,-5.663327500000003738e+02,-5.663796250000003738e+02,-5.664577500000003738e+02,-5.665202500000003738e+02,-5.665827500000003738e+02,-5.666452500000003738e+02,-5.667077500000003738e+02,-5.667233750000003738e+02,-5.667390000000003738e+02,-5.667233750000003738e+02,-5.664265000000003738e+02,-5.647546250000003738e+02,-5.619421250000003738e+02,-5.569421250000003738e+02,-5.500358750000003738e+02,-5.403796250000003738e+02,-5.279108750000003738e+02,-5.109108750000003738e+02,-4.904265000000003738e+02,-4.691608750000003738e+02,-4.451452500000003738e+02,-4.195983750000003738e+02,-3.923952500000003738e+02,-3.658796250000002601e+02,-3.386608750000002033e+02,-3.152390000000002033e+02,-2.934577500000002033e+02,-2.717546250000002033e+02,-2.512702500000002033e+02,-2.319108750000002033e+02,-2.133171250000002033e+02,-1.932702500000002033e+02,-1.740515000000001464e+02,-1.528015000000001180e+02,-1.301452500000001180e+02,-1.060046250000000896e+02,-8.336400000000008959e+01,-6.139525000000007537e+01,-4.027025000000006116e+01,-2.023900000000004695e+01,-1.348375000000031854e+00,1.693287499999998147e+01,3.179224999999998857e+01,4.444849999999999568e+01,5.810475000000000989e+01,6.990162500000000989e+01,7.977662500000002410e+01,8.797975000000002410e+01,9.580787500000005252e+01,1.032297500000000525e+02,1.140891250000000525e+02,1.259641250000000525e+02,1.389016250000000525e+02,1.568703750000000525e+02,1.801672500000000809e+02,2.067766250000001378e+02,2.362610000000001378e+02,2.676360000000001378e+02,2.978860000000001378e+02,3.284328750000001378e+02,3.571360000000001946e+02,3.808391250000003083e+02,3.992453750000003083e+02,4.135266250000003083e+02,4.236985000000003083e+02,4.301360000000003083e+02,4.340266250000003083e+02,4.350891250000003083e+02,4.347141250000003083e+02,4.342141250000003083e+02,4.336203750000003083e+02,4.330891250000003083e+02,4.326828750000003083e+02,4.323860000000003083e+02,4.323391250000003083e+02,4.325422500000003083e+02,4.328078750000003083e+02,4.331047500000003083e+02,4.334485000000003083e+02,4.337922500000003083e+02,4.340891250000003083e+02,4.343703750000003083e+02,4.345578750000003083e+02,4.346047500000003083e+02,4.346203750000003083e+02,4.346047500000003083e+02,4.345422500000003083e+02,4.344016250000003083e+02,4.341985000000003083e+02,4.338078750000003083e+02,4.332766250000003083e+02,4.320422500000003083e+02,4.299485000000003083e+02,4.274953750000003083e+02,4.236672500000003083e+02,4.195735000000003083e+02,4.150578750000003083e+02,4.104172500000003083e+02,4.055266250000003083e+02,4.006047500000003083e+02,3.963235000000003083e+02,3.924953750000003083e+02,3.902766250000003083e+02,3.885422500000003083e+02,3.873860000000003083e+02,3.857610000000003083e+02,3.845422500000003083e+02,3.851203750000003083e+02,3.864328750000003083e+02,3.873860000000003083e+02,3.890578750000003083e+02,3.897141250000003083e+02,3.891360000000003083e+02,3.889328750000003083e+02,3.868235000000003083e+02,3.825110000000003083e+02,3.759641250000001946e+02,3.686360000000001378e+02,3.582610000000001378e+02,3.481047500000001378e+02,3.388078750000001378e+02,3.299172500000001378e+02,3.222453750000001378e+02,3.152297500000001378e+02,3.092922500000001378e+02,3.026985000000001378e+02,2.975891250000001378e+02,2.910110000000001378e+02,2.835578750000001378e+02,2.738547500000001378e+02,2.641360000000001378e+02,2.541672500000001378e+02,2.443860000000001378e+02,2.366203750000001378e+02,2.286360000000001378e+02,2.232766250000001378e+02,2.185422500000001378e+02,2.159641250000001378e+02,2.141985000000001378e+02,2.129641250000001378e+02,2.126516250000001378e+02,2.119172500000001378e+02,2.120110000000001378e+02,2.116516250000001378e+02,2.117141250000001378e+02,2.124641250000001378e+02,2.141203750000001378e+02,2.163235000000001378e+02,2.170110000000001378e+02,2.175735000000001378e+02,2.186828750000001378e+02,2.189172500000001378e+02,2.194328750000001378e+02,2.180110000000001378e+02,2.130891250000001378e+02,2.065110000000001378e+02,2.007610000000001378e+02,1.938547500000001378e+02,1.836203750000000809e+02,1.729485000000000809e+02,1.604016250000000525e+02,1.474797500000000525e+02,1.366516250000000525e+02,1.249953750000000525e+02,1.126828750000000525e+02,1.014641250000000525e+02,9.313600000000003831e+01,8.533912500000002410e+01,7.793287500000000989e+01,7.307350000000000989e+01,6.744850000000000989e+01,6.466725000000000989e+01,6.276100000000000989e+01,6.062037500000000989e+01,5.902662500000000989e+01,5.818287500000000989e+01,5.908912500000000989e+01,5.838600000000000989e+01,5.997975000000000989e+01,6.040162500000000989e+01,6.015162500000000989e+01,6.143287500000000989e+01,6.215162500000000989e+01,6.363600000000000989e+01,6.426100000000000989e+01,6.585475000000000989e+01,6.591725000000000989e+01,6.616725000000000989e+01,6.691725000000000989e+01,6.447975000000000989e+01,5.987037500000000989e+01,5.299537500000000989e+01,4.654224999999999568e+01,3.916724999999998857e+01,3.063599999999998857e+01,2.179224999999998147e+01,1.224537499999997436e+01,5.651624999999970811e+00,1.604749999999967924e+00,-6.452500000000332969e-01,-2.864000000000034518e+00,-4.770250000000035406e+00,-4.223375000000035406e+00,-2.114000000000034518e+00,5.578749999999677023e-01,2.042249999999968590e+00,3.776624999999969923e+00,4.729749999999970811e+00,5.495374999999970811e+00,6.292249999999971699e+00,5.135999999999970811e+00,1.635999999999968590e+00,-1.098375000000033408e+00,-3.739000000000035406e+00,-7.582750000000038071e+00,-1.222337500000003985e+01,-1.719212500000004695e+01,-2.225462500000005051e+01,-2.653587500000005406e+01,-3.002025000000005406e+01,-3.542650000000005406e+01,-4.056712500000006116e+01,-4.662962500000006827e+01,-5.128587500000007537e+01,-5.562962500000007537e+01,-5.919212500000007537e+01,-6.227025000000007537e+01,-6.447337500000007537e+01,-6.412962500000007537e+01,-6.377025000000007537e+01,-6.061400000000007537e+01,-5.766087500000007537e+01,-5.445775000000007537e+01,-5.108275000000007537e+01,-4.820775000000006827e+01,-4.448900000000006116e+01,-4.214525000000005406e+01,-4.019212500000005406e+01,-4.019212500000005406e+01,-4.005150000000005406e+01,-3.964525000000005406e+01,-3.989525000000005406e+01,-4.041087500000005406e+01,-4.242650000000005406e+01,-4.447337500000005406e+01,-4.564525000000006116e+01,-4.552025000000006116e+01,-4.556712500000006116e+01,-4.658275000000006116e+01,-4.714525000000006116e+01,-4.698900000000006116e+01,-4.667650000000006116e+01,-4.622337500000006116e+01,-4.589525000000006116e+01,-4.698900000000006116e+01,-4.837962500000007537e+01,-4.884837500000007537e+01,-5.064525000000007537e+01,-5.284837500000007537e+01,-5.461400000000007537e+01,-5.602025000000007537e+01,-5.905150000000007537e+01,-6.155150000000007537e+01,-6.312962500000007537e+01,-6.523900000000007537e+01,-6.580150000000007537e+01,-6.578587500000007537e+01,-6.636400000000007537e+01,-6.752025000000007537e+01,-6.702025000000007537e+01,-6.597337500000007537e+01,-6.548900000000007537e+01,-6.500462500000007537e+01,-6.484837500000007537e+01,-6.606712500000007537e+01,-6.767650000000007537e+01,-6.792650000000007537e+01,-6.803587500000007537e+01,-6.969212500000007537e+01,-7.169212500000007537e+01,-7.445775000000007537e+01,-7.753587500000007537e+01,-7.870775000000007537e+01,-7.931712500000007537e+01,-8.209837500000007537e+01,-8.580150000000007537e+01,-8.716087500000007537e+01,-8.827025000000007537e+01,-8.723900000000007537e+01,-8.678587500000007537e+01,-8.823900000000007537e+01,-8.839525000000007537e+01,-8.694212500000007537e+01,-8.527025000000007537e+01,-8.462962500000007537e+01,-8.366087500000007537e+01,-8.489525000000007537e+01,-8.512962500000007537e+01,-8.302025000000007537e+01,-8.250462500000007537e+01,-8.214525000000007537e+01,-8.041087500000007537e+01,-7.881712500000007537e+01,-7.767650000000007537e+01,-7.500462500000007537e+01,-7.184837500000007537e+01,-7.022337500000007537e+01,-6.761400000000007537e+01,-6.545775000000007537e+01,-6.525462500000007537e+01,-6.536400000000007537e+01,-6.436400000000007537e+01,-6.405150000000007537e+01,-6.559837500000007537e+01,-6.673900000000007537e+01,-6.930150000000007537e+01,-7.080150000000007537e+01,-7.127025000000007537e+01,-7.236400000000007537e+01,-7.492650000000007537e+01,-7.645775000000007537e+01,-7.702025000000007537e+01,-7.833275000000007537e+01,-7.861400000000007537e+01,-7.986400000000007537e+01,-8.081712500000007537e+01,-8.028587500000007537e+01,-7.845775000000007537e+01,-7.761400000000007537e+01,-7.644212500000007537e+01,-7.408275000000007537e+01,-7.122337500000007537e+01,-6.736400000000007537e+01,-6.433275000000007537e+01,-6.089525000000007537e+01,-5.837962500000007537e+01,-5.436400000000007537e+01,-4.934837500000007537e+01,-4.380150000000006116e+01,-3.762962500000005406e+01,-3.231712500000005406e+01,-2.458275000000005051e+01,-1.622337500000004340e+01,-6.504625000000037183e+00,2.432874999999969035e+00,1.212037499999997614e+01,2.107349999999998147e+01,2.966724999999998502e+01,3.916724999999999568e+01,4.680787500000000279e+01,5.394850000000000989e+01,6.060475000000000989e+01,6.807350000000000989e+01,7.332350000000000989e+01,7.832350000000000989e+01,8.402662500000000989e+01,9.040162500000002410e+01,9.766725000000003831e+01,1.031672500000000525e+02,1.092766250000000525e+02,1.133235000000000525e+02,1.182297500000000525e+02,1.239953750000000525e+02,1.280578750000000525e+02,1.303235000000000525e+02,1.316828750000000525e+02,1.339016250000000525e+02,1.351360000000000525e+02,1.381360000000000525e+02,1.412141250000000525e+02,1.426360000000000525e+02,1.439328750000000525e+02,1.459328750000000525e+02,1.475735000000000525e+02,1.501828750000000525e+02,1.519485000000000525e+02,1.527297500000000525e+02,1.521985000000000525e+02,1.520110000000000525e+02,1.523703750000000525e+02,1.521047500000000525e+02,1.517453750000000525e+02,1.491516250000000525e+02,1.465891250000000525e+02,1.436203750000000525e+02,1.408078750000000525e+02,1.379641250000000525e+02,1.342141250000000525e+02,1.305110000000000525e+02,1.261516250000000525e+02,1.230110000000000525e+02,1.214172500000000525e+02,1.199797500000000525e+02,1.195110000000000525e+02,1.205422500000000525e+02,1.224641250000000525e+02,1.239172500000000525e+02,1.264328750000000525e+02,1.284797500000000525e+02,1.292297500000000525e+02,1.298078750000000525e+02,1.290578750000000525e+02,1.256828750000000525e+02,1.219953750000000525e+02,1.182610000000000525e+02,1.138235000000000525e+02,1.100110000000000525e+02,1.049016250000000525e+02,9.985475000000005252e+01,9.582350000000005252e+01,9.313600000000002410e+01,9.019850000000002410e+01,8.672975000000000989e+01,8.318287500000000989e+01,7.810475000000000989e+01,7.363600000000000989e+01,6.790162500000000989e+01,6.088600000000000989e+01,5.219850000000000279e+01,4.171412499999999568e+01,3.180787499999998857e+01,2.093287499999998147e+01,1.027662499999997436e+01,-3.171250000000331859e-01,-1.075462500000003985e+01,-2.061400000000004695e+01,-2.872337500000005406e+01,-3.547337500000005406e+01,-4.194212500000006116e+01,-4.700462500000007537e+01,-5.214525000000007537e+01,-5.619212500000007537e+01,-5.912962500000007537e+01,-6.228587500000007537e+01,-6.445775000000007537e+01,-6.439525000000007537e+01,-6.278587500000007537e+01,-5.830150000000007537e+01,-5.070775000000006827e+01,-4.259837500000006116e+01,-3.228587500000005406e+01,-1.891087500000004695e+01,-5.910875000000036295e+00,5.917249999999970811e+00,1.680787499999997792e+01,2.371412499999998147e+01,2.818287499999998857e+01,3.115162499999998857e+01,3.119849999999998857e+01,2.644849999999998502e+01,1.932349999999998147e+01,1.044849999999997436e+01,-1.160875000000034074e+00,-1.231712500000003985e+01,-2.309837500000004695e+01,-3.300462500000005406e+01,-4.250462500000006116e+01,-4.889525000000006827e+01,-5.387962500000007537e+01,-5.689525000000007537e+01,-5.666087500000007537e+01,-5.642650000000007537e+01,-5.739525000000007537e+01,-5.903587500000007537e+01,-6.005150000000007537e+01,-6.117650000000007537e+01,-6.272337500000007537e+01,-6.602025000000007537e+01,-7.019212500000007537e+01,-7.287962500000007537e+01,-7.336400000000007537e+01,-7.194212500000007537e+01,-7.036400000000007537e+01,-6.995775000000007537e+01,-6.603587500000007537e+01,-5.889525000000007537e+01,-5.027025000000006827e+01,-4.020775000000006116e+01,-2.862962500000004695e+01,-1.695775000000004340e+01,-2.926500000000035406e+00,1.657349999999997792e+01,3.415162499999998857e+01,5.383912500000000279e+01,7.507350000000002410e+01,9.866725000000002410e+01,1.244485000000000525e+02,1.544328750000000809e+02,1.871203750000001094e+02,2.177141250000001378e+02,2.524797500000001378e+02,2.854953750000001378e+02,3.185422500000001378e+02,3.483078750000001946e+02,3.738860000000003083e+02,3.939328750000003083e+02,4.087766250000003083e+02,4.209641250000003083e+02,4.281985000000003083e+02,4.330891250000003083e+02,4.349953750000003083e+02,4.357610000000003083e+02,4.361047500000003083e+02,4.363703750000003083e+02,4.365735000000003083e+02,4.366985000000003083e+02,4.367766250000003083e+02,4.368547500000003083e+02,4.368547500000003083e+02,4.368078750000003083e+02,4.367453750000003083e+02,4.366828750000003083e+02,4.366672500000003083e+02,4.366828750000003083e+02,4.366985000000003083e+02,4.366985000000003083e+02,4.367453750000003083e+02,4.368391250000003083e+02,4.369328750000003083e+02,4.370578750000003083e+02,4.371672500000003083e+02,4.372453750000003083e+02,4.373391250000003083e+02,4.374641250000003083e+02,4.375891250000003083e+02,4.376828750000003083e+02,4.377766250000003083e+02,4.378391250000003083e+02,4.378860000000003083e+02,4.379328750000003083e+02,4.379641250000003083e+02,4.379485000000003083e+02,4.299797500000003083e+02,4.144641250000003083e+02,3.903547500000003083e+02,3.580110000000001946e+02,3.169953750000001378e+02,2.678235000000001378e+02,2.107141250000000809e+02
-2.632812500000001776e+01,-6.875000000000005684e+01,-9.060937500000005684e+01,-8.400000000000005684e+01,-5.473437500000002842e+01,-2.950000000000001421e+01,-1.068750000000000711e+01,-5.203125000000003553e+00,-3.250000000000001776e+00,-3.421875000000001776e+00,-1.546875000000000444e+00,5.296875000000003553e+00,5.828125000000004441e+00,5.703125000000004441e+00,7.968750000000013323e-01,-7.046875000000003553e+00,-9.343750000000005329e+00,-8.937500000000005329e+00,-2.484375000000001776e+00,5.187500000000003553e+00,1.117187500000000711e+01,1.309375000000000888e+01,9.093750000000005329e+00,4.062500000000002665e+00,-4.359375000000001776e+00,-8.796875000000005329e+00,-8.421875000000005329e+00,-7.750000000000005329e+00,-2.015625000000001332e+00,2.781250000000001776e+00,4.875000000000003553e+00,8.109375000000005329e+00,8.828125000000005329e+00,5.640625000000003553e+00,2.718750000000001776e+00,-2.296875000000001776e+00,-8.265625000000005329e+00,-7.265625000000004441e+00,-6.359375000000004441e+00,-3.468750000000002220e+00,1.703125000000000888e+00,-4.375000000000004441e-01,-1.031250000000000666e+00,-3.531250000000002220e+00,-5.937500000000003553e+00,-2.968750000000001776e+00,-1.328125000000001110e+00,4.859375000000002665e+00,8.625000000000005329e+00,1.196875000000000711e+01,1.660937500000001066e+01,1.403125000000000888e+01,1.317187500000000711e+01,1.000000000000000533e+01,4.875000000000002665e+00,6.578125000000003553e+00,6.546875000000003553e+00,5.328125000000003553e+00,3.984375000000003109e+00,-3.484375000000003109e+00,-7.343750000000005329e+00,-8.453125000000005329e+00,-8.125000000000005329e+00,-9.218750000000002220e-01,1.796875000000000666e+00,5.640625000000002665e+00,9.937500000000007105e+00,4.125000000000002665e+00,-1.046875000000000222e+00,-8.484375000000003553e+00,-1.784375000000001066e+01,-1.375000000000000711e+01,-2.890625000000000888e+00,4.750000000000003553e+00,1.357812500000001066e+01,1.057812500000000711e+01,-2.109375000000002665e+00,-9.656250000000007105e+00,-1.720312500000001066e+01,-2.006250000000001421e+01,-1.790625000000001066e+01,-1.248437500000000711e+01,-6.921875000000004441e+00,2.453125000000000444e+00,1.284375000000000711e+01,1.248437500000000711e+01,1.278125000000000711e+01,6.203125000000004441e+00,-1.859375000000001332e+00,-4.531250000000003331e-01,-2.937500000000001332e+00,-1.796875000000000444e+00,-4.625000000000001776e+00,-1.418750000000000711e+01,-1.662500000000001066e+01,-2.006250000000001421e+01,-1.337500000000000711e+01,1.796875000000001998e+00,7.953125000000006217e+00,1.582812500000001066e+01,1.209375000000000711e+01,-4.531250000000002220e-01,-4.359375000000002665e+00,-1.132812500000000711e+01,-9.109375000000005329e+00,-3.062500000000001776e+00,-5.156250000000004441e-01,6.328125000000004441e+00,5.500000000000004441e+00,4.140625000000002665e+00,-9.531250000000004441e-01,-1.025000000000000711e+01,-1.262500000000000888e+01,-1.439062500000000711e+01,-9.343750000000003553e+00,-5.937499999999997780e-01,4.734375000000002665e+00,1.164062500000000711e+01,1.292187500000000711e+01,8.984375000000003553e+00,5.937500000000003553e+00,-1.390625000000001332e+00,-4.218750000000002665e+00,-2.656250000000001776e+00,-5.843750000000003553e+00,-5.062500000000002665e+00,-8.343750000000005329e+00,-1.026562500000000711e+01,-2.375000000000002220e+00,3.765625000000001332e+00,1.323437500000000711e+01,1.715625000000001066e+01,1.318750000000000888e+01,9.203125000000005329e+00,1.578125000000001554e+00,-1.953125000000001332e+00,-3.250000000000002220e+00,-4.406250000000003553e+00,-1.031250000000000888e+00,4.843750000000004441e-01,9.687500000000009992e-01,-7.031249999999997780e-01,-6.078125000000003553e+00,-9.484375000000005329e+00,-1.095312500000000711e+01,-5.968750000000004441e+00,2.031249999999996114e-01,6.203125000000003553e+00,1.351562500000000711e+01,1.346875000000000711e+01,1.429687500000000888e+01,1.157812500000000711e+01,2.312500000000001332e+00,-2.953125000000001332e+00,-8.937500000000007105e+00,-1.095312500000000711e+01,-5.984375000000003553e+00,-1.484375000000001332e+00,2.546875000000001332e+00,4.343750000000002665e+00,4.406250000000002665e+00,3.000000000000001776e+00,2.187500000000001776e+00,4.390625000000002665e+00,5.750000000000002665e+00,1.089062500000000533e+01,1.573437500000000888e+01,1.435937500000000711e+01,9.843750000000005329e+00,-1.953125000000002665e+00,-1.479687500000001066e+01,-2.045312500000001421e+01,-1.993750000000001421e+01,-1.090625000000000711e+01,1.031250000000000888e+00,7.953125000000004441e+00,9.625000000000005329e+00,4.296875000000001776e+00,-2.125000000000001776e+00,-3.781250000000002665e+00,-2.703125000000001776e+00,3.609375000000002220e+00,7.656250000000005329e+00,5.515625000000004441e+00,4.234375000000003553e+00,1.093750000000000000e-01,-1.968750000000001332e+00,-2.187500000000001665e-01,-3.593750000000002220e-01,1.562500000000002220e-01,-1.312500000000000888e+00,-2.906250000000001776e+00,-5.750000000000003553e+00,-9.343750000000005329e+00,-7.484375000000004441e+00,-5.062500000000003553e+00,1.656250000000000888e+00,1.023437500000000711e+01,1.082812500000000711e+01,8.593750000000005329e+00,8.281250000000000000e-01,-7.921875000000005329e+00,-1.010937500000000711e+01,-9.937500000000007105e+00,-3.218750000000002220e+00,2.171875000000000888e+00,5.000000000000003553e+00,9.859375000000007105e+00,7.593750000000005329e+00,6.296875000000003553e+00,5.390625000000003553e+00,-2.625000000000001776e+00,-4.765625000000003553e+00,-5.281250000000003553e+00,-8.171875000000005329e+00,-2.812500000000001776e+00,7.812500000000022204e-02,1.562500000000002220e-01,4.734375000000003553e+00,3.218750000000002665e+00,3.281249999999999445e-01,3.281249999999999445e-01,-5.843750000000003553e+00,-8.468750000000005329e+00,-7.140625000000003553e+00,-7.781250000000005329e+00,1.015625000000000444e+00,9.000000000000005329e+00,1.081250000000000711e+01,1.248437500000000711e+01,4.171875000000001776e+00,-6.687500000000003553e+00,-9.406250000000007105e+00,-1.143750000000000711e+01,-7.406250000000004441e+00,2.140625000000000888e+00,3.093750000000001776e+00,5.578125000000002665e+00,6.140625000000003553e+00,1.406250000000000888e+00,4.812500000000003553e+00,3.343750000000002665e+00,4.375000000000004441e-01,-1.359375000000000222e+00,-1.045312500000000711e+01,-1.264062500000000711e+01,-1.135937500000000711e+01,-6.562500000000004441e+00,4.812500000000003553e+00,1.095312500000000711e+01,1.529687500000001066e+01,1.407812500000000711e+01,6.515625000000003553e+00,0.000000000000000000e+00,-7.281250000000005329e+00,-9.421875000000007105e+00,-6.453125000000004441e+00,-2.656250000000001776e+00,2.500000000000001776e+00,4.687500000000003553e+00,3.437500000000002220e+00,3.625000000000002220e+00,2.359375000000001332e+00,2.250000000000001332e+00,5.140625000000002665e+00,3.765625000000001776e+00,2.515625000000001332e+00,-3.281250000000004441e-01,-4.921875000000003553e+00,-5.968750000000003553e+00,-4.640625000000003553e+00,-2.312500000000001776e+00,-1.390625000000000888e+00,-7.343750000000003331e-01,-2.625000000000001332e+00,-2.546875000000001332e+00,1.562500000000004718e-01,8.281250000000008882e-01,2.281250000000001776e+00,1.265625000000001110e+00,-1.171875000000000888e+00,-3.750000000000003331e-01,1.625000000000000888e+00,3.421875000000001776e+00,7.062500000000003553e+00,7.140625000000003553e+00,4.968750000000002665e+00,3.656250000000002220e+00,-2.015625000000001332e+00,-3.468750000000002665e+00,-4.468750000000003553e+00,-4.625000000000003553e+00,3.265625000000001332e+00,2.953125000000001332e+00,4.984375000000003553e+00,6.937500000000004441e+00,-1.734375000000001110e+00,1.312500000000000888e+00,6.406250000000000000e-01,-3.125000000000002665e+00,5.156250000000001110e-01,-6.671875000000004441e+00,-8.234375000000005329e+00,-4.734375000000002665e+00,-2.218750000000001332e+00,8.468750000000005329e+00,9.921875000000007105e+00,5.468750000000003553e+00,-9.375000000000008882e-01,-1.037500000000000711e+01,-9.296875000000007105e+00,1.874999999999995559e-01,1.012500000000000533e+01,1.564062500000000888e+01,1.456250000000000888e+01,2.000000000000000888e+00,-6.781250000000003553e+00,-8.687500000000005329e+00,-9.187500000000007105e+00,6.875000000000008882e-01,1.718750000000001332e+00,-4.687500000000000000e-01,-2.625000000000001332e+00,-1.121875000000000711e+01,-9.000000000000007105e+00,-6.421875000000005329e+00,-2.468750000000001776e+00,4.078125000000002665e+00,2.671875000000001776e+00,8.281250000000008882e-01,-3.234375000000002220e+00,-5.890625000000003553e+00,-3.656250000000002665e+00,-1.625000000000001332e+00,3.609375000000002665e+00,7.312500000000005329e+00,7.390625000000005329e+00,1.132812500000000711e+01,1.078125000000000711e+01,7.671875000000005329e+00,5.468750000000003553e+00,-3.531250000000001776e+00,-8.265625000000005329e+00,-8.265625000000005329e+00,-6.671875000000003553e+00,-2.968750000000000000e-01,2.500000000000001776e+00,1.656250000000001110e+00,0.000000000000000000e+00,-2.000000000000001332e+00,-6.875000000000005551e-01,4.812500000000002665e+00,1.093750000000000711e+01,1.390625000000000888e+01,1.489062500000000888e+01,7.203125000000003553e+00,-5.062500000000003553e+00,-1.168750000000000711e+01,-2.015625000000001421e+01,-1.710937500000001066e+01,-6.578125000000003553e+00,-3.812500000000000888e+00,4.109375000000002665e+00,8.750000000000008882e-01,-7.390625000000003553e+00,-7.875000000000005329e+00,-1.484375000000000888e+01,-1.196875000000000711e+01,-9.468750000000007105e+00,-1.065625000000000711e+01,-3.515625000000002220e+00,-1.531250000000000444e+00,5.843750000000003553e+00,1.278125000000000711e+01,1.375000000000000888e+01,1.504687500000001066e+01,1.270312500000000888e+01,1.475000000000001066e+01,1.635937500000001066e+01,2.040625000000001421e+01,2.221875000000001421e+01,1.326562500000000711e+01,6.859375000000005329e+00,-6.734375000000004441e+00,-2.192187500000001421e+01,-2.503125000000002132e+01,-3.142187500000002132e+01,-2.987500000000001421e+01,-1.717187500000000711e+01,-1.046875000000000711e+01,1.265625000000001776e+00,1.340625000000001066e+01,1.364062500000000888e+01,1.389062500000000888e+01,1.370312500000000711e+01,9.968750000000005329e+00,1.618750000000001066e+01,2.878125000000001776e+01,3.531250000000002132e+01,3.531250000000002132e+01,2.176562500000001421e+01,-4.515625000000002665e+00,-2.531250000000001776e+01,-3.251562500000002132e+01,-2.739062500000001776e+01,-1.028125000000000711e+01,2.593750000000001332e+00,5.140625000000003553e+00,2.390625000000001776e+00,-8.265625000000005329e+00,-1.435937500000001066e+01,-1.526562500000001066e+01,-1.440625000000000888e+01,-8.359375000000005329e+00,-4.281250000000002665e+00,-1.750000000000001332e+00,9.375000000000006939e-02,7.812500000000005551e-02,4.687500000000002776e-02,3.125000000000002082e-02,1.562500000000001041e-02,-4.687500000000004163e-02,-4.687500000000004163e-02,-4.687500000000004163e-02,-4.687500000000004163e-02,4.687500000000004163e-02,3.125000000000002776e-02,1.562500000000001735e-02,-1.562500000000000694e-02,-1.093750000000000833e-01,-1.093750000000000833e-01,-9.375000000000008327e-02,-1.562500000000001388e-02,7.812500000000006939e-02,2.031250000000001665e-01,2.656250000000002220e-01,2.500000000000002220e-01,2.343750000000001943e-01,1.562500000000004163e-02,-1.093750000000000555e-01,-2.343750000000001665e-01,-3.593750000000002776e-01,-2.187500000000001665e-01,-1.562500000000001388e-01,-1.562500000000002776e-02,1.250000000000001110e-01,7.812500000000006939e-02,1.093750000000000833e-01,9.375000000000006939e-02,7.812500000000005551e-02,1.406250000000001110e-01,1.093750000000000833e-01,0.000000000000000000e+00,-1.250000000000001110e-01,-2.812500000000002220e-01,-3.906250000000003331e-01,-2.656250000000002220e-01,-7.812500000000004163e-02,1.718750000000001388e-01,4.687500000000003331e-01,4.531250000000003331e-01,3.437500000000002220e-01,1.406250000000001110e-01,-1.562500000000001110e-01,-2.187500000000001665e-01,-2.187500000000001665e-01,-1.562500000000001110e-01,-3.125000000000002082e-02,-1.562500000000001041e-02,0.000000000000000000e+00,-1.562500000000001041e-02,-3.125000000000001665e-01,-1.921875000000001554e+00,-4.734375000000003553e+00,-9.671875000000007105e+00,-1.545312500000001066e+01,-1.854687500000001066e+01,-1.976562500000001421e+01,-1.689062500000001421e+01,-1.200000000000000888e+01,-7.828125000000005329e+00,-4.468750000000002665e+00,-1.828125000000000888e+00,1.031250000000001554e+00,2.140625000000001776e+00,4.984375000000003553e+00,7.500000000000006217e+00,9.031250000000007105e+00,1.270312500000001066e+01,1.359375000000001066e+01,7.859375000000006217e+00,-2.968750000000000000e-01,-1.190625000000000888e+01,-2.200000000000001421e+01,-1.900000000000001421e+01,-1.146875000000000711e+01,2.328125000000002665e+00,1.693750000000001421e+01,1.784375000000001066e+01,1.653125000000001066e+01,8.750000000000005329e+00,-3.203125000000003553e+00,-3.609375000000003553e+00,-3.781250000000002665e+00,1.250000000000000000e+00,1.203125000000000888e+01,1.473437500000001066e+01,1.510937500000001066e+01,9.906250000000007105e+00,8.906250000000006661e-01,-6.218750000000004441e+00,-1.276562500000000888e+01,-1.551562500000001066e+01,-1.920312500000001421e+01,-2.260937500000001421e+01,-2.134375000000001421e+01,-2.170312500000001066e+01,-1.675000000000000711e+01,-5.687500000000001776e+00,3.812500000000002665e+00,1.807812500000001066e+01,2.918750000000001421e+01,3.154687500000002132e+01,3.007812500000002132e+01,2.210937500000001421e+01,1.268750000000000711e+01,6.500000000000003553e+00,2.609375000000001776e+00,1.234375000000000666e+00,9.843750000000006661e-01,6.718750000000004441e-01,-1.093750000000001110e-01,-1.015625000000000444e+00,-1.609375000000000888e+00,-1.937500000000001332e+00,-1.515625000000000888e+00,-6.562500000000004441e-01,7.812500000000002776e-02,6.562500000000004441e-01,7.500000000000005551e-01,5.312500000000004441e-01,2.968750000000002220e-01,7.812500000000005551e-02,1.562500000000001041e-02,3.125000000000002082e-02,7.812500000000005551e-02,2.187500000000001110e-01,3.437500000000002220e-01,4.218750000000003331e-01,5.000000000000003331e-01,5.156250000000003331e-01,5.468750000000003331e-01,1.281250000000000888e+00,2.750000000000001776e+00,4.265625000000003553e+00,6.906250000000004441e+00,7.125000000000004441e+00,4.640625000000003553e+00,1.718750000000001110e+00,-5.828125000000004441e+00,-9.031250000000007105e+00,-8.187500000000007105e+00,-6.859375000000005329e+00,1.859375000000001332e+00,4.031250000000002665e+00,1.937500000000001332e+00,8.125000000000006661e-01,-7.406250000000005329e+00,-7.671875000000005329e+00,-3.671875000000001776e+00,-3.125000000000001776e+00,2.703125000000002220e+00,3.296875000000002665e+00,1.750000000000001332e+00,5.515625000000004441e+00,8.750000000000005329e+00,1.287500000000000711e+01,1.604687500000001066e+01,1.393750000000000888e+01,6.125000000000004441e+00,-1.843750000000000444e+00,-9.859375000000005329e+00,-1.496875000000001066e+01,-1.354687500000001066e+01,-1.071875000000000711e+01,-3.968750000000002665e+00,4.500000000000002665e+00,9.609375000000007105e+00,1.462500000000000888e+01,1.401562500000000888e+01,7.593750000000005329e+00,3.125000000000001776e+00,-5.906250000000004441e+00,-1.062500000000000711e+01,-1.129687500000000711e+01,-1.381250000000001066e+01,-8.765625000000007105e+00,-6.093750000000003553e+00,-1.578125000000001332e+00,3.437500000000002220e+00,2.859375000000002220e+00,2.859375000000002220e+00,-2.156250000000001776e+00,-5.312500000000003553e+00,-5.953125000000004441e+00,-4.578125000000003553e+00,1.296875000000000888e+00,2.890625000000001776e+00,3.062500000000001776e+00,6.250000000000000000e-02,-5.000000000000002665e+00,-2.921875000000001332e+00,1.906250000000001332e+00,7.328125000000005329e+00,1.337500000000000888e+01,1.310937500000000888e+01,8.125000000000005329e+00,6.375000000000005329e+00,2.843750000000002220e+00,5.781250000000003331e-01,3.000000000000001776e+00,1.609375000000000888e+00,3.156250000000002220e+00,3.234375000000002665e+00,2.656250000000003331e-01,-2.234375000000001332e+00,-9.515625000000007105e+00,-1.050000000000000711e+01,-1.182812500000000711e+01,-1.010937500000000711e+01,-1.750000000000000444e+00,-6.249999999999963918e-02,4.406250000000002665e+00,2.875000000000001332e+00,-2.921875000000001776e+00,-6.640625000000004441e+00,-1.117187500000000711e+01,-7.140625000000003553e+00,-2.625000000000001332e+00,3.968750000000003553e+00,9.234375000000007105e+00,6.671875000000005329e+00,2.890625000000002220e+00,-2.515625000000001332e+00,-8.312500000000005329e+00,-9.250000000000007105e+00,-4.531250000000003553e+00,-5.312500000000004441e-01,8.093750000000005329e+00,1.328125000000000888e+01,1.196875000000000888e+01,1.339062500000001066e+01,7.828125000000005329e+00,5.718750000000003553e+00,4.531250000000002665e+00,-3.062500000000001776e+00,-5.718750000000002665e+00,-1.079687500000000711e+01,-1.282812500000000711e+01,-7.468750000000004441e+00,-5.156250000000003553e+00,-3.312500000000001776e+00,-1.968750000000001332e+00,-5.203125000000003553e+00,-4.937500000000003553e+00,-1.109375000000000666e+00,-4.687500000000002220e-01,4.046875000000002665e+00,6.718750000000003553e+00,4.015625000000002665e+00,5.468750000000003553e+00,3.750000000000002665e+00,1.437500000000001110e+00,4.609375000000002665e+00,3.812500000000002220e+00,2.531250000000001776e+00,1.171875000000000444e+00,-3.734375000000002665e+00,-4.609375000000002665e+00,-2.578125000000001776e+00,1.562500000000004441e-01,5.000000000000003553e+00,5.203125000000003553e+00,3.765625000000002220e+00,1.984375000000000888e+00,-4.296875000000002665e+00,-5.484375000000003553e+00,-9.406250000000007105e+00,-1.220312500000000711e+01,-8.109375000000005329e+00,-8.281250000000005329e+00,-2.250000000000001332e+00,2.421875000000001776e+00,2.343750000000001776e+00,4.781250000000002665e+00,3.156250000000001776e+00,1.000000000000000444e+00,7.812500000000003331e-01,5.156250000000004441e-01,3.281250000000003886e-01,4.312500000000002665e+00,5.906250000000003553e+00,4.781250000000003553e+00,4.421875000000003553e+00,-2.812500000000001776e+00,-5.265625000000003553e+00,-4.031250000000002665e+00,-4.281250000000003553e+00,2.078125000000001776e+00,1.906250000000001776e+00,-9.687500000000003331e-01,5.000000000000005551e-01,-3.375000000000002665e+00,-1.015625000000001332e+00,3.218750000000001776e+00,1.812500000000000888e+00,5.265625000000003553e+00,3.109375000000001776e+00,5.312500000000006661e-01,1.734375000000001554e+00,-2.625000000000001776e+00,-6.562500000000004441e-01,-6.250000000000004441e-01,-2.437500000000001776e+00,2.265625000000001776e+00,2.500000000000004441e-01,-9.375000000000006661e-01,-1.328125000000000666e+00,-7.187500000000005329e+00,-6.781250000000004441e+00,-3.031250000000002220e+00,1.046875000000000222e+00,8.000000000000005329e+00,8.515625000000005329e+00,3.609375000000002665e+00,-8.593750000000000000e-01,-5.750000000000003553e+00,-4.812500000000003553e+00,1.171875000000001110e+00,4.203125000000002665e+00,5.328125000000003553e+00,4.718750000000003553e+00,3.593750000000002220e-01,-2.156250000000001332e+00,-1.296875000000000888e+00,-3.515625000000002665e+00,-3.125000000000002220e+00,-4.531250000000006661e-01,-1.406250000000001332e+00,-1.875000000000002220e-01,-1.390625000000000888e+00,-4.312500000000002665e+00,-4.718750000000003553e+00,-1.546875000000001554e+00,3.406250000000001776e+00,4.390625000000003553e+00,5.984375000000004441e+00,1.531250000000001776e+00,-4.046875000000001776e+00,-2.468750000000001776e+00,-3.671875000000001776e+00,-2.218750000000000888e+00,1.093750000000000000e-01,-2.046875000000001332e+00,-2.312500000000001776e+00,-1.484375000000000888e+00,-1.562500000000011102e-02,2.171875000000001332e+00,3.062500000000002220e+00,2.781250000000001776e+00,1.890625000000001332e+00,1.437500000000001332e+00,3.000000000000001776e+00,4.062500000000002665e+00,3.171875000000002220e+00,1.187500000000000666e+00,-8.750000000000005551e-01,-2.750000000000001776e+00,-2.906250000000001776e+00,4.375000000000002220e-01,-5.625000000000006661e-01,3.437500000000000000e-01,2.718750000000001776e+00,-1.718750000000000888e+00,6.250000000000000000e-02,-1.875000000000000000e-01,-4.484375000000002665e+00,-1.015625000000000666e+00,-3.406250000000001776e+00,-5.625000000000003553e+00,-1.921875000000001332e+00,-4.406250000000002665e+00,-3.281250000000000000e-01,3.437500000000002665e+00,5.937500000000005551e-01,2.843750000000001776e+00,-1.546875000000000888e+00,-4.000000000000002665e+00,-2.140625000000001332e+00,-5.187500000000003553e+00,-4.484375000000003553e+00,-4.484375000000003553e+00,-6.093750000000003553e+00,-2.953125000000001776e+00,1.406250000000004996e-01,2.656250000000002776e-01,2.390625000000000888e+00,1.375000000000000444e+00,-8.437500000000008882e-01,1.968750000000001776e+00,3.328125000000002665e+00,4.625000000000003553e+00,6.781250000000005329e+00,3.625000000000002665e+00,-8.750000000000002220e-01,-2.125000000000000888e+00,-5.203125000000003553e+00,-2.640625000000001776e+00,5.937499999999998890e-01,-8.437500000000009992e-01,1.796875000000000888e+00,1.062500000000000444e+00,3.468750000000002220e+00,7.828125000000005329e+00,8.078125000000005329e+00,6.437500000000003553e+00,-4.218750000000008882e-01,-3.890625000000002665e+00,-6.250000000000003553e+00,-4.750000000000002665e+00,1.296875000000000666e+00,1.125000000000000444e+00,2.703125000000000888e+00,3.078125000000001332e+00,1.000000000000000666e+00,2.828125000000001776e+00,1.625000000000001110e+00,-4.062500000000002220e-01,-1.562500000000001110e+00,-1.062500000000000888e+00,1.640625000000000888e+00,5.156250000000003553e+00,7.203125000000005329e+00,3.984375000000003553e+00,1.296875000000001332e+00,-2.046875000000001332e+00,-2.359375000000001332e+00,1.421875000000000888e+00,2.359375000000001776e+00,3.562500000000002220e+00,1.234375000000000666e+00,-3.062500000000001776e+00,-5.593750000000003553e+00,-7.656250000000005329e+00,-8.125000000000005329e+00,-7.781250000000005329e+00,-5.015625000000003553e+00,-2.718750000000001776e+00,1.453125000000000444e+00,8.218750000000003553e+00,9.906250000000005329e+00,1.114062500000000711e+01,9.515625000000005329e+00,2.078125000000000888e+00,-7.968750000000003331e-01,-2.125000000000000888e+00,-2.625000000000001332e+00,5.000000000000004441e-01,1.546875000000001110e+00,-3.125000000000022204e-02,-1.500000000000000888e+00,-1.875000000000001332e+00,-4.687500000000003553e+00,-3.093750000000001776e+00,2.656250000000002776e-01,1.406250000000001110e+00,9.687500000000005329e+00,1.192187500000000711e+01,1.062500000000000711e+01,9.937500000000007105e+00,6.718750000000008882e-01,-3.484375000000002220e+00,-3.859375000000002220e+00,-5.265625000000003553e+00,-9.218750000000008882e-01,1.515625000000000666e+00,-1.312500000000001776e+00,-2.328125000000002665e+00,-5.703125000000003553e+00,-1.092187500000000711e+01,-8.671875000000005329e+00,-5.656250000000003553e+00,-2.109375000000000888e+00,6.328125000000004441e+00,7.546875000000005329e+00,2.531250000000001332e+00,-2.593750000000002220e+00,-1.526562500000001066e+01,-2.568750000000001776e+01,-2.546875000000001776e+01,-2.270312500000001421e+01,-9.953125000000005329e+00,8.421875000000003553e+00,1.735937500000001066e+01,2.128125000000001421e+01,1.657812500000001066e+01,5.609375000000003553e+00,1.453125000000001110e+00,3.421875000000001776e+00,1.150000000000000711e+01,2.025000000000001066e+01,2.268750000000001421e+01,1.781250000000001066e+01,7.171875000000005329e+00,-4.609375000000001776e+00,-1.326562500000000711e+01,-1.629687500000001066e+01,-1.685937500000001066e+01,-1.321875000000000711e+01,-7.796875000000005329e+00,-4.781250000000003553e+00,-6.406250000000002220e-01,2.000000000000001332e+00,1.593750000000001110e+00,4.109375000000002665e+00,7.375000000000005329e+00,6.437500000000003553e+00,6.421875000000003553e+00,1.406250000000001332e+00,-7.359375000000005329e+00,-7.921875000000005329e+00,-9.125000000000007105e+00,-7.984375000000007105e+00,-2.625000000000002220e+00,-5.218750000000003553e+00,-6.140625000000003553e+00,-4.406250000000001776e+00,-7.656250000000003553e+00,-8.468750000000005329e+00,-8.671875000000005329e+00,-1.209375000000000711e+01,-9.312500000000005329e+00,-4.875000000000002665e+00,-1.890625000000001110e+00,-2.656250000000011102e-01,-4.375000000000003553e+00,-7.093750000000006217e+00,-1.506250000000000888e+01,-1.717187500000000711e+01,-1.598437500000000711e+01,-1.789062500000000711e+01,-5.718750000000003553e+00,4.140625000000002665e+00,1.696875000000001066e+01,3.132812500000001776e+01,3.312500000000002132e+01,3.151562500000002132e+01,2.323437500000001421e+01,1.317187500000000711e+01,6.562500000000003553e+00,2.109375000000001776e+00,5.781250000000004441e-01,1.875000000000001665e-01,1.562500000000001388e-01,1.406250000000001110e-01,2.500000000000001665e-01,3.125000000000002220e-01,3.593750000000002220e-01,4.062500000000003331e-01,2.187500000000001943e-01,1.562500000000001735e-02,-1.718750000000001388e-01,-2.968750000000002220e-01,-2.187500000000001665e-01,-1.093750000000000971e-01,-6.938893903907228378e-18,-6.938893903907228378e-18,-4.687500000000004163e-02,-7.812500000000005551e-02,-1.093750000000000833e-01,-4.687500000000002776e-02,-3.125000000000001388e-02,1.562500000000002082e-02,4.687500000000003469e-02,4.687500000000002776e-02,1.093750000000000833e-01,1.562500000000000694e-02,-1.562500000000000694e-02,-1.562500000000000694e-02,-6.250000000000004163e-02,1.406250000000000833e-01,2.343750000000001388e-01,2.500000000000001110e-01,8.218750000000005329e+00,2.342187500000001421e+01,4.734375000000003553e+01,7.956250000000005684e+01,8.870312500000005684e+01,7.618750000000005684e+01,3.710937500000002132e+01
-5.518750000000002842e+01,-8.637500000000004263e+01,-3.512500000000001421e+01,-1.125000000000000533e+01,-7.625000000000004441e+00,3.437500000000001776e+00,6.062500000000002665e+00,-1.875000000000002220e-01,-1.750000000000000666e+00,-6.500000000000001776e+00,-6.500000000000001776e+00,3.812500000000001332e+00,6.875000000000003553e+00,7.375000000000003553e+00,6.250000000000001776e+00,-5.000000000000003553e+00,-1.518750000000000711e+01,-1.018750000000000355e+01,5.437500000000002665e+00,9.250000000000005329e+00,1.250000000000004441e-01,1.000000000000000888e+00,1.143750000000000533e+01,7.000000000000003553e+00,-8.375000000000003553e+00,-8.437500000000003553e+00,-4.687500000000001776e+00,-5.250000000000002665e+00,5.687500000000002665e+00,7.437500000000003553e+00,-6.250000000000003553e+00,-2.500000000000001776e+00,9.937500000000005329e+00,5.937500000000003553e+00,-8.125000000000002220e-01,-8.125000000000004441e-01,-1.750000000000001110e+00,-7.250000000000002665e+00,-1.075000000000000355e+01,3.437500000000001776e+00,1.375000000000000533e+01,-2.000000000000001776e+00,-8.125000000000003553e+00,3.312500000000001332e+00,1.562500000000000888e+00,-9.500000000000003553e+00,-5.875000000000003553e+00,8.562500000000003553e+00,9.125000000000003553e+00,-3.750000000000002220e-01,-4.687500000000001776e+00,4.250000000000002665e+00,2.043750000000000711e+01,8.375000000000003553e+00,-1.781250000000000711e+01,-9.937500000000003553e+00,1.093750000000000533e+01,1.287500000000000533e+01,5.562500000000001776e+00,-3.312500000000001776e+00,-1.087500000000000533e+01,-1.131250000000000533e+01,1.250000000000000000e-01,9.625000000000003553e+00,2.187500000000000888e+00,-4.062500000000000888e+00,-4.062500000000000888e+00,3.375000000000001776e+00,2.068750000000001066e+01,6.250000000000003553e+00,-2.750000000000001066e+01,-2.212500000000000711e+01,-4.250000000000001776e+00,7.625000000000003553e+00,3.193750000000001066e+01,1.887500000000000355e+01,-2.450000000000001066e+01,-2.000000000000000711e+01,5.187500000000002665e+00,6.875000000000000000e-01,-5.687500000000002665e+00,-4.500000000000002665e+00,-1.112500000000000533e+01,-5.250000000000001776e+00,1.075000000000000533e+01,1.531250000000000711e+01,1.362500000000000711e+01,-2.625000000000000000e+00,-1.743750000000000711e+01,-5.937500000000002665e+00,7.250000000000002665e+00,8.312500000000003553e+00,2.937500000000001776e+00,-4.250000000000001776e+00,-1.087500000000000533e+01,-1.368750000000000711e+01,-4.187500000000001776e+00,-3.812500000000001332e+00,-3.500000000000000444e+00,2.581250000000000711e+01,2.618750000000000711e+01,-1.418750000000000711e+01,-2.431250000000001066e+01,-5.875000000000003553e+00,6.687500000000003553e+00,7.375000000000003553e+00,4.375000000000002220e-01,-8.625000000000003553e+00,-7.250000000000003553e+00,1.568750000000000711e+01,2.187500000000000711e+01,-9.312500000000005329e+00,-3.043750000000001421e+01,-1.318750000000000533e+01,1.525000000000000888e+01,1.350000000000000711e+01,-9.125000000000003553e+00,-1.087500000000000533e+01,7.500000000000002665e+00,2.218750000000001066e+01,1.312500000000000711e+01,-1.775000000000000711e+01,-2.456250000000001066e+01,3.812500000000000000e+00,2.237500000000000711e+01,7.812500000000003553e+00,-1.900000000000000711e+01,-1.593750000000000711e+01,3.500000000000000888e+00,-8.750000000000008882e-01,1.687500000000001776e+00,2.300000000000001066e+01,1.637500000000000711e+01,-1.575000000000000711e+01,-1.768750000000000711e+01,1.306250000000000711e+01,1.500000000000000711e+01,-1.206250000000000711e+01,-1.475000000000000888e+01,2.062500000000001332e+00,1.037500000000000533e+01,1.000000000000000355e+01,5.625000000000000000e-01,-1.525000000000000533e+01,-1.662500000000000711e+01,2.000000000000000888e+00,1.206250000000000711e+01,3.500000000000001776e+00,-4.937500000000001776e+00,1.125000000000000444e+00,1.412500000000000533e+01,6.562500000000001776e+00,-4.437500000000002665e+00,4.875000000000002665e+00,-2.125000000000000000e+00,-2.056250000000001066e+01,-7.187500000000005329e+00,1.381250000000000533e+01,9.375000000000003553e+00,-1.750000000000000444e+00,-5.375000000000002665e+00,-4.437500000000001776e+00,6.312500000000003553e+00,1.093750000000000533e+01,-5.687500000000001776e+00,-1.193750000000000533e+01,5.750000000000001776e+00,1.918750000000000711e+01,1.425000000000000533e+01,-8.750000000000000000e-01,-1.212500000000000533e+01,-1.737500000000000711e+01,-1.493750000000000533e+01,2.125000000000000888e+00,1.056250000000000355e+01,-1.750000000000000444e+00,1.875000000000001776e+00,2.100000000000001066e+01,5.125000000000003553e+00,-3.281250000000001421e+01,-2.056250000000000711e+01,2.731250000000001421e+01,2.493750000000001066e+01,-9.750000000000003553e+00,-9.562500000000003553e+00,-1.875000000000002220e-01,-3.625000000000001776e+00,4.875000000000002665e+00,9.625000000000003553e+00,-6.250000000000002665e+00,-1.131250000000000355e+01,5.375000000000002665e+00,1.012500000000000355e+01,-2.687500000000000888e+00,-1.275000000000000533e+01,-1.300000000000000533e+01,2.875000000000001776e+00,1.550000000000000711e+01,5.875000000000002665e+00,1.125000000000000000e+00,6.750000000000002665e+00,-1.875000000000000000e+00,-1.768750000000000711e+01,-1.387500000000000711e+01,7.187500000000001776e+00,1.506250000000000711e+01,4.062500000000001776e+00,-1.037500000000000355e+01,-8.250000000000003553e+00,1.718750000000000711e+01,1.756250000000000711e+01,-1.343750000000000711e+01,-1.381250000000000711e+01,2.250000000000001332e+00,3.750000000000000000e-01,2.750000000000000888e+00,3.125000000000000000e-01,-9.062500000000003553e+00,1.500000000000001776e+00,1.293750000000000711e+01,4.750000000000002665e+00,-1.000000000000000355e+01,-1.068750000000000355e+01,8.750000000000003553e+00,9.250000000000005329e+00,-1.637500000000000711e+01,-1.675000000000000711e+01,6.187500000000002665e+00,2.093750000000001066e+01,1.737500000000000711e+01,-5.500000000000001776e+00,-1.387500000000000533e+01,-2.625000000000001332e+00,-7.187500000000003553e+00,-6.812500000000003553e+00,9.562500000000003553e+00,6.437500000000002665e+00,-2.750000000000001332e+00,1.500000000000000444e+00,4.812500000000001776e+00,-2.375000000000000888e+00,-1.150000000000000533e+01,6.125000000000003553e+00,2.418750000000001421e+01,-3.437500000000001776e+00,-3.087500000000001421e+01,-1.325000000000000711e+01,1.412500000000000355e+01,9.687500000000003553e+00,-7.062500000000003553e+00,2.937500000000000888e+00,1.656250000000000711e+01,5.812500000000002665e+00,-5.687500000000002665e+00,-5.187500000000002665e+00,-6.187500000000002665e+00,-9.500000000000003553e+00,-3.125000000000000000e-01,1.381250000000000533e+01,6.875000000000002665e+00,-9.125000000000003553e+00,-5.812500000000003553e+00,6.812500000000001776e+00,8.187500000000003553e+00,-4.500000000000002665e+00,-1.056250000000000533e+01,9.250000000000005329e+00,1.850000000000000711e+01,-7.562500000000005329e+00,-2.250000000000001066e+01,-4.000000000000001776e+00,1.175000000000000533e+01,9.187500000000005329e+00,6.875000000000004441e-01,-1.031250000000000355e+01,-1.100000000000000355e+01,4.125000000000002665e+00,1.243750000000000711e+01,2.125000000000000888e+00,-8.437500000000003553e+00,-5.625000000000008882e-01,5.750000000000002665e+00,-7.562500000000002665e+00,-6.062500000000002665e+00,1.631250000000000711e+01,9.562500000000005329e+00,-1.325000000000000533e+01,-2.750000000000000000e+00,1.418750000000000711e+01,6.875000000000000000e-01,-1.506250000000000711e+01,-3.812500000000001776e+00,3.750000000000001332e+00,-1.312500000000000666e+00,1.400000000000000711e+01,9.625000000000003553e+00,-1.937500000000000711e+01,-4.250000000000000000e+00,1.350000000000000711e+01,-3.937500000000002220e+00,-4.437500000000001776e+00,9.312500000000003553e+00,2.812500000000000888e+00,-1.875000000000000711e+01,-1.718750000000000711e+01,1.243750000000000711e+01,2.318750000000001066e+01,1.050000000000000533e+01,-5.312500000000001776e+00,-1.706250000000000711e+01,-1.225000000000000711e+01,-3.875000000000001332e+00,1.562500000000000888e+00,2.193750000000000711e+01,2.812500000000001066e+01,-6.000000000000003553e+00,-2.706250000000001066e+01,-1.250000000000000355e+01,3.750000000000001332e+00,1.012500000000000355e+01,6.187500000000003553e+00,1.812500000000000888e+00,-3.875000000000002665e+00,-9.250000000000003553e+00,-2.687500000000000888e+00,-3.750000000000000888e+00,-5.000000000000001776e+00,8.250000000000003553e+00,9.437500000000003553e+00,-1.000000000000000666e+00,-3.000000000000001776e+00,-4.937500000000001776e+00,-1.125000000000000355e+01,-1.874999999999991118e-01,1.731250000000000711e+01,2.562500000000000000e+00,-1.381250000000000533e+01,5.125000000000001776e+00,1.381250000000000533e+01,-9.375000000000000000e-01,-8.125000000000000000e-01,8.250000000000003553e+00,1.437500000000000888e+00,-1.975000000000000711e+01,-2.043750000000000711e+01,1.400000000000000533e+01,2.950000000000001421e+01,-2.625000000000001776e+00,-2.700000000000001421e+01,-3.937500000000003553e+00,2.131250000000000711e+01,1.875000000000001776e+00,-2.081250000000000711e+01,4.625000000000001776e+00,3.112500000000001421e+01,7.875000000000003553e+00,-1.412500000000000711e+01,-7.187500000000002665e+00,-8.750000000000003553e+00,-1.006250000000000355e+01,-4.187500000000001776e+00,5.000000000000000000e-01,1.400000000000000711e+01,1.081250000000000533e+01,-8.062500000000003553e+00,-1.406250000000000711e+01,-9.812500000000003553e+00,2.937500000000000888e+00,6.250000000000002665e+00,-2.625000000000000888e+00,-7.250000000000002665e+00,-9.562500000000003553e+00,9.375000000000008882e-01,1.368750000000000711e+01,1.050000000000000533e+01,4.062500000000001776e+00,-1.500000000000000888e+00,-6.375000000000003553e+00,1.500000000000000000e+00,1.612500000000000711e+01,1.087500000000000355e+01,2.812500000000000444e+00,8.437500000000001776e+00,-4.937500000000001776e+00,-1.462500000000000533e+01,-2.187500000000000888e+00,-9.687500000000003553e+00,-1.593750000000000533e+01,-5.812500000000002665e+00,-6.312500000000003553e+00,5.750000000000002665e+00,1.506250000000000711e+01,-3.437500000000000888e+00,1.687500000000000000e+00,1.725000000000000711e+01,-2.312500000000000000e+00,-1.100000000000000355e+01,7.500000000000000000e-01,3.312500000000001776e+00,2.893750000000001421e+01,5.193750000000002842e+01,2.437500000000003553e+00,-5.962500000000002842e+01,-4.281250000000001421e+01,1.168750000000000533e+01,2.206250000000000711e+01,-1.312500000000001776e+00,-1.250000000000008882e-01,1.212500000000000533e+01,-4.187500000000000888e+00,-1.737500000000000711e+01,-7.375000000000003553e+00,-1.250000000000000555e-01,0.000000000000000000e+00,1.250000000000000555e-01,6.250000000000002776e-02,0.000000000000000000e+00,0.000000000000000000e+00,0.000000000000000000e+00,0.000000000000000000e+00,0.000000000000000000e+00,6.250000000000002776e-02,6.250000000000002776e-02,-1.875000000000001110e-01,-1.875000000000001110e-01,1.875000000000001110e-01,1.875000000000001110e-01,-6.250000000000002776e-02,-6.250000000000002776e-02,0.000000000000000000e+00,-6.250000000000002776e-02,-1.250000000000000555e-01,0.000000000000000000e+00,1.250000000000000555e-01,0.000000000000000000e+00,-6.250000000000002776e-02,2.500000000000001110e-01,3.125000000000001110e-01,-1.250000000000000833e-01,-1.875000000000001110e-01,0.000000000000000000e+00,-6.250000000000002776e-02,-1.875000000000000833e-01,-2.500000000000001110e-01,6.250000000000005551e-02,3.750000000000002220e-01,1.250000000000000833e-01,-1.875000000000000833e-01,-1.875000000000000833e-01,6.250000000000002776e-02,2.500000000000001110e-01,6.250000000000002776e-02,-6.250000000000002776e-02,6.250000000000002776e-02,-6.250000000000002776e-02,-2.500000000000001110e-01,-1.875000000000000833e-01,-1.875000000000001110e-01,-2.775557561562891351e-17,3.750000000000001665e-01,3.750000000000001665e-01,2.500000000000001110e-01,2.775557561562891351e-17,-3.750000000000001665e-01,-2.500000000000001110e-01,6.250000000000002776e-02,6.250000000000002776e-02,0.000000000000000000e+00,0.000000000000000000e+00,0.000000000000000000e+00,0.000000000000000000e+00,0.000000000000000000e+00,-6.250000000000002776e-02,-6.250000000000002776e-02,1.250000000000000555e-01,-1.000000000000000444e+00,-7.812500000000003553e+00,-1.456250000000000711e+01,-7.937500000000003553e+00,2.687500000000000444e+00,4.000000000000001776e+00,1.625000000000002220e+00,-4.812500000000000888e+00,-1.137500000000000711e+01,3.499999999999999112e+00,2.168750000000001066e+01,-5.000000000000000000e-01,-2.356250000000001066e+01,4.812500000000003553e+00,2.793750000000001421e+01,4.562500000000001776e+00,-9.625000000000003553e+00,2.187500000000000888e+00,-2.187500000000001776e+00,-2.343750000000001066e+01,-2.287500000000001066e+01,9.937500000000003553e+00,2.718750000000001421e+01,1.156250000000000533e+01,1.000000000000000222e+00,-5.000000000000002665e+00,-5.687500000000002665e+00,5.687500000000002665e+00,-3.000000000000000888e+00,-1.393750000000000711e+01,2.125000000000000888e+00,1.562500000000000711e+01,1.612500000000000711e+01,8.375000000000003553e+00,-1.143750000000000533e+01,-1.825000000000000711e+01,3.937500000000001776e+00,1.381250000000000711e+01,-1.018750000000000533e+01,-1.975000000000001066e+01,-4.312500000000003553e+00,-1.312500000000000444e+00,-2.750000000000000888e+00,-3.687500000000002665e+00,-1.168750000000000711e+01,1.000000000000001776e+00,2.368750000000001421e+01,2.037500000000000711e+01,5.937500000000001776e+00,8.750000000000003331e-01,3.750000000000001110e-01,1.250000000000000555e-01,1.250000000000000555e-01,1.875000000000001110e-01,5.625000000000003331e-01,6.250000000000003331e-01,0.000000000000000000e+00,-6.250000000000008327e-02,-3.125000000000002220e-01,-1.687500000000000888e+00,-1.562500000000000888e+00,3.750000000000001665e-01,1.125000000000000444e+00,5.000000000000002220e-01,6.250000000000002776e-02,-6.250000000000002776e-02,-1.250000000000000555e-01,6.250000000000002776e-02,1.875000000000000833e-01,-1.250000000000000833e-01,-1.875000000000001110e-01,1.875000000000001110e-01,1.250000000000000833e-01,-6.250000000000002776e-02,3.125000000000001110e-01,4.375000000000002220e-01,-6.250000000000002776e-02,-3.125000000000002220e-01,6.250000000000002776e-02,7.500000000000003331e-01,9.375000000000004441e-01,2.312500000000000888e+00,6.812500000000002665e+00,4.125000000000001776e+00,-5.437500000000001776e+00,-4.562500000000001776e+00,-4.375000000000001776e+00,-9.625000000000003553e+00,-1.375000000000000888e+00,1.093750000000000533e+01,1.393750000000000711e+01,6.875000000000000000e-01,-1.712500000000000711e+01,-9.187500000000003553e+00,2.500000000000000888e+00,1.750000000000000444e+00,8.750000000000003553e+00,3.750000000000001776e+00,-1.012500000000000533e+01,-1.937500000000001776e+00,5.937500000000002665e+00,6.250000000000006661e-01,6.500000000000003553e+00,1.443750000000000711e+01,5.125000000000001776e+00,-6.000000000000003553e+00,-8.937500000000003553e+00,-7.437500000000003553e+00,-2.437500000000001332e+00,0.000000000000000000e+00,-3.062500000000000888e+00,-5.687500000000001776e+00,3.312500000000002665e+00,1.562500000000000711e+01,7.937500000000002665e+00,-2.937500000000001776e+00,1.499999999999999778e+00,-7.500000000000004441e-01,-7.750000000000003553e+00,-5.812500000000002665e+00,-5.625000000000004441e-01,2.500000000000000000e-01,-7.687500000000003553e+00,-5.375000000000003553e+00,8.375000000000003553e+00,8.937500000000003553e+00,-1.750000000000000888e+00,-5.000000000000001776e+00,1.812500000000001332e+00,-9.375000000000000000e-01,-1.112500000000000533e+01,-5.250000000000002665e+00,1.100000000000000533e+01,1.387500000000000533e+01,-1.062500000000000000e+00,-1.006250000000000355e+01,-7.500000000000003553e+00,-8.812500000000003553e+00,3.750000000000000888e+00,2.537500000000001066e+01,1.156250000000000533e+01,-1.462500000000000533e+01,-8.375000000000003553e+00,5.062500000000002665e+00,9.062500000000003553e+00,7.312500000000003553e+00,-1.050000000000000711e+01,-1.512500000000000888e+01,1.187500000000000533e+01,2.300000000000001066e+01,-5.937500000000003553e+00,-2.293750000000001066e+01,-1.625000000000000000e+00,8.000000000000003553e+00,-3.812500000000001776e+00,-9.312500000000003553e+00,-5.125000000000001776e+00,1.068750000000000533e+01,1.537500000000000711e+01,-2.937500000000001776e+00,-1.412500000000000711e+01,-5.500000000000002665e+00,6.250000000000000000e-02,-5.500000000000002665e+00,1.562500000000000888e+00,1.137500000000000533e+01,5.937500000000002665e+00,1.937500000000000888e+00,-3.375000000000000888e+00,-1.156250000000000533e+01,-1.750000000000001776e+00,6.187500000000002665e+00,-8.125000000000003553e+00,-7.750000000000002665e+00,1.356250000000000711e+01,2.006250000000000711e+01,2.750000000000001776e+00,-1.456250000000000533e+01,-5.000000000000001776e+00,1.056250000000000533e+01,1.093750000000000533e+01,3.937500000000001776e+00,-1.543750000000000711e+01,-2.281250000000001066e+01,1.125000000000000000e+00,1.706250000000000711e+01,6.187500000000002665e+00,-9.000000000000003553e+00,-1.056250000000000533e+01,3.125000000000000000e-01,2.812500000000000888e+00,-5.625000000000005551e-01,5.437500000000002665e+00,-4.374999999999991118e-01,-7.000000000000001776e+00,1.100000000000000711e+01,1.087500000000000711e+01,-1.256250000000000711e+01,-1.000000000000000533e+01,8.437500000000003553e+00,1.231250000000000533e+01,3.812500000000000888e+00,-7.312500000000003553e+00,-1.137500000000000355e+01,-5.375000000000001776e+00,6.125000000000003553e+00,1.118750000000000533e+01,1.625000000000000000e+00,-5.875000000000003553e+00,-9.375000000000004441e-01,5.187500000000002665e+00,1.687500000000000888e+00,-9.812500000000003553e+00,-5.812500000000002665e+00,3.250000000000001776e+00,-6.687500000000002665e+00,-6.625000000000003553e+00,7.000000000000001776e+00,8.625000000000003553e+00,5.625000000000004441e-01,-6.937500000000003553e+00,-2.000000000000001332e+00,8.625000000000003553e+00,2.437500000000000888e+00,-8.125000000000003553e+00,-3.000000000000000888e+00,3.000000000000001776e+00,6.875000000000002665e+00,1.050000000000000355e+01,0.000000000000000000e+00,-1.250000000000000533e+01,-1.256250000000000533e+01,8.125000000000008882e-01,1.450000000000000711e+01,5.687500000000001776e+00,-5.625000000000002665e+00,-5.250000000000002665e+00,-5.937500000000003553e+00,3.750000000000001776e+00,8.187500000000003553e+00,-5.062500000000003553e+00,-2.625000000000001776e+00,9.000000000000003553e+00,3.625000000000001776e+00,-8.125000000000003553e+00,-4.500000000000002665e+00,7.437500000000003553e+00,6.875000000000008882e-01,-5.000000000000001776e+00,1.875000000000000888e+00,-3.750000000000001776e+00,2.499999999999991118e-01,1.362500000000000533e+01,-1.437500000000000000e+00,-1.843750000000000711e+01,-7.687500000000002665e+00,6.687500000000002665e+00,7.750000000000002665e+00,6.000000000000002665e+00,8.500000000000003553e+00,1.874999999999991118e-01,-1.631250000000000711e+01,-1.100000000000000355e+01,5.375000000000001776e+00,8.750000000000003553e+00,1.162500000000000533e+01,5.000000000000002665e+00,-1.731250000000000711e+01,-1.187500000000000711e+01,1.562500000000000711e+01,1.237500000000000711e+01,-9.062500000000003553e+00,-1.562500000000000711e+01,-5.062500000000002665e+00,1.668750000000000711e+01,1.693750000000000711e+01,-1.243750000000000711e+01,-2.237500000000001066e+01,-1.000000000000000000e+00,1.162500000000000533e+01,1.025000000000000355e+01,6.187500000000002665e+00,-8.125000000000003553e+00,-8.312500000000003553e+00,5.000000000000001776e+00,-4.062500000000001776e+00,-5.125000000000001776e+00,1.356250000000000533e+01,2.875000000000000000e+00,-1.750000000000000711e+01,-1.500000000000000000e+00,1.362500000000000533e+01,-3.937500000000001776e+00,-8.937500000000003553e+00,1.243750000000000711e+01,1.037500000000000711e+01,-1.431250000000000711e+01,-1.262500000000000711e+01,1.100000000000000533e+01,1.793750000000000711e+01,1.812500000000000888e+00,-1.656250000000000711e+01,-1.218750000000000355e+01,1.143750000000000711e+01,1.293750000000000711e+01,-9.000000000000005329e+00,-7.875000000000004441e+00,4.062500000000001776e+00,2.562500000000001332e+00,6.312500000000001776e+00,-1.187500000000001776e+00,-1.418750000000000711e+01,1.062500000000000000e+00,1.187500000000000533e+01,-2.500000000000000000e-01,-9.625000000000003553e+00,-7.250000000000002665e+00,4.062500000000000888e+00,4.937500000000001776e+00,5.000000000000003331e-01,6.062500000000001776e+00,-1.062500000000000888e+00,-1.087500000000000355e+01,-3.000000000000000888e+00,6.000000000000002665e+00,6.125000000000002665e+00,-3.937500000000001776e+00,-1.131250000000000355e+01,-3.562500000000001332e+00,3.625000000000000888e+00,6.812500000000003553e+00,7.500000000000003553e+00,-7.937500000000001776e+00,-1.206250000000000355e+01,1.012500000000000355e+01,9.625000000000003553e+00,-1.106250000000000355e+01,-3.125000000000000888e+00,1.631250000000000711e+01,8.812500000000003553e+00,-1.293750000000000711e+01,-1.581250000000000711e+01,2.500000000000001776e+00,9.750000000000003553e+00,4.937500000000001776e+00,2.937500000000001332e+00,-9.875000000000003553e+00,-1.343750000000000533e+01,9.437500000000005329e+00,2.012500000000001066e+01,3.500000000000001776e+00,-7.500000000000003553e+00,-4.750000000000002665e+00,-7.625000000000003553e+00,-4.125000000000001776e+00,6.750000000000002665e+00,6.000000000000001776e+00,3.625000000000001332e+00,-2.750000000000000888e+00,-1.181250000000000533e+01,7.500000000000000000e-01,1.693750000000000711e+01,5.937500000000001776e+00,-1.412500000000000533e+01,-1.193750000000000355e+01,5.000000000000002665e+00,1.025000000000000533e+01,2.562500000000000888e+00,1.875000000000000666e+00,5.875000000000002665e+00,-6.562500000000001776e+00,-1.593750000000000711e+01,1.875000000000000000e+00,1.843750000000000711e+01,5.937500000000003553e+00,-1.362500000000000711e+01,-4.937500000000003553e+00,1.118750000000000533e+01,-2.562500000000000000e+00,-1.587500000000000711e+01,2.000000000000000000e+00,1.006250000000000355e+01,-9.437500000000005329e+00,-8.625000000000003553e+00,9.812500000000003553e+00,6.375000000000003553e+00,1.062500000000000888e+00,7.687500000000003553e+00,5.500000000000001776e+00,-4.937500000000001776e+00,-1.362500000000000533e+01,-5.187500000000001776e+00,1.575000000000000888e+01,1.006250000000000711e+01,-1.281250000000000711e+01,-7.562500000000004441e+00,7.750000000000003553e+00,1.750000000000001332e+00,-3.625000000000001776e+00,-2.687500000000001332e+00,-4.000000000000001776e+00,1.687500000000000888e+00,7.187500000000003553e+00,1.100000000000000533e+01,7.625000000000003553e+00,-6.375000000000003553e+00,-6.312500000000003553e+00,-2.062500000000000888e+00,-5.500000000000002665e+00,3.500000000000000888e+00,8.250000000000003553e+00,-2.562500000000000000e+00,-3.437500000000000000e+00,1.875000000000003331e-01,-1.375000000000000888e+00,-2.562500000000001776e+00,-1.068750000000000355e+01,-6.937500000000002665e+00,1.281250000000000711e+01,1.025000000000000533e+01,-8.125000000000002220e-01,2.250000000000000888e+00,-4.187500000000002665e+00,-1.000000000000000533e+01,-8.812500000000003553e+00,-1.793750000000001066e+01,-1.025000000000000533e+01,9.750000000000005329e+00,9.562500000000005329e+00,1.556250000000000711e+01,2.287500000000001421e+01,-5.312500000000001776e+00,-2.962500000000001421e+01,-8.062500000000003553e+00,1.956250000000001066e+01,1.456250000000000711e+01,4.250000000000001776e+00,9.500000000000005329e+00,7.250000000000003553e+00,-6.812500000000003553e+00,-1.237500000000000711e+01,-8.687500000000003553e+00,-1.875000000000001332e+00,4.625000000000001776e+00,-4.562500000000001776e+00,-1.381250000000000711e+01,4.312500000000000000e+00,1.618750000000000711e+01,-1.187500000000000888e+00,-1.081250000000000533e+01,-3.562500000000001776e+00,4.750000000000002665e+00,1.506250000000000711e+01,1.137500000000000355e+01,-8.937500000000003553e+00,-2.118750000000000711e+01,-1.350000000000000711e+01,1.393750000000000711e+01,2.150000000000001066e+01,-1.056250000000000355e+01,-2.081250000000001066e+01,6.250000000000000000e-02,6.687500000000003553e+00,7.687500000000003553e+00,1.062500000000000000e+00,-2.043750000000001066e+01,-1.325000000000000533e+01,1.206250000000000711e+01,6.000000000000003553e+00,-4.812500000000002665e+00,7.312500000000002665e+00,1.437500000000000888e+00,-2.087500000000001066e+01,-5.750000000000003553e+00,1.137500000000000711e+01,-6.812500000000002665e+00,-1.575000000000000711e+01,-7.875000000000003553e+00,7.000000000000003553e+00,2.237500000000001066e+01,1.900000000000001066e+01,7.312500000000003553e+00,1.500000000000000888e+00,1.250000000000000833e-01,2.500000000000001665e-01,6.250000000000005551e-02,-6.250000000000002776e-02,6.250000000000002776e-02,0.000000000000000000e+00,0.000000000000000000e+00,1.875000000000000833e-01,0.000000000000000000e+00,-1.250000000000000555e-01,2.500000000000001110e-01,4.375000000000002220e-01,1.875000000000001110e-01,-3.125000000000001665e-01,-6.250000000000003331e-01,-1.875000000000001110e-01,4.375000000000002220e-01,3.125000000000001665e-01,-1.875000000000001110e-01,-1.875000000000001110e-01,0.000000000000000000e+00,-6.250000000000002776e-02,0.000000000000000000e+00,1.250000000000000555e-01,0.000000000000000000e+00,-1.250000000000000555e-01,0.000000000000000000e+00,6.250000000000002776e-02,6.250000000000002776e-02,2.500000000000001110e-01,-6.250000000000000000e-02,-5.625000000000002220e-01,-6.250000000000005551e-02,5.625000000000002220e-01,3.125000000000001665e-01,-1.875000000000001110e-01,-1.250000000000000833e-01,3.125000000000001110e-01,-6.250000000000005551e-02,3.106250000000001421e+01,9.350000000000004263e+01,6.343750000000002842e+01
-1.332500000000000284e+02,2.325000000000000711e+01,-2.300000000000000711e+01,1.300000000000000355e+01,-1.425000000000000355e+01,2.750000000000000888e+00,1.500000000000000355e+01,-1.875000000000000355e+01,1.250000000000000355e+01,-1.000000000000000000e+00,-1.800000000000000355e+01,2.075000000000000711e+01,-9.500000000000003553e+00,1.750000000000000444e+00,1.250000000000000178e+01,-1.375000000000000355e+01,7.500000000000001776e+00,-1.925000000000000355e+01,1.375000000000000355e+01,3.500000000000000888e+00,-5.250000000000000888e+00,1.250000000000000000e+00,-7.500000000000000000e-01,1.700000000000000355e+01,-1.750000000000000355e+01,-2.250000000000000444e+00,1.325000000000000355e+01,-2.025000000000000711e+01,9.250000000000003553e+00,1.275000000000000178e+01,-1.600000000000000355e+01,5.000000000000008882e-01,8.750000000000001776e+00,3.250000000000000888e+00,-1.175000000000000355e+01,1.575000000000000355e+01,-1.750000000000000355e+01,1.600000000000000355e+01,-1.725000000000000355e+01,-1.750000000000000000e+00,2.100000000000000355e+01,-6.750000000000000888e+00,-1.975000000000000355e+01,2.925000000000000711e+01,-2.500000000000000711e+01,2.350000000000000711e+01,-3.500000000000000711e+01,3.175000000000000711e+01,-9.500000000000001776e+00,-1.750000000000000444e+00,8.500000000000001776e+00,-1.875000000000000711e+01,2.175000000000000711e+01,1.025000000000000178e+01,-2.325000000000000355e+01,-3.250000000000000888e+00,1.850000000000000355e+01,-1.150000000000000178e+01,1.500000000000000355e+01,-1.025000000000000355e+01,7.500000000000000000e-01,-3.250000000000000444e+00,-9.000000000000001776e+00,1.750000000000000355e+01,-3.250000000000000000e+00,-1.425000000000000355e+01,2.425000000000000711e+01,-3.225000000000000711e+01,2.750000000000000711e+01,1.425000000000000355e+01,-3.450000000000000711e+01,-2.500000000000000000e-01,1.350000000000000355e+01,-1.725000000000000355e+01,6.500000000000000888e+00,5.425000000000001421e+01,-7.275000000000001421e+01,3.225000000000000711e+01,-1.400000000000000355e+01,1.925000000000000355e+01,-2.850000000000000711e+01,2.500000000000000711e+01,-1.475000000000000355e+01,-1.425000000000000355e+01,2.950000000000000711e+01,-1.950000000000000355e+01,1.575000000000000355e+01,1.150000000000000178e+01,-3.750000000000000711e+01,2.700000000000000711e+01,-1.450000000000000355e+01,1.075000000000000355e+01,2.500000000000000888e+00,-1.025000000000000355e+01,9.250000000000003553e+00,-1.325000000000000355e+01,-7.500000000000001776e+00,2.800000000000000711e+01,-4.000000000000001421e+01,2.000000000000000711e+01,4.150000000000000711e+01,-5.075000000000001421e+01,1.875000000000000355e+01,-1.325000000000000178e+01,4.750000000000000888e+00,1.275000000000000355e+01,-1.850000000000000355e+01,2.125000000000000355e+01,-2.800000000000000711e+01,1.125000000000000178e+01,2.750000000000000711e+01,-2.400000000000000355e+01,1.500000000000000444e+00,-2.050000000000000355e+01,1.975000000000000355e+01,9.250000000000001776e+00,-1.400000000000000355e+01,-4.000000000000000000e+00,6.750000000000000888e+00,2.500000000000000000e-01,1.850000000000000355e+01,-9.750000000000003553e+00,-2.725000000000000355e+01,2.225000000000000355e+01,-3.250000000000000888e+00,1.350000000000000355e+01,-6.750000000000001776e+00,-3.200000000000000711e+01,4.175000000000001421e+01,-2.525000000000000711e+01,-7.500000000000000000e-01,1.600000000000000355e+01,6.500000000000001776e+00,-1.750000000000000000e+00,-2.975000000000000711e+01,2.450000000000000355e+01,1.025000000000000355e+01,-1.500000000000000355e+01,-9.750000000000003553e+00,1.525000000000000355e+01,-1.175000000000000178e+01,1.775000000000000355e+01,-1.025000000000000178e+01,6.250000000000001776e+00,-2.050000000000000355e+01,6.750000000000001776e+00,1.475000000000000355e+01,-1.575000000000000355e+01,1.625000000000000355e+01,-2.225000000000000711e+01,2.000000000000000355e+01,8.750000000000003553e+00,-2.575000000000000711e+01,1.900000000000000711e+01,5.750000000000000000e+00,-2.325000000000000355e+01,-2.500000000000000000e-01,1.625000000000000355e+01,-5.000000000000000888e+00,2.000000000000000444e+00,-5.250000000000001776e+00,5.750000000000001776e+00,-1.600000000000000355e+01,3.075000000000000711e+01,-1.950000000000000355e+01,-4.500000000000001776e+00,5.250000000000001776e+00,5.500000000000001776e+00,7.000000000000000888e+00,-7.500000000000000000e-01,-9.250000000000001776e+00,4.500000000000000888e+00,-1.500000000000000355e+01,1.250000000000000000e+00,1.650000000000000355e+01,-9.500000000000001776e+00,-8.750000000000001776e+00,1.775000000000000355e+01,1.050000000000000178e+01,-2.000000000000000355e+01,-2.475000000000000711e+01,2.800000000000000711e+01,2.375000000000000711e+01,-3.475000000000000711e+01,9.000000000000001776e+00,1.050000000000000178e+01,-1.900000000000000355e+01,1.100000000000000178e+01,4.500000000000001776e+00,1.000000000000000000e+00,-1.750000000000000355e+01,1.000000000000000178e+01,1.125000000000000178e+01,-1.450000000000000355e+01,8.500000000000001776e+00,-1.275000000000000355e+01,-4.250000000000001776e+00,2.200000000000000711e+01,-8.500000000000001776e+00,-6.250000000000000888e+00,1.575000000000000355e+01,-9.000000000000001776e+00,2.000000000000000444e+00,-1.825000000000000355e+01,1.050000000000000355e+01,1.300000000000000355e+01,-1.525000000000000355e+01,1.950000000000000711e+01,-3.275000000000000711e+01,2.050000000000000355e+01,1.875000000000000355e+01,-1.775000000000000355e+01,-2.050000000000000355e+01,3.925000000000000711e+01,-3.700000000000000711e+01,2.125000000000000355e+01,2.000000000000000888e+00,-1.575000000000000355e+01,4.250000000000000888e+00,1.200000000000000355e+01,-6.500000000000001776e+00,4.500000000000000888e+00,-1.225000000000000355e+01,-4.000000000000000000e+00,3.525000000000000711e+01,-3.750000000000001421e+01,3.750000000000001776e+00,7.500000000000001776e+00,-4.750000000000001776e+00,2.125000000000000711e+01,-6.500000000000001776e+00,-2.050000000000000711e+01,1.875000000000000711e+01,-2.750000000000000888e+00,-2.350000000000000355e+01,2.725000000000000711e+01,-3.000000000000000888e+00,-1.650000000000000355e+01,2.425000000000000711e+01,-2.425000000000000711e+01,2.650000000000000711e+01,-2.175000000000000711e+01,-8.750000000000001776e+00,3.775000000000000711e+01,-1.350000000000000178e+01,-1.900000000000000355e+01,1.000000000000000000e+00,2.750000000000000000e+00,1.950000000000000711e+01,-2.300000000000000711e+01,1.750000000000000000e+00,2.200000000000000711e+01,-1.425000000000000355e+01,7.250000000000001776e+00,-1.000000000000000355e+01,8.750000000000001776e+00,-1.050000000000000178e+01,-2.500000000000000888e+00,1.000000000000000178e+01,7.000000000000001776e+00,-1.225000000000000355e+01,-3.000000000000000888e+00,1.100000000000000355e+01,-7.250000000000001776e+00,1.450000000000000355e+01,-2.275000000000000711e+01,4.000000000000000000e+00,2.750000000000000711e+01,-2.050000000000000355e+01,-2.250000000000000444e+00,-1.225000000000000355e+01,2.700000000000000711e+01,-2.100000000000000711e+01,2.025000000000000711e+01,-1.400000000000000355e+01,-5.750000000000001776e+00,5.750000000000001776e+00,3.250000000000000888e+00,6.000000000000001776e+00,-1.100000000000000355e+01,-2.250000000000000888e+00,1.400000000000000355e+01,-6.750000000000001776e+00,-1.400000000000000355e+01,1.250000000000000355e+01,2.275000000000000355e+01,-3.800000000000000711e+01,1.775000000000000355e+01,5.000000000000000000e-01,9.750000000000003553e+00,-1.825000000000000355e+01,-2.500000000000000888e+00,1.975000000000000355e+01,-1.600000000000000355e+01,-1.125000000000000355e+01,5.925000000000001421e+01,-6.925000000000001421e+01,2.100000000000000711e+01,2.825000000000000355e+01,-3.825000000000000711e+01,2.275000000000000711e+01,-1.125000000000000355e+01,1.550000000000000355e+01,-1.000000000000000355e+01,-1.950000000000000355e+01,1.225000000000000355e+01,2.375000000000000355e+01,-3.075000000000000711e+01,4.375000000000001421e+01,-5.575000000000001421e+01,3.850000000000001421e+01,-3.200000000000000711e+01,2.725000000000000711e+01,-3.075000000000000711e+01,5.525000000000001421e+01,-2.575000000000000711e+01,-2.025000000000000355e+01,2.125000000000000355e+01,-2.400000000000000711e+01,2.525000000000000711e+01,-6.750000000000000888e+00,-9.250000000000001776e+00,2.525000000000000355e+01,-3.650000000000000711e+01,2.275000000000000711e+01,-7.500000000000008882e-01,-2.350000000000000355e+01,2.900000000000000711e+01,-1.475000000000000355e+01,1.275000000000000355e+01,-1.725000000000000355e+01,1.850000000000000355e+01,-1.875000000000000355e+01,5.000000000000000000e-01,8.750000000000001776e+00,1.775000000000000355e+01,-3.750000000000000711e+01,1.825000000000000355e+01,1.700000000000000355e+01,-2.475000000000000711e+01,1.675000000000000355e+01,-8.500000000000001776e+00,1.225000000000000355e+01,-7.250000000000002665e+00,-2.150000000000000355e+01,1.000000000000000178e+01,2.400000000000000711e+01,-6.750000000000001776e+00,-1.750000000000000355e+01,-6.000000000000001776e+00,2.400000000000000711e+01,1.000000000000001776e+00,-2.125000000000000711e+01,-3.500000000000001776e+00,3.025000000000000711e+01,2.500000000000000000e+00,-3.175000000000000711e+01,2.600000000000000711e+01,-1.025000000000000355e+01,-1.925000000000000355e+01,3.125000000000000711e+01,-3.475000000000000711e+01,2.200000000000000355e+01,1.675000000000000355e+01,-3.525000000000000711e+01,3.050000000000000711e+01,-3.175000000000000711e+01,1.200000000000000355e+01,1.650000000000000355e+01,-2.975000000000000711e+01,2.875000000000000711e+01,-2.500000000000000711e+01,1.000000000000000000e+00,2.250000000000000711e+01,-2.100000000000000355e+01,2.475000000000000711e+01,-2.200000000000000711e+01,1.725000000000000355e+01,-2.100000000000000711e+01,1.825000000000000355e+01,1.200000000000000355e+01,-2.625000000000000711e+01,2.450000000000000711e+01,4.500000000000000000e+00,-3.825000000000000711e+01,3.450000000000000711e+01,-9.500000000000001776e+00,-2.925000000000000711e+01,3.550000000000000711e+01,-2.675000000000000711e+01,-2.750000000000000000e+00,3.350000000000000711e+01,-2.300000000000000355e+01,-1.100000000000000355e+01,3.700000000000000711e+01,-1.675000000000000355e+01,-1.900000000000000355e+01,3.025000000000000711e+01,-2.100000000000000711e+01,-1.750000000000000000e+00,4.425000000000000711e+01,3.000000000000000000e+00,-4.175000000000000711e+01,-1.650000000000000355e+01,2.175000000000000355e+01,4.750000000000000888e+00,5.000000000000001776e+00,-3.075000000000000711e+01,4.700000000000001421e+01,-2.875000000000000711e+01,-5.000000000000001110e-01,5.000000000000001110e-01,-5.000000000000001110e-01,2.500000000000000555e-01,0.000000000000000000e+00,0.000000000000000000e+00,0.000000000000000000e+00,0.000000000000000000e+00,0.000000000000000000e+00,0.000000000000000000e+00,0.000000000000000000e+00,0.000000000000000000e+00,0.000000000000000000e+00,2.500000000000000555e-01,-7.500000000000002220e-01,7.500000000000002220e-01,-2.500000000000000555e-01,0.000000000000000000e+00,0.000000000000000000e+00,0.000000000000000000e+00,0.000000000000000000e+00,0.000000000000000000e+00,-2.500000000000000555e-01,5.000000000000001110e-01,-5.000000000000001110e-01,5.000000000000001110e-01,-7.500000000000002220e-01,1.250000000000000444e+00,-1.000000000000000222e+00,2.500000000000000555e-01,2.500000000000000555e-01,-5.000000000000001110e-01,5.000000000000001110e-01,-5.000000000000001110e-01,0.000000000000000000e+00,5.000000000000001110e-01,-2.500000000000000555e-01,0.000000000000000000e+00,0.000000000000000000e+00,-2.500000000000000555e-01,5.000000000000001110e-01,-2.500000000000000555e-01,0.000000000000000000e+00,0.000000000000000000e+00,2.500000000000000555e-01,-5.000000000000001110e-01,2.500000000000000555e-01,0.000000000000000000e+00,-5.000000000000001110e-01,7.500000000000002220e-01,-2.500000000000000555e-01,0.000000000000000000e+00,5.000000000000001110e-01,-7.500000000000002220e-01,2.500000000000000555e-01,0.000000000000000000e+00,0.000000000000000000e+00,0.000000000000000000e+00,0.000000000000000000e+00,0.000000000000000000e+00,0.000000000000000000e+00,0.000000000000000000e+00,0.000000000000000000e+00,0.000000000000000000e+00,-2.500000000000000555e-01,7.500000000000002220e-01,-1.000000000000000222e+00,-3.500000000000000888e+00,-1.400000000000000355e+01,2.200000000000000355e+01,-2.075000000000000355e+01,2.125000000000000355e+01,-1.850000000000000355e+01,1.400000000000000355e+01,-2.850000000000000711e+01,3.725000000000000711e+01,-1.500000000000000000e+00,-3.075000000000000711e+01,9.500000000000000000e+00,2.100000000000000711e+01,2.750000000000000000e+00,-3.250000000000000711e+01,3.825000000000000711e+01,-2.850000000000000711e+01,2.050000000000000711e+01,-4.025000000000000711e+01,2.000000000000000355e+01,1.650000000000000355e+01,-5.750000000000001776e+00,-7.000000000000001776e+00,2.275000000000000711e+01,-3.850000000000001421e+01,3.125000000000000711e+01,-7.500000000000008882e-01,-3.050000000000000711e+01,2.800000000000000711e+01,-1.300000000000000355e+01,1.525000000000000355e+01,-2.000000000000000000e+00,5.000000000000000888e+00,-2.250000000000000711e+01,7.000000000000001776e+00,1.600000000000000355e+01,-5.250000000000000888e+00,-2.525000000000000355e+01,2.075000000000000355e+01,-5.500000000000001776e+00,-1.350000000000000178e+01,2.400000000000000355e+01,-2.475000000000000355e+01,-2.500000000000000000e-01,2.025000000000000355e+01,-5.000000000000001110e-01,1.000000000000000222e+00,-2.500000000000000555e-01,5.000000000000001110e-01,-5.000000000000001110e-01,5.000000000000001110e-01,-2.500000000000000555e-01,0.000000000000000000e+00,7.500000000000002220e-01,-2.500000000000001110e-01,-7.500000000000002220e-01,1.500000000000000222e+00,-1.500000000000000222e+00,-1.000000000000000222e+00,1.000000000000000222e+00,2.500000000000000555e-01,0.000000000000000000e+00,0.000000000000000000e+00,0.000000000000000000e+00,0.000000000000000000e+00,-2.500000000000000555e-01,5.000000000000001110e-01,-2.500000000000000555e-01,-2.500000000000000555e-01,2.500000000000000555e-01,2.500000000000000555e-01,-5.000000000000001110e-01,2.500000000000000555e-01,5.000000000000001110e-01,-5.000000000000001110e-01,2.500000000000000555e-01,-5.000000000000001110e-01,7.500000000000002220e-01,-2.500000000000000555e-01,1.250000000000000444e+00,-2.250000000000000888e+00,1.100000000000000178e+01,-8.000000000000001776e+00,-9.750000000000001776e+00,2.350000000000000711e+01,-3.275000000000000711e+01,1.950000000000000355e+01,-4.250000000000000888e+00,2.000000000000000444e+00,1.600000000000000355e+01,-2.275000000000000711e+01,-6.000000000000001776e+00,2.600000000000000711e+01,-2.975000000000000711e+01,1.975000000000000355e+01,8.500000000000003553e+00,-2.450000000000000711e+01,1.275000000000000355e+01,1.750000000000000444e+00,-1.750000000000000444e+00,-6.250000000000000888e+00,1.825000000000000355e+01,-4.250000000000001776e+00,-8.000000000000001776e+00,1.125000000000000178e+01,-2.225000000000000355e+01,2.200000000000000355e+01,-2.125000000000000355e+01,2.100000000000000355e+01,-2.225000000000000355e+01,1.375000000000000178e+01,-7.000000000000001776e+00,2.675000000000000355e+01,-3.525000000000000711e+01,2.650000000000000711e+01,-6.250000000000001776e+00,-1.375000000000000355e+01,1.875000000000000711e+01,-2.500000000000000711e+01,2.550000000000000711e+01,-1.550000000000000355e+01,-8.750000000000001776e+00,2.025000000000000355e+01,-1.350000000000000355e+01,1.650000000000000355e+01,-2.150000000000000355e+01,1.375000000000000355e+01,1.500000000000000000e+00,-1.175000000000000355e+01,7.500000000000008882e-01,3.250000000000000444e+00,7.000000000000001776e+00,5.250000000000000888e+00,-2.125000000000000355e+01,1.800000000000000355e+01,-1.275000000000000355e+01,-7.250000000000001776e+00,1.950000000000000711e+01,1.350000000000000178e+01,-2.775000000000000711e+01,5.500000000000001776e+00,1.250000000000000178e+01,-1.900000000000000355e+01,2.700000000000000711e+01,-1.325000000000000355e+01,-1.625000000000000355e+01,1.350000000000000178e+01,9.000000000000001776e+00,8.750000000000001776e+00,-3.475000000000000711e+01,1.325000000000000355e+01,1.975000000000000355e+01,-3.475000000000000711e+01,3.425000000000000711e+01,-3.600000000000000711e+01,2.050000000000000355e+01,1.125000000000000355e+01,-1.550000000000000355e+01,1.000000000000000178e+01,-2.425000000000000711e+01,3.125000000000000711e+01,-2.600000000000000711e+01,3.750000000000000000e+00,1.825000000000000355e+01,-1.650000000000000355e+01,1.300000000000000355e+01,-6.000000000000001776e+00,1.500000000000000222e+00,-1.900000000000000355e+01,3.175000000000000711e+01,-2.000000000000000355e+01,-1.125000000000000355e+01,2.450000000000000711e+01,-1.325000000000000355e+01,2.525000000000000355e+01,-2.800000000000000711e+01,0.000000000000000000e+00,2.200000000000000711e+01,-2.125000000000000711e+01,2.325000000000000711e+01,-9.750000000000001776e+00,-2.175000000000000711e+01,1.200000000000000355e+01,7.000000000000001776e+00,1.250000000000000000e+00,-5.000000000000000888e+00,-2.750000000000000444e+00,-7.000000000000001776e+00,2.100000000000000355e+01,-2.475000000000000711e+01,1.500000000000000355e+01,9.250000000000001776e+00,-2.725000000000000711e+01,1.650000000000000355e+01,1.750000000000000355e+01,-2.525000000000000711e+01,7.500000000000000000e-01,1.175000000000000355e+01,-8.000000000000001776e+00,1.750000000000000355e+01,-2.050000000000000355e+01,1.250000000000000355e+01,-1.825000000000000355e+01,1.700000000000000355e+01,-9.500000000000001776e+00,2.100000000000000355e+01,-3.200000000000000711e+01,2.950000000000000711e+01,-2.400000000000000711e+01,2.225000000000000711e+01,-1.025000000000000355e+01,-1.925000000000000355e+01,3.425000000000000711e+01,-2.600000000000000711e+01,-1.250000000000000000e+00,1.650000000000000355e+01,-1.525000000000000355e+01,2.100000000000000711e+01,-2.275000000000000711e+01,1.175000000000000178e+01,-7.000000000000001776e+00,1.950000000000000355e+01,-2.575000000000000711e+01,1.200000000000000178e+01,3.000000000000000888e+00,-1.250000000000000355e+01,2.175000000000000711e+01,-8.500000000000003553e+00,-7.500000000000001776e+00,6.500000000000001776e+00,-1.875000000000000355e+01,2.425000000000000711e+01,2.500000000000000000e-01,-2.000000000000000355e+01,2.300000000000000355e+01,-1.975000000000000355e+01,-2.500000000000000000e-01,2.375000000000000711e+01,-2.250000000000000711e+01,1.000000000000000000e+00,1.600000000000000355e+01,-1.425000000000000355e+01,1.550000000000000355e+01,-2.700000000000000711e+01,2.350000000000000711e+01,2.250000000000000000e+00,-2.775000000000000711e+01,3.325000000000000711e+01,-1.900000000000000355e+01,-7.250000000000000888e+00,2.275000000000000711e+01,-3.750000000000001776e+00,-1.900000000000000355e+01,9.000000000000001776e+00,-3.500000000000000444e+00,9.000000000000001776e+00,-5.250000000000001776e+00,3.000000000000000888e+00,1.100000000000000355e+01,-1.600000000000000355e+01,-8.000000000000000000e+00,1.575000000000000355e+01,-6.000000000000001776e+00,-1.000000000000000000e+00,2.000000000000000355e+01,-1.925000000000000355e+01,-1.300000000000000355e+01,1.925000000000000355e+01,1.050000000000000355e+01,-2.375000000000000711e+01,1.750000000000000355e+01,-2.500000000000000711e+01,1.700000000000000355e+01,1.550000000000000355e+01,-1.475000000000000355e+01,-9.250000000000001776e+00,-3.250000000000000000e+00,2.250000000000000355e+01,-2.275000000000000355e+01,2.475000000000000711e+01,-8.250000000000003553e+00,-2.225000000000000355e+01,2.975000000000000711e+01,-1.050000000000000355e+01,-1.925000000000000355e+01,2.700000000000000711e+01,-7.500000000000000000e-01,-1.725000000000000355e+01,-3.750000000000001776e+00,2.450000000000000711e+01,-1.175000000000000355e+01,-1.325000000000000355e+01,1.350000000000000355e+01,1.225000000000000355e+01,-1.550000000000000355e+01,-1.075000000000000355e+01,1.625000000000000355e+01,-1.250000000000000444e+00,1.000000000000000355e+01,-1.500000000000000355e+01,-4.000000000000000888e+00,1.000000000000000000e+00,2.125000000000000711e+01,-1.425000000000000355e+01,-1.875000000000000355e+01,3.850000000000000711e+01,-3.725000000000000711e+01,2.350000000000000711e+01,4.500000000000000000e+00,-2.325000000000000355e+01,4.500000000000000000e+00,2.325000000000000711e+01,-2.725000000000000711e+01,2.225000000000000355e+01,-2.400000000000000711e+01,9.750000000000003553e+00,1.425000000000000355e+01,-2.550000000000000711e+01,2.125000000000000711e+01,3.250000000000000000e+00,-2.850000000000000711e+01,3.075000000000000711e+01,-2.975000000000000711e+01,3.325000000000000711e+01,-2.500000000000000711e+01,1.325000000000000355e+01,-2.200000000000000355e+01,3.000000000000000711e+01,-3.025000000000000711e+01,3.025000000000000711e+01,-1.025000000000000355e+01,-1.950000000000000355e+01,1.700000000000000355e+01,1.150000000000000178e+01,-1.925000000000000355e+01,-2.000000000000000000e+00,1.625000000000000355e+01,0.000000000000000000e+00,-5.000000000000000888e+00,-7.750000000000001776e+00,-7.000000000000001776e+00,3.125000000000000711e+01,-3.700000000000000711e+01,3.525000000000000711e+01,-1.725000000000000355e+01,-1.400000000000000355e+01,1.600000000000000355e+01,0.000000000000000000e+00,1.500000000000000355e+01,-2.950000000000000711e+01,2.600000000000000711e+01,-1.700000000000000355e+01,-4.000000000000000888e+00,1.300000000000000355e+01,-2.500000000000000888e+00,-8.000000000000001776e+00,2.300000000000000711e+01,-3.250000000000000711e+01,1.550000000000000355e+01,1.750000000000000444e+00,1.000000000000000178e+01,-1.225000000000000178e+01,-9.750000000000001776e+00,1.425000000000000355e+01,-7.250000000000001776e+00,1.475000000000000355e+01,-2.175000000000000355e+01,2.350000000000000711e+01,-7.750000000000002665e+00,-1.425000000000000355e+01,5.000000000000000888e+00,9.250000000000001776e+00,5.250000000000000888e+00,-8.500000000000001776e+00,-1.575000000000000355e+01,2.925000000000000711e+01,-1.350000000000000355e+01,-5.250000000000001776e+00,-9.500000000000003553e+00,3.075000000000000711e+01,-2.350000000000000711e+01,-7.000000000000001776e+00,1.775000000000000355e+01,-2.500000000000000000e-01,-1.475000000000000355e+01,2.200000000000000355e+01,-1.200000000000000178e+01,6.000000000000000888e+00,-3.250000000000000444e+00,-1.675000000000000355e+01,2.000000000000000355e+01,6.750000000000002665e+00,-1.375000000000000355e+01,-8.500000000000001776e+00,1.825000000000000355e+01,-4.000000000000000888e+00,-1.475000000000000355e+01,2.550000000000000711e+01,-3.025000000000000711e+01,2.025000000000000355e+01,-2.750000000000000444e+00,-8.250000000000001776e+00,2.750000000000000355e+01,-2.575000000000000355e+01,4.250000000000000888e+00,1.025000000000000178e+01,-1.625000000000000355e+01,4.000000000000000000e+00,1.425000000000000355e+01,-1.225000000000000355e+01,-3.250000000000000888e+00,1.525000000000000355e+01,-2.050000000000000711e+01,1.650000000000000355e+01,-6.250000000000001776e+00,-1.750000000000000355e+01,1.925000000000000355e+01,8.750000000000003553e+00,-2.300000000000000711e+01,2.100000000000000355e+01,-3.500000000000000000e+00,-1.975000000000000711e+01,2.225000000000000711e+01,-1.750000000000000355e+01,-1.625000000000000711e+01,2.900000000000000711e+01,-1.175000000000000355e+01,-5.500000000000001776e+00,3.100000000000000711e+01,-1.075000000000000178e+01,-1.775000000000000355e+01,-4.250000000000001776e+00,1.700000000000000355e+01,7.000000000000001776e+00,-1.700000000000000355e+01,2.050000000000000711e+01,-8.000000000000003553e+00,8.000000000000003553e+00,-2.000000000000000711e+01,1.625000000000000355e+01,-1.850000000000000355e+01,1.375000000000000355e+01,3.500000000000000888e+00,-2.025000000000000711e+01,5.250000000000001776e+00,1.750000000000000355e+01,-6.750000000000000888e+00,-1.400000000000000355e+01,1.650000000000000355e+01,-1.575000000000000355e+01,1.250000000000000355e+01,1.150000000000000355e+01,-1.425000000000000355e+01,-7.500000000000002220e-01,-5.750000000000001776e+00,-1.175000000000000178e+01,4.475000000000001421e+01,-2.900000000000000711e+01,-1.375000000000000355e+01,1.950000000000000355e+01,-7.500000000000001776e+00,-2.750000000000000888e+00,1.850000000000000711e+01,-1.625000000000000355e+01,-2.325000000000000711e+01,3.750000000000000711e+01,-1.700000000000000355e+01,5.000000000000000000e-01,-2.750000000000000000e+00,1.925000000000000355e+01,-1.625000000000000355e+01,-3.425000000000000711e+01,7.675000000000001421e+01,-7.875000000000001421e+01,5.325000000000000711e+01,-4.050000000000000711e+01,1.775000000000000355e+01,6.250000000000002665e+00,5.250000000000000888e+00,5.000000000000001110e-01,-2.500000000000000555e-01,0.000000000000000000e+00,2.500000000000000555e-01,0.000000000000000000e+00,-2.500000000000000555e-01,2.500000000000000555e-01,0.000000000000000000e+00,-2.500000000000000555e-01,2.500000000000000555e-01,2.500000000000000555e-01,-7.500000000000002220e-01,7.500000000000002220e-01,-2.500000000000000555e-01,2.500000000000000555e-01,0.000000000000000000e+00,-5.000000000000001110e-01,0.000000000000000000e+00,2.500000000000000555e-01,2.500000000000000555e-01,-2.500000000000000555e-01,-2.500000000000000555e-01,5.000000000000001110e-01,-5.000000000000001110e-01,2.500000000000000555e-01,0.000000000000000000e+00,0.000000000000000000e+00,0.000000000000000000e+00,-2.500000000000000555e-01,5.000000000000001110e-01,-5.000000000000001110e-01,2.500000000000000555e-01,5.000000000000001110e-01,-1.000000000000000222e+00,2.500000000000000555e-01,5.000000000000001110e-01,-2.500000000000000555e-01,2.500000000000000555e-01,-5.000000000000001110e-01,2.500000000000000555e-01,7.500000000000002220e-01,-1.500000000000000444e+00,7.500000000000002220e-01,1.270000000000000284e+02
