2.636888750000001664e+02,2.658920000000001664e+02,2.665013750000001664e+02,2.683138750000001664e+02,2.684232500000001664e+02,2.680482500000001664e+02,2.650326250000001664e+02,2.574857500000001664e+02,2.518607500000001664e+02,2.459857500000001664e+02,2.399701250000001664e+02,2.306576250000001664e+02,2.208138750000001664e+02,2.111107500000001664e+02,2.029388750000001664e+02,1.966420000000001664e+02,1.884388750000001380e+02,1.798451250000001096e+02,1.707513750000000812e+02,1.643763750000000812e+02,1.582045000000000812e+02,1.510795000000000812e+02,1.440951250000000812e+02,1.375170000000000812e+02,1.304076250000000812e+02,1.237670000000000812e+02,1.173451250000000812e+02,1.095326250000000812e+02,1.020951250000000812e+02,9.464200000000008117e+01,8.636075000000005275e+01,7.761075000000003854e+01,6.978262500000003854e+01,6.122012500000003854e+01,5.297012500000003854e+01,4.325137500000002433e+01,3.304825000000001722e+01,2.282950000000001012e+01,1.168887500000000301e+01,-6.548750000000040927e-01,-1.407675000000001120e+01,-2.773300000000001830e+01,-4.401425000000003251e+01,-6.051425000000004673e+01,-7.854550000000006094e+01,-9.715487500000007515e+01,-1.157798750000000894e+02,-1.346236250000000894e+02,-1.543892500000000894e+02,-1.749517500000001178e+02,-1.932642500000001746e+02,-2.095611250000001746e+02,-2.253423750000001746e+02,-2.410767500000001746e+02,-2.557173750000001746e+02,-2.706392500000001746e+02,-2.843580000000001746e+02,-2.970611250000001746e+02,-3.105923750000001746e+02,-3.249517500000001746e+02,-3.386861250000001746e+02,-3.517955000000001746e+02,-3.644048750000001746e+02,-3.749517500000001746e+02,-3.849673750000002883e+02,-3.929830000000002883e+02,-3.999361250000002883e+02,-4.057955000000003452e+02,-4.103736250000003452e+02,-4.135455000000003452e+02,-4.163736250000003452e+02,-4.186705000000003452e+02,-4.204830000000003452e+02,-4.235455000000003452e+02,-4.252955000000003452e+02,-4.272642500000003452e+02,-4.291236250000003452e+02,-4.311861250000003452e+02,-4.337798750000003452e+02,-4.363580000000003452e+02,-4.376705000000003452e+02,-4.383423750000003452e+02,-4.400298750000003452e+02,-4.409830000000003452e+02,-4.417642500000003452e+02,-4.427486250000003452e+02,-4.422486250000003452e+02,-4.419048750000003452e+02,-4.432330000000003452e+02,-4.444517500000003452e+02,-4.452330000000003452e+02,-4.464205000000003452e+02,-4.476705000000003452e+02,-4.488267500000003452e+02,-4.512955000000003452e+02,-4.537017500000003452e+02,-4.548580000000003452e+02,-4.558892500000003452e+02,-4.569673750000003452e+02,-4.576392500000003452e+02,-4.574205000000003452e+02,-4.568111250000003452e+02,-4.544205000000003452e+02,-4.514361250000003452e+02,-4.481705000000003452e+02,-4.436392500000003452e+02,-4.382017500000003452e+02,-4.323267500000003452e+02,-4.271080000000003452e+02,-4.214205000000003452e+02,-4.177486250000003452e+02,-4.141236250000003452e+02,-4.119673750000003452e+02,-4.124517500000003452e+02,-4.138736250000003452e+02,-4.162486250000003452e+02,-4.199048750000003452e+02,-4.246861250000003452e+02,-4.281861250000003452e+02,-4.330611250000003452e+02,-4.373736250000003452e+02,-4.403267500000003452e+02,-4.437330000000003452e+02,-4.469986250000003452e+02,-4.491705000000003452e+02,-4.511861250000003452e+02,-4.540923750000003452e+02,-4.560767500000003452e+02,-4.578111250000003452e+02,-4.595611250000003452e+02,-4.606705000000003452e+02,-4.615455000000003452e+02,-4.624361250000003452e+02,-4.629830000000003452e+02,-4.629986250000003452e+02,-4.629830000000003452e+02,-4.623892500000003452e+02,-4.608892500000003452e+02,-4.590767500000003452e+02,-4.556080000000003452e+02,-4.505298750000003452e+02,-4.441236250000003452e+02,-4.360767500000003452e+02,-4.262642500000003452e+02,-4.151548750000002883e+02,-4.038423750000002883e+02,-3.909361250000002883e+02,-3.780142500000002315e+02,-3.648111250000001746e+02,-3.515455000000001746e+02,-3.383111250000001746e+02,-3.249205000000001746e+02,-3.120767500000001746e+02,-2.981705000000001746e+02,-2.844673750000001746e+02,-2.718111250000001746e+02,-2.594986250000001746e+02,-2.460298750000001746e+02,-2.317642500000001746e+02,-2.171548750000001746e+02,-2.019673750000001746e+02,-1.879673750000001746e+02,-1.735611250000001178e+02,-1.570298750000000894e+02,-1.413111250000000894e+02,-1.268736250000000894e+02,-1.138267500000000894e+02,-1.021861250000000894e+02,-9.081112500000007515e+01,-7.879550000000006094e+01,-6.746737500000004673e+01,-5.767050000000004673e+01,-4.651425000000003251e+01,-3.438925000000002541e+01,-2.110800000000001830e+01,-7.186125000000009422e+00,7.376375000000001236e+00,2.292325000000001012e+01,3.839200000000002433e+01,5.440762500000003143e+01,7.014200000000003854e+01,8.511075000000005275e+01,9.979825000000006696e+01,1.147670000000000812e+02,1.292357500000000812e+02,1.429232500000000812e+02,1.577357500000000812e+02,1.730951250000001096e+02,1.884076250000001664e+02,2.031420000000001664e+02,2.171732500000001664e+02,2.315482500000001664e+02,2.448920000000001664e+02,2.578607500000001664e+02,2.692670000000001664e+02,2.796420000000001664e+02,2.900013750000001664e+02,3.012670000000001664e+02,3.136263750000001664e+02,3.257513750000001664e+02,3.393920000000001664e+02,3.537982500000001664e+02,3.696263750000001664e+02,3.853138750000002801e+02,4.007513750000002801e+02,4.159388750000002801e+02,4.292670000000002801e+02,4.419545000000003938e+02,4.532982500000003938e+02,4.628763750000003938e+02,4.710795000000003938e+02,4.796576250000003938e+02,4.876732500000003938e+02,4.951576250000003938e+02,5.032513750000003938e+02,5.102513750000003938e+02,5.166732500000003938e+02,5.229545000000003938e+02,5.283138750000003938e+02,5.322045000000003938e+02,5.351732500000003938e+02,5.371107500000003938e+02,5.380326250000003938e+02,5.387826250000003938e+02,5.392045000000003938e+02,5.392982500000003938e+02,5.393607500000003938e+02,5.394232500000003938e+02,5.394857500000003938e+02,5.395795000000003938e+02,5.396576250000003938e+02,5.397357500000003938e+02,5.398138750000003938e+02,5.399388750000003938e+02,5.400638750000003938e+02,5.401888750000003938e+02,5.402982500000003938e+02,5.403763750000003938e+02,5.404701250000003938e+02,5.405795000000003938e+02,5.406732500000003938e+02,5.407357500000003938e+02,5.407826250000003938e+02,5.408138750000003938e+02,5.408607500000003938e+02,5.409232500000003938e+02,5.409701250000003938e+02,5.410013750000003938e+02,5.410326250000003938e+02,5.410638750000003938e+02,5.410951250000003938e+02,5.411263750000003938e+02,5.411420000000003938e+02,5.411263750000003938e+02,5.410795000000003938e+02,5.410482500000003938e+02,5.410013750000003938e+02,5.409701250000003938e+02,5.409388750000003938e+02,5.409232500000003938e+02,5.409076250000003938e+02,5.409076250000003938e+02,5.409701250000003938e+02,5.410013750000003938e+02,5.410638750000003938e+02,5.411107500000003938e+02,5.411576250000003938e+02,5.411732500000003938e+02,5.411732500000003938e+02,5.411888750000003938e+02,5.411732500000003938e+02,5.411732500000003938e+02,5.411420000000003938e+02,5.410951250000003938e+02,5.410326250000003938e+02,5.409545000000003938e+02,5.408920000000003938e+02,5.407982500000003938e+02,5.406732500000003938e+02,5.405326250000003938e+02,5.403920000000003938e+02,5.402201250000003938e+02,5.400326250000003938e+02,5.398607500000003938e+02,5.395951250000003938e+02,5.392357500000003938e+02,5.387982500000003938e+02,5.377201250000003938e+02,5.356107500000003938e+02,5.319545000000003938e+02,5.263920000000003938e+02,5.191107500000003938e+02,5.092201250000003938e+02,4.970638750000003938e+02,4.822201250000003938e+02,4.647982500000003938e+02,4.456576250000003938e+02,4.251732500000003938e+02,4.040013750000003370e+02,3.825013750000002801e+02,3.641888750000001664e+02,3.486263750000001664e+02,3.313138750000001664e+02,3.125482500000001664e+02,2.910482500000001664e+02,2.687045000000001664e+02,2.448920000000001664e+02,2.178451250000001664e+02,1.840170000000001096e+02,1.427826250000000812e+02,1.050326250000000528e+02,7.217325000000003854e+01,4.479825000000002433e+01,2.057950000000001012e+01,1.888749999999941309e-01,-1.560800000000001653e+01,-2.548300000000002541e+01,-2.906112500000002541e+01,-3.213925000000002541e+01,-3.679550000000002541e+01,-4.126425000000002541e+01,-4.554550000000003251e+01,-5.065487500000004673e+01,-5.476425000000004673e+01,-5.887362500000004673e+01,-6.245175000000004673e+01,-6.598300000000004673e+01,-6.721737500000004673e+01,-6.902987500000004673e+01,-6.973300000000004673e+01,-6.851425000000004673e+01,-6.726425000000004673e+01,-6.504550000000004673e+01,-6.195175000000004673e+01,-5.782675000000004673e+01,-5.592050000000004673e+01,-5.371737500000004673e+01,-5.406112500000004673e+01,-5.606112500000004673e+01,-5.909237500000004673e+01,-6.399862500000004673e+01,-7.073300000000004673e+01,-8.007675000000006094e+01,-8.895175000000006094e+01,-9.942050000000008936e+01,-1.081080000000000894e+02,-1.164986250000000894e+02,-1.252330000000000894e+02,-1.332486250000000894e+02,-1.409517500000000894e+02,-1.462486250000000894e+02,-1.504830000000000894e+02,-1.531861250000000894e+02,-1.564361250000000894e+02,-1.597642500000000894e+02,-1.629048750000000894e+02,-1.666236250000000894e+02,-1.698111250000000894e+02,-1.739986250000000894e+02,-1.801392500000000894e+02,-1.868892500000001178e+02,-1.932642500000001746e+02,-1.998580000000001746e+02,-2.063736250000001746e+02,-2.117642500000001746e+02,-2.177017500000001746e+02,-2.236548750000001746e+02,-2.280923750000001746e+02,-2.316080000000001746e+02,-2.349830000000001746e+02,-2.378111250000001746e+02,-2.397017500000001746e+02,-2.417017500000001746e+02,-2.424830000000001746e+02,-2.430767500000001746e+02,-2.431080000000001746e+02,-2.430298750000001746e+02,-2.437798750000001746e+02,-2.446236250000001746e+02,-2.462798750000001746e+02,-2.483111250000001746e+02,-2.507173750000001746e+02,-2.528423750000001746e+02,-2.556080000000001746e+02,-2.594673750000001746e+02,-2.617955000000001746e+02,-2.638267500000001746e+02,-2.641080000000001746e+02,-2.637330000000001746e+02,-2.640298750000001746e+02,-2.635298750000001746e+02,-2.629830000000001746e+02,-2.613892500000001746e+02,-2.601080000000001746e+02,-2.586548750000001746e+02,-2.581392500000001746e+02,-2.578892500000001746e+02,-2.567486250000001746e+02,-2.555611250000001746e+02,-2.537798750000001746e+02,-2.513892500000001746e+02,-2.494830000000001746e+02,-2.467798750000001746e+02,-2.445611250000001746e+02,-2.417798750000001746e+02,-2.389830000000001746e+02,-2.371392500000001746e+02,-2.349048750000001746e+02,-2.342173750000001746e+02,-2.329986250000001746e+02,-2.326392500000001746e+02,-2.322955000000001746e+02,-2.322330000000001746e+02,-2.320142500000001746e+02,-2.308267500000001746e+02,-2.311236250000001746e+02,-2.302955000000001746e+02,-2.304048750000001746e+02,-2.304048750000001746e+02,-2.297017500000001746e+02,-2.297486250000001746e+02,-2.297798750000001746e+02,-2.302955000000001746e+02,-2.298267500000001746e+02,-2.290298750000001746e+02,-2.271705000000001746e+02,-2.259673750000001746e+02,-2.242798750000001746e+02,-2.217486250000001746e+02,-2.193580000000001746e+02,-2.171392500000001746e+02,-2.149986250000001746e+02,-2.132330000000001746e+02,-2.113736250000001746e+02,-2.087486250000001746e+02,-2.070298750000001746e+02,-2.052955000000001746e+02,-2.034986250000001746e+02,-2.018736250000001746e+02,-1.994361250000001746e+02,-1.971080000000001746e+02,-1.954048750000001746e+02,-1.931392500000001746e+02,-1.903423750000001462e+02,-1.864986250000001178e+02,-1.818736250000000894e+02,-1.762486250000000894e+02,-1.715767500000000894e+02,-1.669048750000000894e+02,-1.616080000000000894e+02,-1.566548750000000894e+02,-1.518580000000000894e+02,-1.488580000000000894e+02,-1.476548750000000894e+02,-1.469048750000000894e+02,-1.450298750000000894e+02,-1.432486250000000894e+02,-1.412798750000000894e+02,-1.389673750000000894e+02,-1.366705000000000894e+02,-1.335611250000000894e+02,-1.287330000000000894e+02,-1.241236250000000894e+02,-1.209673750000000894e+02,-1.176861250000000894e+02,-1.146392500000000894e+02,-1.120767500000000894e+02,-1.094361250000000894e+02,-1.061392500000000894e+02,-1.030923750000000894e+02,-9.963925000000008936e+01,-9.526425000000008936e+01,-9.071737500000006094e+01,-8.585800000000004673e+01,-8.084237500000004673e+01,-7.592050000000004673e+01,-7.151425000000004673e+01,-6.774862500000004673e+01,-6.412362500000004673e+01,-6.110800000000004673e+01,-5.756112500000004673e+01,-5.449862500000004673e+01,-5.240487500000004673e+01,-5.024862500000004673e+01,-4.873300000000004673e+01,-4.787362500000003962e+01,-4.651425000000003251e+01,-4.429550000000002541e+01,-4.359237500000002541e+01,-4.354550000000002541e+01,-4.271737500000002541e+01,-4.202987500000002541e+01,-4.027987500000002541e+01,-3.759237500000002541e+01,-3.560800000000002541e+01,-3.431112500000002541e+01,-3.232675000000002541e+01,-2.993612500000002541e+01,-2.698300000000002541e+01,-2.385800000000002541e+01,-2.246737500000001830e+01,-2.129550000000001830e+01,-2.067050000000001475e+01,-2.088925000000001475e+01,-2.049862500000001475e+01,-2.024862500000001475e+01,-2.062362500000001475e+01,-2.146737500000001475e+01,-2.052987500000001475e+01,-1.912362500000001475e+01,-1.740487500000001475e+01,-1.398300000000001475e+01,-1.088925000000001120e+01,-7.514250000000009422e+00,-4.951750000000006757e+00,-2.139250000000005425e+00,4.824999999999585870e-02,1.095124999999996573e+00,3.220124999999997684e+00,3.985749999999998572e+00,3.751374999999998572e+00,4.157624999999998572e+00,6.079500000000000348e+00,8.813875000000001236e+00,1.059512500000000301e+01,1.372012500000000479e+01,1.589200000000000657e+01,1.878262500000001012e+01,2.243887500000001012e+01,2.556387500000001722e+01,2.712637500000001722e+01,2.709512500000001722e+01,2.865762500000001722e+01,2.906387500000001722e+01,2.953262500000001722e+01,2.940762500000001722e+01,2.956387500000001722e+01,2.942325000000001722e+01,3.034512500000001722e+01,3.278262500000001722e+01,3.395450000000001722e+01,3.601700000000001722e+01,3.803262500000001722e+01,4.047012500000001722e+01,4.248575000000001722e+01,4.468887500000002433e+01,4.622012500000002433e+01,4.676700000000002433e+01,4.714200000000002433e+01,4.623575000000002433e+01,4.448575000000002433e+01,4.300137500000002433e+01,4.150137500000001722e+01,3.986075000000001722e+01,3.889200000000001722e+01,3.729825000000001722e+01,3.636075000000001722e+01,3.670450000000001722e+01,3.839200000000001722e+01,3.859512500000001722e+01,3.912637500000001722e+01,3.859512500000001722e+01,3.740762500000001722e+01,3.761075000000001722e+01,3.757950000000001722e+01,3.693887500000001722e+01,3.520450000000001722e+01,3.523575000000001722e+01,3.436075000000001722e+01,3.525137500000001722e+01,3.609512500000001722e+01,3.553262500000001722e+01,3.547012500000001722e+01,3.507950000000001722e+01,3.518887500000001722e+01,3.359512500000001722e+01,3.217325000000001722e+01,2.904825000000001722e+01,2.640762500000001722e+01,2.428262500000001367e+01,2.154825000000001012e+01,1.864200000000001012e+01,1.556387500000000657e+01,1.386075000000000657e+01,1.318887500000000657e+01,1.406387500000000657e+01,1.412637500000000657e+01,1.468887500000000657e+01,1.470450000000000657e+01,1.554825000000000657e+01,1.651700000000000657e+01,1.729825000000000657e+01,1.754825000000000657e+01,1.731387500000000657e+01,1.845450000000000657e+01,1.995450000000001012e+01,2.231387500000001012e+01,2.490762500000001722e+01,2.793887500000001722e+01,3.047012500000001722e+01,3.204825000000001722e+01,3.375137500000001722e+01,3.439200000000001722e+01,3.357950000000001722e+01,3.300137500000001722e+01,3.134512500000001722e+01,2.884512500000001722e+01,2.697012500000001722e+01,2.682950000000001722e+01,2.587637500000001722e+01,2.489200000000001722e+01,2.481387500000001722e+01,2.407950000000001367e+01,2.431387500000001367e+01,2.568887500000001722e+01,2.647012500000001722e+01,2.550137500000001722e+01,2.507950000000001722e+01,2.540762500000001722e+01,2.562637500000001722e+01,2.673575000000001722e+01,2.717325000000001722e+01,2.625137500000001722e+01,2.575137500000001722e+01,2.629825000000001722e+01,2.739200000000001722e+01,2.834512500000001722e+01,2.948575000000001722e+01,2.928262500000001722e+01,2.945450000000001722e+01,3.014200000000001722e+01,3.023575000000001722e+01,3.070450000000001722e+01,3.061075000000001722e+01,2.972012500000001722e+01,2.834512500000001722e+01,2.807950000000001722e+01,2.689200000000001722e+01,2.656387500000001722e+01,2.622012500000001722e+01,2.426700000000001722e+01,2.178262500000001012e+01,1.968887500000000657e+01,1.782950000000000657e+01,1.501700000000000657e+01,1.381387500000000479e+01,1.173575000000000301e+01,9.845125000000001236e+00,9.532625000000001236e+00,9.392000000000001236e+00,9.876375000000001236e+00,1.059512500000000124e+01,1.197012500000000301e+01,1.267325000000000657e+01,1.320450000000000657e+01,1.509512500000000657e+01,1.676700000000000657e+01,1.970450000000001012e+01,2.167325000000001012e+01,2.434512500000001367e+01,2.811075000000001722e+01,3.142325000000001722e+01,3.554825000000001722e+01,3.837637500000001722e+01,4.054825000000001722e+01,4.104825000000001722e+01,4.225137500000001722e+01,4.137637500000001722e+01,3.828262500000001722e+01,3.531387500000001722e+01,3.106387500000001722e+01,2.592325000000001367e+01,2.117325000000001012e+01,1.722012500000001012e+01,1.203262500000000301e+01,8.688875000000001236e+00,6.220124999999999460e+00,3.235749999999997684e+00,1.391999999999996795e+00,1.173249999999996573e+00,4.857499999999962403e-01,-2.955000000000042037e-01,7.669999999999965734e-01,1.110749999999996795e+00,1.204499999999996795e+00,2.095124999999997240e+00,2.954499999999997684e+00,3.173249999999998128e+00,3.579499999999998128e+00,4.798249999999998572e+00,4.829499999999998572e+00,4.329499999999998572e+00,5.204499999999999460e+00,6.173250000000000348e+00,6.173250000000000348e+00,6.376375000000000348e+00,7.392000000000001236e+00,6.985750000000001236e+00,7.360750000000001236e+00,9.063875000000001236e+00,9.579500000000003013e+00,1.107950000000000301e+01,1.384512500000000657e+01,1.636075000000000657e+01,1.912637500000000657e+01,2.317325000000001012e+01,2.654825000000001722e+01,2.990762500000001722e+01,3.442325000000001722e+01,3.715762500000001722e+01,3.950137500000001722e+01,4.278262500000001722e+01,4.465762500000002433e+01,4.593887500000002433e+01,4.839200000000003143e+01,4.995450000000003854e+01,5.006387500000003854e+01,5.095450000000003854e+01,5.122012500000003854e+01,4.932950000000003854e+01,4.740762500000003143e+01,4.453262500000002433e+01,3.956387500000002433e+01,3.434512500000001722e+01,2.882950000000001722e+01,2.243887500000001012e+01,1.554825000000000657e+01,1.018887500000000301e+01,4.766999999999999460e+00,3.607499999999964069e-01,-3.342375000000006313e+00,-7.764250000000009422e+00,-1.127987500000001120e+01,-1.454550000000001475e+01,-1.676425000000001475e+01,-1.954550000000001830e+01,-2.137362500000001830e+01,-2.332675000000002186e+01,-2.418612500000002186e+01,-2.367050000000002186e+01,-2.359237500000002186e+01,-2.232675000000001830e+01,-2.060800000000001830e+01,-1.904550000000001475e+01,-1.799862500000001475e+01,-1.612362500000001475e+01,-1.495175000000001475e+01,-1.404550000000001475e+01,-1.227987500000001120e+01,-1.242050000000001120e+01,-1.335800000000001475e+01,-1.274862500000001475e+01,-1.204550000000001120e+01,-1.242050000000001120e+01,-1.263925000000001297e+01,-1.270175000000001297e+01,-1.352987500000001475e+01,-1.207675000000001120e+01,-1.052987500000001120e+01,-9.826750000000011198e+00,-8.733000000000009422e+00,-7.154875000000007645e+00,-5.451750000000006757e+00,-2.811125000000005425e+00,7.357499999999967955e-01,3.032624999999998128e+00,6.141999999999999460e+00,8.032625000000001236e+00,9.610750000000003013e+00,1.059512500000000301e+01,1.029825000000000301e+01,9.017000000000003013e+00,5.938874999999999460e+00,2.345124999999997240e+00,-1.670500000000005425e+00,-4.576750000000007645e+00,-7.498625000000008534e+00,-9.076750000000009422e+00,-8.842375000000009422e+00,-9.451750000000009422e+00,-8.826750000000009422e+00,-7.326750000000009422e+00,-7.076750000000008534e+00,-6.389250000000007645e+00,-4.983000000000007645e+00,-4.498625000000007645e+00,-5.420500000000007645e+00,-5.358000000000007645e+00,-4.358000000000007645e+00,-3.654875000000006757e+00,-1.420500000000005425e+00,1.001374999999996795e+00,2.532624999999997684e+00,4.173249999999998572e+00,7.657625000000001236e+00,1.095450000000000301e+01,1.284512500000000479e+01,1.478262500000000657e+01,1.639200000000000657e+01,1.689200000000000657e+01,1.757950000000000657e+01,1.803262500000000657e+01,1.648575000000000657e+01,1.500137500000000657e+01,1.450137500000000657e+01,1.468887500000000657e+01,1.509512500000000657e+01,1.615762500000000657e+01,1.751700000000000657e+01,1.893887500000000657e+01,2.106387500000001012e+01,2.415762500000001722e+01,2.681387500000001722e+01,2.918887500000001722e+01,3.147012500000001722e+01,3.381387500000001722e+01,3.704825000000001722e+01,4.039200000000001722e+01,4.431387500000002433e+01,4.707950000000003143e+01,4.897012500000003854e+01,5.067325000000003854e+01,5.223575000000003854e+01,5.295450000000003854e+01,5.225137500000003854e+01,5.250137500000003854e+01,5.287637500000003854e+01,5.326700000000003854e+01,5.509512500000003854e+01,5.604825000000003854e+01,5.639200000000003854e+01,5.690762500000003854e+01,5.750137500000003854e+01,5.718887500000003854e+01,5.586075000000003854e+01,5.437637500000003854e+01,5.253262500000003854e+01,5.153262500000003854e+01,5.137637500000003854e+01,5.179825000000003854e+01,5.356387500000003854e+01,5.520450000000003854e+01,5.792325000000003854e+01,6.198575000000003854e+01,6.539200000000003854e+01,6.998575000000003854e+01,7.422012500000003854e+01,7.784512500000003854e+01,7.876700000000003854e+01,7.917325000000003854e+01,7.759512500000003854e+01,7.348575000000003854e+01,6.765762500000003854e+01,5.739200000000003854e+01,4.420450000000002433e+01,2.962637500000001722e+01,1.503262500000000479e+01,-1.686125000000005425e+00,-1.952987500000001830e+01,-3.793612500000002541e+01,-5.651425000000003962e+01,-7.296737500000004673e+01,-8.798300000000006094e+01,-1.041861250000000751e+02,-1.217173750000000894e+02,-1.383111250000000894e+02,-1.541080000000000894e+02,-1.692330000000001178e+02,-1.821236250000001178e+02,-1.979986250000001746e+02,-2.141392500000001746e+02,-2.278580000000001746e+02,-2.393423750000001746e+02,-2.511080000000001746e+02,-2.619986250000001746e+02,-2.736861250000001746e+02,-2.876236250000001746e+02,-2.955767500000001746e+02,-3.019673750000001746e+02,-3.068580000000001746e+02,-3.108892500000001746e+02,-3.129986250000001746e+02,-3.141861250000001746e+02,-3.129361250000001746e+02,-3.090767500000001746e+02,-3.082798750000001746e+02,-3.081392500000001746e+02,-3.100611250000001746e+02,-3.131861250000001746e+02,-3.155923750000001746e+02,-3.177955000000001746e+02,-3.202486250000001746e+02,-3.217955000000001746e+02,-3.202955000000001746e+02,-3.177330000000001746e+02,-3.129830000000001746e+02,-3.059205000000001746e+02,-2.979673750000001746e+02,-2.894361250000001746e+02,-2.796236250000001746e+02,-2.707642500000001746e+02,-2.645923750000001746e+02,-2.560611250000001746e+02,-2.465298750000001746e+02,-2.373111250000001746e+02,-2.290455000000001746e+02,-2.214048750000001746e+02,-2.129361250000001746e+02,-2.032330000000001746e+02,-1.910611250000001746e+02,-1.804048750000001178e+02,-1.704205000000001178e+02,-1.584205000000000894e+02,-1.439048750000000894e+02,-1.276392500000000894e+02,-1.131392500000000894e+02,-9.859237500000008936e+01,-8.374862500000006094e+01,-6.815487500000006094e+01,-5.340487500000003962e+01,-4.154550000000003251e+01,-3.109237500000002541e+01,-2.095175000000001830e+01,-8.389250000000009422e+00,4.735749999999998572e+00,1.776700000000001012e+01,3.011075000000001722e+01,4.322012500000002433e+01,5.914200000000003854e+01,7.437637500000005275e+01,8.884512500000006696e+01,1.008607500000000812e+02,1.109545000000000812e+02,1.193138750000000812e+02,1.278763750000000812e+02,1.364076250000000812e+02,1.420170000000000812e+02,1.464857500000000812e+02,1.515482500000000812e+02,1.582201250000000812e+02,1.654232500000000812e+02,1.739701250000000812e+02,1.817826250000001096e+02,1.905013750000001664e+02,2.010951250000001664e+02,2.132357500000001664e+02,2.250013750000001664e+02,2.350638750000001664e+02,2.441888750000001664e+02,2.516732500000001664e+02,2.595951250000001664e+02,2.651263750000001664e+02,2.688920000000001664e+02,2.720951250000001664e+02,2.743295000000001664e+02,2.767826250000001664e+02,2.814388750000001664e+02,2.864388750000001664e+02,2.900951250000001664e+02,2.944232500000001664e+02,2.992357500000001664e+02,3.037045000000001664e+02,3.075170000000001664e+02,3.099388750000001664e+02,3.084545000000001664e+02,3.055638750000001664e+02,3.022826250000001664e+02,2.979701250000001664e+02,2.919232500000001664e+02,2.845951250000001664e+02,2.781888750000001664e+02,2.733451250000001664e+02,2.698920000000001664e+02,2.675482500000001664e+02,2.669232500000001664e+02,2.673138750000001664e+02,2.682670000000001664e+02,2.699701250000001664e+02,2.705170000000001664e+02,2.696107500000001664e+02,2.700326250000001664e+02,2.710951250000001664e+02,2.696732500000001664e+02,2.660013750000001664e+02,2.633451250000001664e+02,2.605951250000001664e+02,2.576107500000001664e+02,2.553607500000001664e+02,2.512513750000001664e+02,2.461107500000001664e+02,2.431420000000001664e+02,2.425482500000001664e+02,2.413920000000001664e+02,2.412201250000001664e+02,2.429545000000001664e+02,2.445170000000001664e+02,2.480326250000001664e+02,2.518295000000001664e+02,2.553138750000001664e+02,2.599857500000001664e+02
6.015625000000004441e+00,-2.187500000000001332e+00,-5.421875000000002665e+00,2.078125000000001776e+00,3.531250000000002665e+00,1.190625000000000711e+01,1.535937500000001066e+01,8.093750000000003553e+00,8.218750000000003553e+00,2.593750000000001332e+00,-1.703125000000000888e+00,-2.265625000000000888e+00,-5.484375000000003553e+00,-4.281250000000002665e+00,1.562499999999977796e-02,3.625000000000002220e+00,4.078125000000002665e+00,2.359375000000001776e+00,-3.171875000000002220e+00,-6.734375000000005329e+00,-4.812500000000003553e+00,-2.937500000000001776e+00,7.968750000000006661e-01,4.437500000000003553e+00,3.109375000000002220e+00,2.062500000000001332e+00,1.671875000000000888e+00,-1.015625000000000444e+00,-8.906250000000004441e-01,6.250000000000004441e-01,9.375000000000019429e-02,1.531250000000000888e+00,2.671875000000001332e+00,9.843750000000004441e-01,5.468750000000002220e-01,3.906250000000002220e-01,-3.124999999999955591e-02,2.375000000000001776e+00,6.703125000000003553e+00,7.234375000000005329e+00,7.781250000000005329e+00,6.437500000000003553e+00,4.687500000000006661e-01,1.093750000000000444e+00,1.812500000000001776e+00,3.609375000000003553e+00,8.421875000000007105e+00,4.828125000000004441e+00,-3.124999999999955591e-02,-5.281250000000003553e+00,-1.159375000000000711e+01,-9.921875000000007105e+00,-6.640625000000005329e+00,-4.718750000000003553e+00,-2.656250000000000000e-01,1.156250000000000444e+00,1.375000000000000666e+00,4.578125000000002665e+00,4.546875000000002665e+00,8.437500000000005551e-01,-7.968750000000006661e-01,-5.687500000000003553e+00,-9.890625000000007105e+00,-7.156250000000005329e+00,-7.828125000000005329e+00,-6.750000000000005329e+00,-3.046875000000002665e+00,-5.687500000000003553e+00,-4.421875000000002665e+00,-1.437500000000000888e+00,-3.109375000000001776e+00,5.625000000000000000e-01,1.375000000000000666e+00,-9.375000000000006661e-01,1.750000000000000888e+00,2.812500000000000000e-01,2.031249999999997780e-01,9.531250000000003331e-01,-8.281250000000006661e-01,-6.250000000000004441e-01,-1.875000000000001332e+00,-1.453125000000001110e+00,-2.328125000000001332e+00,-3.500000000000001776e+00,-9.062500000000002220e-01,-7.968750000000001110e-01,1.453125000000001332e+00,3.921875000000002665e+00,1.062500000000000888e+00,3.437500000000003331e-01,1.875000000000003331e-01,-7.500000000000002220e-01,1.750000000000001332e+00,2.781250000000001776e+00,1.250000000000000888e+00,3.437500000000000000e-01,-1.812500000000001554e+00,-3.218750000000002665e+00,-3.078125000000002665e+00,-3.281250000000002665e+00,-2.750000000000001776e+00,-2.484375000000001776e+00,-3.312500000000002665e+00,-3.921875000000002665e+00,-4.500000000000003553e+00,-5.906250000000003553e+00,-3.968750000000002665e+00,-1.781250000000000888e+00,-6.249999999999955591e-02,5.250000000000003553e+00,7.015625000000004441e+00,8.390625000000003553e+00,1.054687500000000533e+01,8.656250000000005329e+00,6.515625000000004441e+00,5.328125000000003553e+00,2.046875000000000888e+00,-1.359375000000001110e+00,-1.859375000000001332e+00,-4.359375000000003553e+00,-5.109375000000003553e+00,-2.531250000000001776e+00,-1.562500000000001332e+00,5.156250000000003331e-01,2.500000000000001776e+00,1.640625000000001332e+00,-2.031249999999997780e-01,-1.531250000000000888e+00,-3.046875000000001776e+00,-3.234375000000002220e+00,-1.812500000000001332e+00,-1.062500000000000888e+00,-4.218750000000003331e-01,-1.250000000000001110e-01,-4.218750000000002776e-01,-3.750000000000002220e-01,-7.812500000000004441e-01,-2.031250000000000888e+00,-3.593750000000001776e+00,-7.000000000000003553e+00,-9.828125000000007105e+00,-1.048437500000000711e+01,-1.146875000000000888e+01,-7.593750000000005329e+00,-3.078125000000001776e+00,-5.156249999999993339e-01,4.390625000000003553e+00,3.281250000000002665e+00,1.015625000000000444e+00,-5.000000000000013323e-01,-4.796875000000004441e+00,-3.812500000000003553e+00,-1.343750000000001110e+00,4.375000000000001110e-01,3.984375000000002220e+00,4.328125000000002665e+00,1.828125000000001110e+00,8.593750000000006661e-01,-2.031250000000000888e+00,-6.390625000000005329e+00,-7.265625000000005329e+00,-8.078125000000005329e+00,-5.421875000000003553e+00,2.984375000000003109e+00,9.578125000000007105e+00,1.226562500000000711e+01,1.134375000000000888e+01,5.703125000000004441e+00,-1.734375000000000444e+00,-3.437500000000001776e+00,-3.890625000000002220e+00,-4.062500000000002665e+00,9.375000000000000000e-02,-1.718750000000001332e+00,-3.562500000000002665e+00,-3.546875000000001776e+00,-8.046875000000003553e+00,-6.031250000000003553e+00,-2.125000000000000888e+00,4.687499999999977796e-02,7.125000000000003553e+00,8.906250000000003553e+00,5.906250000000003553e+00,4.687500000000002665e+00,-2.531250000000001332e+00,-7.406250000000004441e+00,-6.218750000000003553e+00,-7.390625000000003553e+00,-2.140625000000000888e+00,3.500000000000001776e+00,5.031250000000003553e+00,9.968750000000007105e+00,9.500000000000007105e+00,5.906250000000003553e+00,3.500000000000001332e+00,-2.187500000000002220e+00,-5.484375000000004441e+00,-4.000000000000003553e+00,-4.296875000000002665e+00,-3.609375000000000888e+00,-2.812500000000000888e+00,-7.031250000000004441e+00,-6.546875000000004441e+00,-4.046875000000003553e+00,-8.593750000000008882e-01,8.453125000000005329e+00,1.375000000000000888e+01,1.462500000000000711e+01,1.334375000000000000e+01,5.328124999999992006e+00,-3.125000000000015987e+00,-6.265625000000011546e+00,-7.656250000000005329e+00,-4.453124999999995559e+00,2.140625000000015543e+00,5.015625000000014211e+00,7.343750000000010658e+00,8.062500000000008882e+00,5.953125000000004441e+00,4.875000000000003553e+00,3.468750000000002220e+00,1.968750000000001332e+00,1.296875000000000888e+00,6.093750000000004441e-01,1.875000000000001110e-01,-3.125000000000002776e-02,-1.562500000000001110e-01,-1.562500000000001110e-01,-9.375000000000006939e-02,-3.469446951953614189e-18,4.687500000000003469e-02,3.125000000000002776e-02,-4.687500000000003469e-02,-4.687500000000004163e-02,-4.687500000000004163e-02,-4.687500000000004857e-02,3.125000000000002082e-02,1.562500000000001388e-02,4.687500000000002776e-02,1.250000000000000833e-01,9.375000000000005551e-02,9.375000000000005551e-02,4.687500000000002776e-02,-4.687500000000002776e-02,-3.125000000000002082e-02,-3.125000000000002082e-02,-1.562500000000001041e-02,1.562500000000001041e-02,-1.562500000000001041e-02,1.562500000000001041e-02,4.687500000000002776e-02,7.812500000000005551e-02,1.250000000000000833e-01,7.812500000000005551e-02,6.250000000000004163e-02,3.125000000000002776e-02,1.562500000000001041e-02,4.687500000000002776e-02,-4.687500000000002776e-02,-9.375000000000006939e-02,-2.031250000000001665e-01,-2.656250000000002220e-01,-1.406250000000001110e-01,-4.687500000000004163e-02,1.406250000000001110e-01,2.187500000000001665e-01,1.718750000000001388e-01,9.375000000000008327e-02,-3.125000000000002082e-02,-4.687500000000002776e-02,-3.125000000000002082e-02,3.125000000000002776e-02,6.250000000000004163e-02,4.687500000000002776e-02,4.687500000000002776e-02,6.250000000000005551e-02,1.250000000000000833e-01,1.562500000000001110e-01,1.562500000000001110e-01,4.687500000000004163e-02,-6.250000000000002776e-02,-7.812500000000005551e-02,-7.812500000000008327e-02,9.375000000000005551e-02,2.968750000000001665e-01,4.062500000000002776e-01,5.937500000000004441e-01,1.234375000000000888e+00,2.656250000000002220e+00,5.562500000000004441e+00,1.006250000000001066e+01,1.390625000000001776e+01,1.679687500000002132e+01,1.607812500000002132e+01,1.104687500000001421e+01,6.656250000000004441e+00,9.218749999999922284e-01,-7.187500000000144329e-01,1.890624999999991118e+00,7.656249999999940048e-01,-7.343750000000024425e-01,-9.984375000000005329e+00,-2.035937500000001066e+01,-2.053125000000001066e+01,-7.781250000000003553e+00,2.406250000000001421e+01,5.256250000000002842e+01,6.504687500000004263e+01,5.018750000000002842e+01,7.859375000000003553e+00,-3.132812500000001776e+01,-5.859375000000003553e+01,-6.040625000000004263e+01,-4.350000000000002842e+01,-2.492187500000001421e+01,-5.750000000000004441e+00,1.687500000000001332e+00,6.578125000000004441e+00,8.656250000000007105e+00,3.500000000000001776e+00,2.531250000000001776e+00,-2.812500000000001332e+00,-6.203125000000003553e+00,-4.468750000000002665e+00,-4.921875000000002665e+00,-5.312500000000000000e-01,5.625000000000006661e-01,-7.812500000000000000e-02,-1.406250000000000000e-01,-5.750000000000003553e+00,-7.718750000000005329e+00,-7.781250000000005329e+00,-8.937500000000005329e+00,-3.031250000000001776e+00,1.656250000000000888e+00,4.250000000000002665e+00,1.067187500000000711e+01,1.170312500000000711e+01,1.332812500000000711e+01,1.379687500000000711e+01,9.203125000000005329e+00,4.187500000000002665e+00,-2.531250000000001332e+00,-5.156250000000003553e+00,-3.937500000000002665e+00,6.250000000000006661e-01,4.140625000000003553e+00,2.937500000000002220e+00,-2.921875000000001332e+00,-9.968750000000005329e+00,-1.242187500000000711e+01,-1.175000000000000711e+01,-4.109375000000001776e+00,1.953125000000001332e+00,4.468750000000003553e+00,7.734375000000005329e+00,4.640625000000003553e+00,3.953125000000002665e+00,4.203125000000002665e+00,1.093750000000000888e+00,1.656250000000000888e+00,2.187500000000000000e-01,-1.250000000000000666e+00,-9.218750000000006661e-01,-3.343750000000001776e+00,-3.406250000000002220e+00,-3.765625000000002665e+00,-3.765625000000002665e+00,-1.110223024625156540e-16,-5.625000000000004441e-01,-8.593750000000005551e-01,-1.656250000000000888e+00,-6.406250000000003553e+00,-5.250000000000003553e+00,-3.406250000000002665e+00,-1.125000000000001110e+00,4.046875000000002665e+00,4.859375000000003553e+00,3.953125000000002665e+00,3.671875000000002665e+00,2.265625000000001776e+00,1.171875000000000888e+00,2.171875000000001776e+00,-6.249999999999977796e-02,-2.703125000000001776e+00,-3.062500000000001776e+00,-5.531250000000003553e+00,-4.375000000000003553e+00,-3.750000000000002665e+00,-3.890625000000002665e+00,-2.390625000000001776e+00,-8.125000000000005551e-01,3.593750000000003109e+00,4.687500000000003553e+00,5.734375000000003553e+00,2.281250000000001776e+00,-4.593750000000002665e+00,-4.921875000000003553e+00,-7.296875000000003553e+00,-3.265625000000001332e+00,2.593750000000001776e+00,1.250000000000001110e+00,3.171875000000001776e+00,-6.093750000000008882e-01,-3.703125000000002665e+00,-8.125000000000006661e-01,9.374999999999983347e-02,4.046875000000002665e+00,6.859375000000005329e+00,4.890625000000003553e+00,1.781250000000001110e+00,-4.375000000000003331e-01,-4.437500000000002665e+00,-3.968750000000002665e+00,-9.687500000000007772e-01,-1.734375000000001332e+00,2.062500000000000888e+00,2.421875000000001332e+00,1.546875000000000888e+00,3.656250000000002665e+00,1.703125000000001110e+00,1.093750000000000833e-01,-1.812500000000001332e+00,-4.031250000000002665e+00,-5.640625000000003553e+00,-4.625000000000003553e+00,-2.140625000000001776e+00,-1.265625000000001110e+00,3.015625000000001776e+00,3.937500000000002665e+00,1.593750000000000888e+00,2.828125000000001776e+00,-1.625000000000000888e+00,-3.421875000000002220e+00,-6.093750000000005551e-01,-3.078125000000001776e+00,8.125000000000008882e-01,3.015625000000002220e+00,1.140625000000000888e+00,3.703125000000002220e+00,-2.500000000000000000e-01,-2.828125000000001332e+00,-3.531250000000002665e+00,-5.828125000000003553e+00,-2.734375000000001776e+00,-2.796875000000001776e+00,-2.234375000000000888e+00,-1.718750000000000888e+00,-3.265625000000001776e+00,1.687500000000001332e+00,5.296875000000003553e+00,8.312500000000005329e+00,1.081250000000000711e+01,5.734375000000003553e+00,1.484375000000000888e+00,-2.015625000000001332e+00,-5.921875000000003553e+00,-5.578125000000003553e+00,-6.453125000000003553e+00,-5.812500000000003553e+00,-3.046875000000001776e+00,-7.500000000000001110e-01,4.515625000000003553e+00,6.296875000000003553e+00,5.828125000000003553e+00,5.531250000000003553e+00,2.187500000000000000e-01,-2.609375000000002220e+00,-4.281250000000003553e+00,-7.765625000000005329e+00,-5.343750000000003553e+00,-3.718750000000001776e+00,-1.140625000000000000e+00,4.312500000000002665e+00,4.109375000000002665e+00,4.875000000000003553e+00,2.781250000000001776e+00,-1.734375000000001332e+00,-7.968750000000006661e-01,-1.500000000000001110e+00,8.281250000000000000e-01,4.015625000000002665e+00,2.484375000000001776e+00,2.078125000000001332e+00,6.875000000000005551e-01,3.281250000000003331e-01,1.656250000000001332e+00,2.250000000000001332e+00,1.484375000000000888e+00,-2.375000000000001776e+00,-3.703125000000002665e+00,-2.890625000000001776e+00,-1.828125000000001332e+00,2.796875000000002220e+00,2.437500000000001776e+00,-1.921875000000001332e+00,-2.468750000000001776e+00,-4.921875000000003553e+00,-2.687500000000001776e+00,4.000000000000002665e+00,4.859375000000003553e+00,6.062500000000003553e+00,5.250000000000003553e+00,1.406250000000000666e+00,6.406250000000003331e-01,3.906250000000001665e-01,-1.546875000000001332e+00,-3.265625000000002665e+00,-4.140625000000002665e+00,-6.921875000000003553e+00,-5.328125000000003553e+00,-2.937500000000001776e+00,-2.031250000000001332e+00,2.968750000000001332e+00,2.968750000000001332e+00,4.781250000000002665e+00,6.906250000000003553e+00,3.984375000000002665e+00,3.671875000000002665e+00,-9.062500000000004441e-01,-4.546875000000003553e+00,-5.390625000000003553e+00,-5.000000000000003553e+00,-1.671875000000001110e+00,-9.531250000000004441e-01,2.968750000000002220e-01,-6.250000000000005551e-01,-8.906250000000009992e-01,1.453125000000000888e+00,2.515625000000001776e+00,4.828125000000003553e+00,5.109375000000003553e+00,3.671875000000002665e+00,3.015625000000002220e+00,-2.031250000000004441e-01,-3.328125000000002665e+00,-3.484375000000002665e+00,-5.406250000000003553e+00,-2.828125000000001776e+00,4.843750000000001110e-01,-1.875000000000004996e-01,1.562500000000000666e+00,-1.015625000000000666e+00,-1.953125000000000888e+00,-2.812500000000000000e-01,2.031250000000003331e-01,4.359375000000002665e+00,4.812500000000002665e+00,4.625000000000002665e+00,5.156250000000002665e+00,2.218750000000001332e+00,2.390625000000001776e+00,1.328125000000000888e+00,-2.593750000000001332e+00,-4.937500000000003553e+00,-7.656250000000005329e+00,-7.781250000000005329e+00,-3.187500000000002665e+00,2.562500000000002220e+00,5.921875000000005329e+00,6.328125000000005329e+00,3.921875000000002665e+00,2.968750000000003331e-01,-1.906250000000001332e+00,-5.625000000000005551e-01,-1.109375000000000888e+00,-1.937500000000001554e+00,-7.187500000000005551e-01,-3.531250000000002665e+00,-1.671875000000001332e+00,4.843750000000002220e-01,6.718750000000002220e-01,3.296875000000002220e+00,2.937500000000001776e+00,2.765625000000001776e+00,1.609375000000000888e+00,1.343750000000000444e+00,1.656250000000001110e+00,1.859375000000001554e+00,3.484375000000002665e+00,1.343750000000001110e+00,-1.875000000000001332e+00,-4.421875000000002665e+00,-7.468750000000004441e+00,-6.296875000000003553e+00,-3.734375000000002220e+00,-2.421875000000001776e+00,2.031250000000002220e-01,1.375000000000000888e+00,3.281250000000002220e+00,5.437500000000003553e+00,5.281250000000003553e+00,2.218750000000001332e+00,-3.109375000000002220e+00,-8.000000000000005329e+00,-1.081250000000000711e+01,-7.734375000000005329e+00,-2.890625000000001776e+00,3.015625000000002220e+00,8.484375000000005329e+00,8.281250000000005329e+00,7.640625000000005329e+00,5.000000000000003553e+00,1.250000000000000888e+00,-4.687500000000005551e-02,-1.140625000000000888e+00,-1.015625000000000444e+00,-1.265625000000000888e+00,-1.062500000000000666e+00,-2.296875000000001332e+00,-4.562500000000002665e+00,-3.171875000000001776e+00,-1.250000000000000888e+00,1.828125000000000888e+00,5.390625000000003553e+00,3.796875000000002665e+00,-6.093749999999998890e-01,-3.687500000000001776e+00,-5.140625000000002665e+00,-1.921875000000000888e+00,2.656250000000001776e+00,4.218750000000002665e+00,3.765625000000002220e+00,-9.218750000000004441e-01,-3.031250000000001776e+00,-2.875000000000001776e+00,-3.640625000000002220e+00,1.562500000000000000e-01,-1.562500000000022204e-02,-3.125000000000004441e-01,3.812500000000001776e+00,3.593750000000001776e+00,4.625000000000003553e+00,4.406250000000003553e+00,-1.765625000000001332e+00,-4.703125000000003553e+00,-5.187500000000003553e+00,-3.625000000000003109e+00,2.453125000000000888e+00,6.046875000000003553e+00,6.937500000000004441e+00,4.234375000000002665e+00,5.781250000000006661e-01,-1.125000000000000444e+00,-3.250000000000001776e+00,-1.984375000000001332e+00,-2.531250000000001332e+00,-4.203125000000002665e+00,-4.203125000000002665e+00,-3.812500000000002665e+00,-1.609375000000001110e+00,7.968750000000006661e-01,3.734375000000002665e+00,1.906250000000001332e+00,5.625000000000005551e-01,-1.140625000000000444e+00,-5.625000000000003553e+00,-3.750000000000002220e+00,-4.656250000000003553e+00,-3.265625000000002220e+00,9.687500000000007772e-01,9.062500000000008882e-01,3.343750000000002665e+00,2.890625000000002665e+00,2.593750000000001776e+00,4.031250000000003553e+00,5.140625000000003553e+00,8.515625000000005329e+00,8.546875000000005329e+00,6.390625000000003553e+00,4.265625000000002665e+00,-1.468750000000000666e+00,-4.843750000000002665e+00,-4.453125000000002665e+00,-5.828125000000003553e+00,-3.796875000000002665e+00,-1.015625000000000666e+00,-1.593750000000001332e+00,-1.000000000000000888e+00,-6.562500000000005551e-01,-2.343750000000001776e+00,-2.812500000000001776e+00,-2.187500000000001332e+00,-2.343750000000001332e+00,-7.500000000000003331e-01,1.296875000000000888e+00,2.562500000000001776e+00,3.218750000000001776e+00,2.187500000000001332e+00,-9.375000000000011102e-02,-2.625000000000001776e+00,-3.187500000000001776e+00,-2.875000000000001776e+00,2.187500000000002220e-01,3.218750000000002665e+00,2.265625000000001776e+00,3.000000000000001776e+00,2.187500000000000000e-01,-3.656250000000002665e+00,-1.984375000000001332e+00,-3.125000000000001332e+00,-3.937500000000001776e+00,-1.203125000000000888e+00,-2.906250000000001776e+00,-4.109375000000002665e+00,-3.437500000000004441e-01,-1.562500000000000000e-01,1.546875000000000666e+00,5.593750000000003553e+00,2.734375000000001332e+00,1.265625000000000666e+00,4.843750000000000000e-01,-2.015625000000001776e+00,7.812500000000000000e-02,1.687500000000001110e+00,3.187500000000002220e+00,3.265625000000002220e+00,8.750000000000006661e-01,1.421875000000000666e+00,9.375000000000002220e-01,3.546875000000001776e+00,9.609375000000005329e+00,9.953125000000005329e+00,9.296875000000005329e+00,5.562500000000002665e+00,-4.421875000000002665e+00,-8.968750000000005329e+00,-1.035937500000000711e+01,-9.187500000000005329e+00,-7.812500000000000000e-01,2.859375000000001776e+00,5.218750000000004441e+00,4.796875000000003553e+00,-1.187500000000000222e+00,-2.218750000000000888e+00,-6.250000000000003553e+00,-6.359375000000003553e+00,-2.968750000000001776e+00,-4.421875000000002665e+00,-3.750000000000002220e-01,4.687499999999977796e-02,-2.656250000000001776e+00,6.249999999999988898e-02,-1.750000000000000888e+00,-1.546875000000000666e+00,3.078125000000001776e+00,2.218750000000001332e+00,3.500000000000002665e+00,2.921875000000002220e+00,-1.000000000000000666e+00,-4.375000000000003331e-01,-1.546875000000001110e+00,1.187500000000000666e+00,2.625000000000001776e+00,-4.687500000000007216e-01,8.437500000000002220e-01,-3.578125000000001776e+00,-4.593750000000002665e+00,-1.562500000000000347e-02,-2.968750000000001776e+00,-3.125000000000004441e-01,1.984375000000000888e+00,-2.468750000000001332e+00,9.531250000000006661e-01,-4.687500000000008882e-01,-4.640625000000003553e+00,-1.562500000000000666e+00,-2.765625000000001332e+00,1.843750000000002220e+00,9.921875000000007105e+00,1.303125000000000888e+01,1.443750000000001066e+01,9.328125000000007105e+00,6.093750000000000000e-01,-8.375000000000007105e+00,-1.153125000000000888e+01,-1.073437500000000711e+01,-7.968750000000005329e+00,-1.078125000000001110e+00,-9.375000000000000000e-02,3.125000000000000000e-02,2.156250000000001776e+00,1.593750000000001110e+00,3.781250000000002665e+00,5.500000000000003553e+00,2.578125000000001776e+00,-2.000000000000001332e+00,-5.437500000000004441e+00,-7.812500000000005329e+00,-5.328125000000003553e+00,6.250000000000000000e-02,1.765625000000001332e+00,3.859375000000002665e+00,1.093750000000000666e+00,-3.203125000000001776e+00,-1.687500000000000888e+00,-3.328125000000002220e+00,3.593750000000004441e-01,6.687500000000004441e+00,5.625000000000003553e+00,8.375000000000005329e+00,5.546875000000004441e+00,-1.531250000000000888e+00,-1.734375000000001332e+00,-5.609375000000003553e+00,-4.859375000000002665e+00,-2.140625000000001332e+00,-5.203125000000003553e+00,-3.250000000000001776e+00,-3.421875000000001776e+00,-1.546875000000000444e+00,5.296875000000003553e+00,5.828125000000004441e+00,5.703125000000004441e+00,7.968750000000013323e-01,-7.046875000000003553e+00,-9.343750000000005329e+00,-8.937500000000005329e+00,-2.484375000000001776e+00,5.187500000000003553e+00,1.117187500000000711e+01,1.309375000000000888e+01,9.093750000000005329e+00,4.062500000000002665e+00,-4.359375000000001776e+00,-8.796875000000005329e+00,-8.421875000000005329e+00,-7.750000000000005329e+00,-2.015625000000001332e+00,2.781250000000001776e+00,4.875000000000003553e+00,8.109375000000005329e+00,8.828125000000005329e+00,5.640625000000003553e+00,2.718750000000001776e+00,-2.296875000000001776e+00,-8.265625000000005329e+00,-7.265625000000004441e+00,-6.359375000000004441e+00,-3.468750000000002220e+00,1.703125000000000888e+00,-4.375000000000004441e-01,-1.031250000000000666e+00,-3.531250000000002220e+00,-5.937500000000003553e+00,-2.968750000000001776e+00,-1.328125000000001110e+00,4.859375000000002665e+00,8.625000000000005329e+00,1.196875000000000711e+01,1.660937500000001066e+01,1.403125000000000888e+01,1.317187500000000711e+01,1.000000000000000533e+01,4.875000000000002665e+00,6.578125000000003553e+00,6.546875000000003553e+00,5.328125000000003553e+00,3.984375000000003109e+00,-3.484375000000003109e+00,-7.343750000000005329e+00,-8.453125000000005329e+00,-8.125000000000005329e+00,-9.218750000000002220e-01,1.796875000000000666e+00,5.640625000000002665e+00,9.937500000000007105e+00,4.125000000000002665e+00,-1.046875000000000222e+00,-8.484375000000003553e+00,-1.784375000000001066e+01,-1.375000000000000711e+01,-2.890625000000000888e+00,4.750000000000003553e+00,1.357812500000001066e+01,1.057812500000000711e+01,-2.109375000000002665e+00,-9.656250000000007105e+00,-1.720312500000001066e+01,-2.006250000000001421e+01,-1.790625000000001066e+01,-1.248437500000000711e+01,-6.921875000000004441e+00,2.453125000000000444e+00,1.284375000000000711e+01,1.248437500000000711e+01,1.278125000000000711e+01,6.203125000000004441e+00,-1.859375000000001332e+00,-4.531250000000003331e-01,-2.937500000000001332e+00,-1.796875000000000444e+00,-4.625000000000001776e+00,-1.418750000000000711e+01,-1.662500000000001066e+01,-2.006250000000001421e+01,-1.337500000000000711e+01,1.796875000000001998e+00,7.953125000000006217e+00,1.582812500000001066e+01,1.209375000000000711e+01,-4.531250000000002220e-01,-4.359375000000002665e+00,-1.132812500000000711e+01,-9.109375000000005329e+00,-3.062500000000001776e+00,-5.156250000000004441e-01,6.328125000000004441e+00,5.500000000000004441e+00,4.140625000000002665e+00,-9.531250000000004441e-01,-1.025000000000000711e+01,-1.262500000000000888e+01,-1.439062500000000711e+01,-9.343750000000003553e+00,-5.937499999999997780e-01,4.734375000000002665e+00,1.164062500000000711e+01,1.292187500000000711e+01,8.984375000000003553e+00,5.937500000000003553e+00,-1.390625000000001332e+00,-4.218750000000002665e+00,-2.656250000000001776e+00,-5.843750000000003553e+00,-5.062500000000002665e+00,-8.343750000000005329e+00,-1.026562500000000711e+01,-2.375000000000002220e+00,3.765625000000001332e+00,1.323437500000000711e+01,1.715625000000001066e+01,1.318750000000000888e+01,9.203125000000005329e+00,1.578125000000001554e+00,-1.953125000000001332e+00,-3.250000000000002220e+00,-4.406250000000003553e+00,-1.031250000000000888e+00,4.843750000000004441e-01,9.687500000000009992e-01,-7.031249999999997780e-01,-6.078125000000003553e+00,-9.484375000000005329e+00,-1.095312500000000711e+01,-5.968750000000004441e+00,2.031249999999996114e-01,6.203125000000003553e+00,1.351562500000000711e+01,1.346875000000000711e+01,1.429687500000000888e+01,1.157812500000000711e+01,2.312500000000001332e+00,-2.953125000000001332e+00,-8.937500000000007105e+00,-1.095312500000000711e+01,-5.984375000000003553e+00,-1.484375000000001332e+00,2.546875000000001332e+00,4.343750000000002665e+00,4.406250000000002665e+00,3.000000000000001776e+00,2.187500000000001776e+00,4.390625000000002665e+00,5.750000000000002665e+00,1.089062500000000533e+01,1.573437500000000888e+01,1.435937500000000711e+01,9.843750000000005329e+00,-1.953125000000002665e+00,-1.479687500000001066e+01,-2.045312500000001421e+01,-1.993750000000001421e+01,-1.090625000000000711e+01,1.031250000000000888e+00,7.953125000000004441e+00,9.625000000000005329e+00,4.296875000000001776e+00,-2.125000000000001776e+00,-3.781250000000002665e+00,-2.703125000000001776e+00,3.609375000000002220e+00,7.656250000000005329e+00,5.515625000000004441e+00,4.234375000000003553e+00,1.093750000000000000e-01,-1.968750000000001332e+00,-2.187500000000001665e-01,-3.593750000000002220e-01,1.562500000000002220e-01,-1.312500000000000888e+00,-2.906250000000001776e+00,-5.750000000000003553e+00,-1.001562500000000533e+01,-9.687500000000005329e+00,-8.750000000000005329e+00,-4.640625000000002665e+00,4.375000000000003553e+00,8.140625000000007105e+00,6.906250000000005329e+00
1.681250000000000711e+01,6.812500000000003553e+00,-1.581250000000000711e+01,-2.062500000000000711e+01,-4.687500000000001776e+00,3.156250000000001421e+01,2.762500000000001421e+01,-1.856250000000000711e+01,-2.181250000000000711e+01,8.187500000000003553e+00,1.750000000000000711e+01,5.375000000000003553e+00,-1.206250000000000355e+01,-1.756250000000000711e+01,-3.937500000000001776e+00,1.475000000000000711e+01,1.800000000000000711e+01,-4.375000000000000000e-01,-1.756250000000000711e+01,-7.375000000000002665e+00,6.375000000000002665e+00,1.250000000000004441e-01,-8.750000000000000000e-01,3.812500000000001776e+00,-1.750000000000001110e+00,2.187500000000000888e+00,7.500000000000003553e+00,-7.000000000000002665e+00,-9.937500000000003553e+00,7.750000000000003553e+00,9.312500000000003553e+00,-5.625000000000002665e+00,-9.437500000000003553e+00,4.312500000000001776e+00,1.450000000000000711e+01,-1.375000000000000000e+00,-1.800000000000000711e+01,-1.687500000000000000e+00,1.562500000000000711e+01,4.937500000000002665e+00,-3.187500000000000888e+00,1.062500000000000666e+00,3.312500000000001776e+00,3.187500000000001776e+00,-7.500000000000003553e+00,-1.143750000000000355e+01,9.125000000000003553e+00,2.181250000000000711e+01,5.687500000000003553e+00,-1.800000000000000711e+01,-1.712500000000000711e+01,3.000000000000001332e+00,5.250000000000001776e+00,-9.375000000000004441e-01,3.500000000000001776e+00,-3.750000000000001776e+00,-9.250000000000003553e+00,7.750000000000002665e+00,1.106250000000000355e+01,-3.125000000000000888e+00,-2.500000000000001332e+00,2.499999999999995559e-01,-4.687500000000001776e+00,-6.125000000000001776e+00,-4.437500000000001776e+00,5.000000000000001776e+00,5.250000000000001776e+00,-9.750000000000003553e+00,-4.437500000000001776e+00,6.250000000000002665e+00,-3.500000000000001776e+00,-3.125000000000001776e+00,6.375000000000002665e+00,3.250000000000001776e+00,-4.437500000000001776e+00,-7.250000000000003553e+00,3.437500000000001776e+00,1.200000000000000711e+01,-2.125000000000000888e+00,-1.325000000000000711e+01,6.250000000000088818e-02,1.056250000000000533e+01,-1.250000000000000000e-01,-6.000000000000002665e+00,-2.312500000000000888e+00,-4.187500000000001776e+00,2.562500000000001332e+00,9.750000000000003553e+00,4.375000000000000000e-01,-3.625000000000002220e+00,-1.937500000000001110e+00,-5.562500000000002665e+00,1.437500000000000888e+00,1.056250000000000533e+01,2.312500000000000888e+00,-7.125000000000003553e+00,-3.562500000000001776e+00,2.125000000000000888e+00,1.562500000000000888e+00,-1.062500000000000444e+00,-2.812500000000001332e+00,-3.437500000000001776e+00,1.500000000000000888e+00,5.625000000000003553e+00,-2.812500000000000444e+00,-9.687500000000003553e+00,-1.312500000000000000e+00,4.125000000000002665e+00,9.375000000000006661e-01,-1.062500000000000666e+00,-2.000000000000000888e+00,5.500000000000003553e+00,1.018750000000000533e+01,-1.437500000000000888e+00,-3.125000000000001776e+00,6.437500000000003553e+00,6.250000000000008882e-01,-3.437500000000001776e+00,3.562500000000001776e+00,-3.312500000000001776e+00,-7.500000000000003553e+00,4.125000000000001776e+00,1.812500000000000000e+00,-6.750000000000003553e+00,2.437500000000000888e+00,8.812500000000003553e+00,-4.375000000000000000e-01,-5.875000000000002665e+00,-2.625000000000000888e+00,6.250000000000005551e-02,7.500000000000004441e-01,3.750000000000002220e-01,-1.250000000000000555e-01,-1.250000000000000555e-01,-3.125000000000001110e-01,-3.750000000000001665e-01,-6.250000000000002776e-02,1.875000000000000833e-01,1.875000000000000833e-01,1.250000000000000555e-01,-2.125000000000000888e+00,-8.125000000000003553e+00,-6.437500000000001776e+00,3.375000000000001332e+00,-1.500000000000001332e+00,-7.375000000000003553e+00,7.062500000000002665e+00,1.125000000000000355e+01,-3.687500000000000888e+00,-8.187500000000003553e+00,2.375000000000000888e+00,4.500000000000001776e+00,-1.006250000000000355e+01,-8.500000000000003553e+00,1.450000000000000711e+01,1.325000000000000711e+01,-8.812500000000003553e+00,-1.006250000000000355e+01,2.062500000000000888e+00,7.562500000000003553e+00,4.000000000000000888e+00,-1.093750000000000355e+01,-1.575000000000000533e+01,-1.875000000000000000e-01,1.050000000000000355e+01,1.387500000000000711e+01,1.275000000000000533e+01,-6.250000000000003553e+00,-1.668750000000000711e+01,2.500000000000000000e+00,9.375000000000003553e+00,-5.000000000000001776e+00,-5.812500000000001776e+00,2.375000000000000888e+00,5.437500000000002665e+00,5.000000000000008882e-01,-7.312500000000002665e+00,-5.625000000000001776e+00,-3.750000000000001776e+00,8.125000000000000000e-01,1.075000000000000533e+01,2.000000000000000888e+00,-5.187500000000002665e+00,9.312500000000003553e+00,7.062500000000001776e+00,-1.125000000000000533e+01,-1.275000000000000533e+01,-9.375000000000004441e-01,8.500000000000003553e+00,2.375000000000000888e+00,-5.437500000000002665e+00,2.250000000000001776e+00,6.125000000000003553e+00,5.750000000000002665e+00,7.000000000000002665e+00,-5.187500000000002665e+00,-1.350000000000000533e+01,-1.499999999999999556e+00,6.937500000000003553e+00,3.125000000000001332e+00,-2.812500000000000888e+00,-4.500000000000001776e+00,-5.625000000000006661e-01,-4.000000000000001776e+00,-6.375000000000001776e+00,3.875000000000001776e+00,7.000000000000001776e+00,7.187500000000003553e+00,1.187500000000000711e+01,2.312500000000001776e+00,-8.437500000000003553e+00,-5.375000000000009770e+00,-5.750000000000017764e+00,-3.687500000000001776e+00,6.625000000000017764e+00,5.500000000000009770e+00,-7.500000000000002220e-01,1.500000000000000666e+00,3.250000000000001332e+00,1.187500000000000444e+00,1.250000000000000555e-01,1.875000000000000833e-01,1.875000000000000833e-01,1.250000000000000555e-01,1.250000000000000555e-01,0.000000000000000000e+00,-1.875000000000000833e-01,-2.500000000000001110e-01,-1.250000000000000555e-01,1.875000000000001110e-01,3.125000000000001665e-01,0.000000000000000000e+00,-2.500000000000001110e-01,-1.250000000000000555e-01,0.000000000000000000e+00,1.250000000000000555e-01,1.875000000000000833e-01,-1.250000000000000833e-01,-2.500000000000001110e-01,6.250000000000002776e-02,2.500000000000001110e-01,1.875000000000000833e-01,-6.250000000000002776e-02,-2.500000000000001110e-01,-6.250000000000002776e-02,1.250000000000000555e-01,6.250000000000002776e-02,0.000000000000000000e+00,0.000000000000000000e+00,-6.250000000000002776e-02,-1.250000000000000555e-01,6.250000000000002776e-02,2.500000000000001110e-01,6.250000000000002776e-02,-1.250000000000000555e-01,-6.250000000000002776e-02,0.000000000000000000e+00,0.000000000000000000e+00,1.250000000000000555e-01,1.875000000000000833e-01,-1.875000000000000833e-01,-3.750000000000001665e-01,-6.250000000000002776e-02,6.250000000000002776e-02,6.250000000000002776e-02,1.875000000000000833e-01,1.875000000000000833e-01,0.000000000000000000e+00,-1.250000000000000555e-01,-1.250000000000000555e-01,-1.250000000000000555e-01,6.250000000000002776e-02,3.125000000000001665e-01,1.250000000000000833e-01,-3.125000000000001110e-01,-2.500000000000001110e-01,2.500000000000001110e-01,3.125000000000001110e-01,-6.250000000000002776e-02,-6.250000000000002776e-02,1.875000000000000833e-01,-1.250000000000000555e-01,-4.375000000000002220e-01,6.250000000000000000e-02,3.750000000000001665e-01,1.250000000000000555e-01,1.250000000000000833e-01,6.250000000000005551e-02,-1.387778780781445676e-17,5.000000000000002220e-01,5.625000000000003331e-01,2.000000000000000888e+00,7.500000000000010658e+00,1.087500000000001954e+01,6.750000000000002665e+00,-1.937500000000015765e+00,-7.062500000000010658e+00,-1.687500000000000444e+00,1.375000000000001332e+00,-5.000000000000001110e-01,6.062500000000002665e+00,6.125000000000002665e+00,-3.437500000000001776e+00,-9.750000000000005329e+00,-2.400000000000001066e+01,-3.400000000000001421e+01,9.562500000000007105e+00,8.837500000000004263e+01,8.231250000000002842e+01,-2.037500000000000711e+01,-7.693750000000002842e+01,-4.281250000000001421e+01,3.750000000000008882e-01,5.437500000000003553e+00,-4.000000000000001776e+00,-6.125000000000003553e+00,-2.437500000000001776e+00,9.500000000000003553e+00,9.500000000000003553e+00,-3.187500000000000888e+00,-1.000000000000000000e+00,1.125000000000000444e+00,-4.625000000000002665e+00,-3.250000000000001776e+00,-9.375000000000003331e-01,-1.750000000000000666e+00,1.187500000000000444e+00,7.312500000000002665e+00,6.875000000000000000e-01,-9.000000000000003553e+00,7.500000000000008882e-01,2.062500000000000888e+00,-1.150000000000000533e+01,-4.750000000000001776e+00,6.687500000000003553e+00,4.187500000000001776e+00,2.812500000000001332e+00,3.750000000000000000e-01,5.000000000000000000e-01,7.312500000000002665e+00,8.562500000000003553e+00,3.312500000000001332e+00,-1.875000000000000444e+00,-7.625000000000001776e+00,-1.187500000000000533e+01,-2.250000000000001776e+00,1.387500000000000533e+01,1.356250000000000533e+01,-1.062500000000000444e+00,-1.106250000000000711e+01,-1.306250000000000711e+01,-8.750000000000003553e+00,3.312500000000000888e+00,9.500000000000003553e+00,5.812500000000002665e+00,-1.812500000000001110e+00,-6.250000000000002665e+00,4.125000000000002665e+00,7.812500000000003553e+00,-3.937500000000001332e+00,-1.750000000000000000e+00,4.562500000000002665e+00,-3.875000000000000888e+00,-4.937500000000001776e+00,7.625000000000003553e+00,4.875000000000002665e+00,-1.306250000000000711e+01,-7.875000000000004441e+00,1.037500000000000355e+01,3.812500000000001776e+00,-4.812500000000001776e+00,2.375000000000001776e+00,1.625000000000000888e+00,-8.000000000000003553e+00,-9.500000000000005329e+00,3.750000000000001776e+00,1.150000000000000533e+01,-1.312500000000000888e+00,-4.312500000000001776e+00,7.875000000000003553e+00,8.125000000000008882e-01,-1.118750000000000533e+01,1.937500000000000888e+00,1.368750000000000711e+01,2.187500000000001776e+00,-1.312500000000000533e+01,-1.062500000000000355e+01,7.000000000000002665e+00,1.000000000000000355e+01,-5.062500000000002665e+00,-9.062500000000003553e+00,-4.375000000000000000e-01,1.562500000000000888e+00,1.687500000000000888e+00,9.187500000000003553e+00,5.875000000000002665e+00,-5.500000000000002665e+00,-8.062500000000003553e+00,-7.375000000000003553e+00,-1.875000000000000000e-01,5.812500000000003553e+00,4.250000000000001776e+00,4.625000000000001776e+00,-2.562500000000001776e+00,-8.000000000000003553e+00,-1.437500000000000222e+00,1.062500000000000444e+00,1.875000000000000666e+00,4.625000000000001776e+00,3.875000000000001776e+00,2.875000000000001332e+00,-2.250000000000000888e+00,-8.062500000000003553e+00,-7.500000000000000000e-01,2.562500000000001776e+00,-2.625000000000000888e+00,4.250000000000001776e+00,4.250000000000001776e+00,-6.875000000000003553e+00,-2.937500000000001776e+00,8.062500000000003553e+00,7.187500000000003553e+00,-4.375000000000001776e+00,-1.087500000000000533e+01,-8.125000000000008882e-01,8.312500000000003553e+00,-3.125000000000001776e+00,-9.937500000000005329e+00,4.250000000000001776e+00,7.687500000000003553e+00,8.125000000000003331e-01,1.437500000000000444e+00,-3.375000000000001332e+00,-4.687500000000001776e+00,1.125000000000000222e+00,6.250000000000000000e-01,1.750000000000000666e+00,-1.500000000000000888e+00,-3.500000000000001776e+00,7.250000000000003553e+00,5.625000000000002665e+00,-5.750000000000002665e+00,-5.062500000000001776e+00,-3.125000000000001110e-01,-2.250000000000001332e+00,-3.062500000000001332e+00,6.250000000000003553e+00,6.562500000000003553e+00,-7.812500000000003553e+00,-1.206250000000000355e+01,-1.124999999999999556e+00,1.456250000000000533e+01,1.556250000000000533e+01,-2.312500000000000888e+00,-9.312500000000003553e+00,-3.187500000000001332e+00,-5.625000000000004441e-01,3.375000000000001776e+00,2.937500000000001332e+00,-7.750000000000003553e+00,-1.037500000000000533e+01,3.500000000000000888e+00,9.625000000000003553e+00,-1.062500000000000444e+00,3.750000000000000000e-01,7.875000000000003553e+00,-2.625000000000001776e+00,-6.187500000000003553e+00,3.437500000000001332e+00,3.749999999999995559e-01,-8.250000000000003553e+00,-5.250000000000001776e+00,5.375000000000001776e+00,4.562500000000000888e+00,-4.500000000000002665e+00,3.062500000000001776e+00,1.075000000000000533e+01,-1.750000000000000888e+00,-1.281250000000000711e+01,-4.875000000000002665e+00,1.050000000000000355e+01,6.250000000000002665e+00,-6.812500000000003553e+00,2.187500000000000888e+00,8.062500000000003553e+00,-8.937500000000005329e+00,-1.062500000000000533e+01,1.081250000000000533e+01,1.362500000000000711e+01,-3.312500000000000888e+00,-9.562500000000003553e+00,-9.062500000000003553e+00,-3.125000000000000888e+00,1.231250000000000355e+01,1.118750000000000355e+01,-4.000000000000001776e+00,-8.687500000000003553e+00,-7.125000000000003553e+00,-5.625000000000008882e-01,4.625000000000001776e+00,2.875000000000001332e+00,8.250000000000003553e+00,4.687500000000001776e+00,-1.225000000000000533e+01,-5.625000000000001776e+00,1.237500000000000533e+01,4.437500000000001776e+00,-8.000000000000003553e+00,-3.062500000000001332e+00,6.249999999999977796e-02,-2.750000000000001776e+00,-2.562500000000000888e+00,6.875000000000006661e-01,1.812500000000000888e+00,2.500000000000000555e-01,4.125000000000001776e+00,8.125000000000000000e-01,-5.312500000000002665e+00,7.125000000000002665e+00,1.093750000000000355e+01,-7.437500000000002665e+00,-1.425000000000000711e+01,-1.812500000000000888e+00,4.875000000000002665e+00,4.375000000000001776e+00,6.000000000000002665e+00,-4.000000000000001776e+00,-1.387500000000000711e+01,6.250000000000000000e-01,1.543750000000000711e+01,3.312500000000001776e+00,-1.093750000000000533e+01,4.375000000000000000e-01,1.068750000000000533e+01,-8.125000000000008882e-01,-4.562500000000002665e+00,1.437500000000000666e+00,-5.500000000000002665e+00,-6.750000000000003553e+00,4.250000000000001776e+00,7.250000000000003553e+00,1.937500000000000888e+00,-4.750000000000001776e+00,-4.750000000000001776e+00,3.125000000000001110e-01,2.125000000000000888e+00,9.375000000000004441e-01,1.875000000000000833e-01,5.000000000000001776e+00,4.375000000000001776e+00,-4.687500000000001776e+00,-3.125000000000001332e+00,3.187500000000001332e+00,4.000000000000001776e+00,3.312500000000001776e+00,-5.375000000000003553e+00,-1.331250000000000711e+01,-4.750000000000002665e+00,5.562500000000002665e+00,7.750000000000003553e+00,1.006250000000000355e+01,2.250000000000000000e+00,-1.343750000000000533e+01,-7.437500000000002665e+00,9.750000000000003553e+00,5.687500000000002665e+00,-3.000000000000000888e+00,-2.500000000000000888e+00,-5.062500000000002665e+00,-1.062500000000000444e+00,4.937500000000001776e+00,1.062500000000000444e+00,-1.250000000000000444e+00,-2.500000000000001665e-01,5.625000000000002220e-01,4.062500000000001776e+00,3.750000000000001776e+00,-6.187500000000003553e+00,-7.250000000000003553e+00,6.750000000000003553e+00,1.087500000000000533e+01,7.500000000000004441e-01,-8.125000000000003553e+00,-8.875000000000003553e+00,-2.125000000000000888e+00,2.687500000000001332e+00,3.312500000000001776e+00,2.875000000000001332e+00,-4.062500000000001776e+00,-7.812500000000002665e+00,3.312500000000002665e+00,1.293750000000000711e+01,5.500000000000003553e+00,-5.937500000000001776e+00,-7.187500000000002665e+00,-4.375000000000001776e+00,-4.562500000000001776e+00,-3.250000000000001332e+00,4.062500000000001776e+00,6.812500000000002665e+00,3.437500000000001776e+00,4.125000000000001776e+00,-6.250000000000008882e-01,-6.062500000000002665e+00,3.312500000000001776e+00,6.062500000000002665e+00,-7.312500000000003553e+00,-6.187500000000002665e+00,8.250000000000003553e+00,3.937500000000002220e+00,-5.812500000000002665e+00,-1.875000000000000888e+00,-4.562500000000001776e+00,-6.625000000000001776e+00,9.187500000000003553e+00,1.550000000000000533e+01,6.250000000000000000e-01,-1.137500000000000533e+01,-1.200000000000000533e+01,-3.937500000000001776e+00,9.625000000000003553e+00,1.387500000000000711e+01,1.250000000000000888e+00,-9.562500000000003553e+00,-4.750000000000001776e+00,-1.000000000000000444e+00,6.250000000000000000e-02,6.125000000000002665e+00,1.500000000000000000e+00,-5.625000000000003553e+00,-3.187500000000001332e+00,-6.249999999999977796e-02,8.187500000000003553e+00,9.250000000000003553e+00,-4.437500000000001776e+00,-5.875000000000002665e+00,-1.625000000000000444e+00,-8.500000000000003553e+00,-3.500000000000002220e+00,1.350000000000000533e+01,1.256250000000000355e+01,-3.250000000000000888e+00,-8.500000000000003553e+00,-3.937500000000001776e+00,2.000000000000000444e+00,6.687500000000002665e+00,-1.437500000000000000e+00,-8.125000000000003553e+00,2.187500000000000888e+00,3.437500000000000888e+00,-9.750000000000003553e+00,-4.625000000000001776e+00,1.281250000000000533e+01,8.437500000000003553e+00,-6.500000000000002665e+00,-8.437500000000003553e+00,8.750000000000008882e-01,5.812500000000002665e+00,-3.750000000000001776e+00,-6.312500000000002665e+00,4.375000000000004441e-01,6.875000000000006661e-01,5.125000000000001776e+00,7.250000000000002665e+00,-5.125000000000002665e+00,-1.006250000000000533e+01,5.125000000000001776e+00,1.187500000000000533e+01,-3.125000000000000000e-01,-6.875000000000000000e-01,6.437500000000003553e+00,-1.437500000000000444e+00,-5.062500000000001776e+00,-2.000000000000000888e+00,-5.187500000000002665e+00,1.625000000000000000e+00,6.312500000000001776e+00,-5.875000000000003553e+00,-3.625000000000001776e+00,8.000000000000003553e+00,-1.625000000000001776e+00,-7.625000000000004441e+00,4.187500000000001776e+00,1.750000000000000888e+00,-8.187500000000003553e+00,1.375000000000000888e+00,9.000000000000003553e+00,-2.875000000000002220e+00,-5.000000000000002665e+00,9.062500000000003553e+00,4.812500000000001776e+00,-1.337500000000000533e+01,-8.312500000000003553e+00,8.875000000000003553e+00,4.875000000000002665e+00,-1.375000000000000666e+00,4.625000000000001776e+00,-2.437500000000001776e+00,-6.437500000000003553e+00,4.937500000000001776e+00,-1.187500000000001776e+00,-7.625000000000003553e+00,5.375000000000003553e+00,4.062500000000002665e+00,-5.750000000000002665e+00,-3.562500000000001776e+00,-2.875000000000001332e+00,3.812500000000002220e+00,9.250000000000005329e+00,-3.875000000000001776e+00,-2.750000000000001776e+00,9.000000000000003553e+00,-4.875000000000003553e+00,-1.350000000000000711e+01,6.937500000000003553e+00,1.362500000000000711e+01,-4.812500000000002665e+00,-5.312500000000002665e+00,6.625000000000002665e+00,-2.750000000000001776e+00,-7.437500000000003553e+00,5.375000000000002665e+00,8.000000000000003553e+00,6.375000000000003553e+00,5.125000000000003553e+00,-3.000000000000001776e+00,-5.562500000000003553e+00,-7.812500000000004441e+00,-1.081250000000000533e+01,6.875000000000008882e-01,1.225000000000000711e+01,8.312500000000003553e+00,-3.750000000000001776e+00,-6.250000000000001776e+00,1.750000000000001110e+00,1.062500000000000444e+00,-3.500000000000001776e+00,-5.437500000000002665e+00,-2.625000000000001332e+00,7.062500000000003553e+00,2.812500000000001776e+00,-5.500000000000002665e+00,-9.375000000000004441e-01,-1.187500000000000444e+00,1.062500000000000888e+00,4.312500000000001776e+00,-7.000000000000003553e+00,-2.187500000000000888e+00,1.637500000000000711e+01,5.437500000000000888e+00,-1.793750000000001066e+01,-1.068750000000000711e+01,1.212500000000000711e+01,1.056250000000000533e+01,-1.125000000000000444e+00,-3.875000000000001776e+00,-8.125000000000003553e+00,-6.250000000000000000e-02,6.812500000000003553e+00,-4.687500000000001776e+00,-4.375000000000000000e-01,5.687500000000002665e+00,-5.562500000000002665e+00,-2.375000000000000888e+00,4.500000000000001776e+00,2.125000000000000888e+00,4.375000000000001110e-01,-8.500000000000003553e+00,-7.937500000000003553e+00,6.500000000000002665e+00,1.043750000000000355e+01,7.812500000000003553e+00,7.000000000000003553e+00,1.312500000000000444e+00,-7.187500000000002665e+00,-1.187500000000000533e+01,-9.750000000000005329e+00,4.312500000000001776e+00,1.018750000000000533e+01,-5.187500000000001776e+00,-3.437500000000001776e+00,9.187500000000003553e+00,-5.500000000000003553e+00,-1.137500000000000533e+01,1.175000000000000711e+01,1.543750000000000711e+01,-4.062500000000002665e+00,-9.937500000000005329e+00,-6.812500000000003553e+00,-6.250000000000003553e+00,2.125000000000000444e+00,1.250000000000000533e+01,5.625000000000002665e+00,-9.500000000000003553e+00,-3.687500000000001776e+00,5.000000000000002665e+00,-5.250000000000002665e+00,-2.375000000000001776e+00,5.687500000000002665e+00,-1.750000000000000888e+00,4.562500000000001776e+00,1.218750000000000533e+01,-9.375000000000000000e-01,-1.125000000000000533e+01,-7.625000000000004441e+00,3.437500000000001776e+00,6.062500000000002665e+00,-1.875000000000002220e-01,-1.750000000000000666e+00,-6.500000000000001776e+00,-6.500000000000001776e+00,3.812500000000001332e+00,6.875000000000003553e+00,7.375000000000003553e+00,6.250000000000001776e+00,-5.000000000000003553e+00,-1.518750000000000711e+01,-1.018750000000000355e+01,5.437500000000002665e+00,9.250000000000005329e+00,1.250000000000004441e-01,1.000000000000000888e+00,1.143750000000000533e+01,7.000000000000003553e+00,-8.375000000000003553e+00,-8.437500000000003553e+00,-4.687500000000001776e+00,-5.250000000000002665e+00,5.687500000000002665e+00,7.437500000000003553e+00,-6.250000000000003553e+00,-2.500000000000001776e+00,9.937500000000005329e+00,5.937500000000003553e+00,-8.125000000000002220e-01,-8.125000000000004441e-01,-1.750000000000001110e+00,-7.250000000000002665e+00,-1.075000000000000355e+01,3.437500000000001776e+00,1.375000000000000533e+01,-2.000000000000001776e+00,-8.125000000000003553e+00,3.312500000000001332e+00,1.562500000000000888e+00,-9.500000000000003553e+00,-5.875000000000003553e+00,8.562500000000003553e+00,9.125000000000003553e+00,-3.750000000000002220e-01,-4.687500000000001776e+00,4.250000000000002665e+00,2.043750000000000711e+01,8.375000000000003553e+00,-1.781250000000000711e+01,-9.937500000000003553e+00,1.093750000000000533e+01,1.287500000000000533e+01,5.562500000000001776e+00,-3.312500000000001776e+00,-1.087500000000000533e+01,-1.131250000000000533e+01,1.250000000000000000e-01,9.625000000000003553e+00,2.187500000000000888e+00,-4.062500000000000888e+00,-4.062500000000000888e+00,3.375000000000001776e+00,2.068750000000001066e+01,6.250000000000003553e+00,-2.750000000000001066e+01,-2.212500000000000711e+01,-4.250000000000001776e+00,7.625000000000003553e+00,3.193750000000001066e+01,1.887500000000000355e+01,-2.450000000000001066e+01,-2.000000000000000711e+01,5.187500000000002665e+00,6.875000000000000000e-01,-5.687500000000002665e+00,-4.500000000000002665e+00,-1.112500000000000533e+01,-5.250000000000001776e+00,1.075000000000000533e+01,1.531250000000000711e+01,1.362500000000000711e+01,-2.625000000000000000e+00,-1.743750000000000711e+01,-5.937500000000002665e+00,7.250000000000002665e+00,8.312500000000003553e+00,2.937500000000001776e+00,-4.250000000000001776e+00,-1.087500000000000533e+01,-1.368750000000000711e+01,-4.187500000000001776e+00,-3.812500000000001332e+00,-3.500000000000000444e+00,2.581250000000000711e+01,2.618750000000000711e+01,-1.418750000000000711e+01,-2.431250000000001066e+01,-5.875000000000003553e+00,6.687500000000003553e+00,7.375000000000003553e+00,4.375000000000002220e-01,-8.625000000000003553e+00,-7.250000000000003553e+00,1.568750000000000711e+01,2.187500000000000711e+01,-9.312500000000005329e+00,-3.043750000000001421e+01,-1.318750000000000533e+01,1.525000000000000888e+01,1.350000000000000711e+01,-9.125000000000003553e+00,-1.087500000000000533e+01,7.500000000000002665e+00,2.218750000000001066e+01,1.312500000000000711e+01,-1.775000000000000711e+01,-2.456250000000001066e+01,3.812500000000000000e+00,2.237500000000000711e+01,7.812500000000003553e+00,-1.900000000000000711e+01,-1.593750000000000711e+01,3.500000000000000888e+00,-8.750000000000008882e-01,1.687500000000001776e+00,2.300000000000001066e+01,1.637500000000000711e+01,-1.575000000000000711e+01,-1.768750000000000711e+01,1.306250000000000711e+01,1.500000000000000711e+01,-1.206250000000000711e+01,-1.475000000000000888e+01,2.062500000000001332e+00,1.037500000000000533e+01,1.000000000000000355e+01,5.625000000000000000e-01,-1.525000000000000533e+01,-1.662500000000000711e+01,2.000000000000000888e+00,1.206250000000000711e+01,3.500000000000001776e+00,-4.937500000000001776e+00,1.125000000000000444e+00,1.412500000000000533e+01,6.562500000000001776e+00,-4.437500000000002665e+00,4.875000000000002665e+00,-2.125000000000000000e+00,-2.056250000000001066e+01,-7.187500000000005329e+00,1.381250000000000533e+01,9.375000000000003553e+00,-1.750000000000000444e+00,-5.375000000000002665e+00,-4.437500000000001776e+00,6.312500000000003553e+00,1.093750000000000533e+01,-5.687500000000001776e+00,-1.193750000000000533e+01,5.750000000000001776e+00,1.918750000000000711e+01,1.425000000000000533e+01,-8.750000000000000000e-01,-1.212500000000000533e+01,-1.737500000000000711e+01,-1.493750000000000533e+01,2.125000000000000888e+00,1.056250000000000355e+01,-1.750000000000000444e+00,1.875000000000001776e+00,2.100000000000001066e+01,5.125000000000003553e+00,-3.281250000000001421e+01,-2.056250000000000711e+01,2.731250000000001421e+01,2.493750000000001066e+01,-9.750000000000003553e+00,-9.562500000000003553e+00,-1.875000000000002220e-01,-3.625000000000001776e+00,4.875000000000002665e+00,9.625000000000003553e+00,-6.250000000000002665e+00,-1.131250000000000355e+01,5.375000000000002665e+00,1.012500000000000355e+01,-2.687500000000000888e+00,-1.275000000000000533e+01,-1.300000000000000533e+01,2.875000000000001776e+00,1.281250000000000533e+01,-2.937500000000001776e+00,-2.875000000000001776e+00
2.350000000000000711e+01,8.500000000000001776e+00,-3.125000000000000711e+01,2.425000000000000711e+01,-3.025000000000000711e+01,9.500000000000001776e+00,5.900000000000000711e+01,-7.000000000000001421e+01,2.875000000000000711e+01,-1.475000000000000355e+01,2.025000000000000355e+01,-4.750000000000000000e+00,-2.250000000000000888e+00,-7.250000000000001776e+00,-7.000000000000001776e+00,1.500000000000000355e+01,-2.500000000000000000e+00,1.425000000000000355e+01,-2.300000000000000355e+01,-2.500000000000008882e-01,1.425000000000000355e+01,-7.250000000000001776e+00,-7.000000000000001776e+00,1.525000000000000355e+01,-7.750000000000001776e+00,-1.000000000000000178e+01,2.550000000000000711e+01,-1.750000000000000355e+01,-5.250000000000000888e+00,6.000000000000000888e+00,1.225000000000000355e+01,-1.550000000000000355e+01,7.000000000000001776e+00,-1.250000000000000355e+01,2.000000000000000355e+01,-2.500000000000000000e-01,-1.800000000000000355e+01,5.000000000000000000e-01,1.500000000000000355e+01,2.500000000000000000e+00,-2.150000000000000355e+01,3.025000000000000711e+01,-2.975000000000000711e+01,2.525000000000000711e+01,-8.750000000000001776e+00,-1.500000000000000355e+01,1.125000000000000355e+01,9.000000000000003553e+00,1.750000000000000000e+00,-3.750000000000001776e+00,-2.000000000000000355e+01,1.450000000000000355e+01,6.750000000000000888e+00,-1.825000000000000355e+01,1.550000000000000355e+01,2.250000000000000000e+00,-2.175000000000000355e+01,1.475000000000000355e+01,1.000000000000000355e+01,-1.275000000000000355e+01,-2.000000000000000444e+00,1.725000000000000355e+01,-2.600000000000000711e+01,2.225000000000000711e+01,-1.875000000000000711e+01,3.750000000000001332e+00,1.675000000000000355e+01,-1.675000000000000355e+01,-8.750000000000001776e+00,2.575000000000000711e+01,-1.800000000000000355e+01,-5.750000000000000888e+00,2.275000000000000711e+01,-2.275000000000000711e+01,2.100000000000000355e+01,-1.975000000000000355e+01,3.500000000000000888e+00,1.425000000000000355e+01,-6.250000000000000888e+00,-6.750000000000001776e+00,-4.500000000000000888e+00,1.625000000000000355e+01,-4.500000000000000888e+00,-1.250000000000000355e+01,1.600000000000000355e+01,-1.125000000000000355e+01,-5.750000000000000888e+00,2.225000000000000711e+01,-1.525000000000000355e+01,7.500000000000000000e-01,7.000000000000001776e+00,-8.250000000000001776e+00,-4.500000000000000888e+00,1.650000000000000355e+01,-7.250000000000001776e+00,-1.500000000000000444e+00,-2.750000000000000444e+00,4.000000000000000888e+00,-5.000000000000002220e-01,-1.000000000000000222e+00,0.000000000000000000e+00,-2.500000000000000555e-01,-5.750000000000001776e+00,1.175000000000000355e+01,-5.500000000000000888e+00,-2.750000000000000444e+00,-8.500000000000001776e+00,2.200000000000000355e+01,-2.575000000000000711e+01,2.425000000000000711e+01,-1.825000000000000355e+01,4.250000000000000888e+00,1.325000000000000355e+01,-7.750000000000001776e+00,-6.500000000000000888e+00,9.500000000000001776e+00,6.250000000000000888e+00,-2.250000000000000711e+01,2.350000000000000711e+01,-7.250000000000000888e+00,-1.400000000000000355e+01,1.475000000000000355e+01,5.000000000000000000e-01,-1.075000000000000178e+01,2.250000000000000000e+00,1.175000000000000355e+01,-8.250000000000001776e+00,-5.000000000000001110e-01,5.000000000000001110e-01,-1.250000000000000222e+00,1.750000000000000444e+00,-7.500000000000002220e-01,0.000000000000000000e+00,2.500000000000000555e-01,-2.500000000000000555e-01,-2.500000000000000555e-01,2.500000000000000555e-01,-2.500000000000000555e-01,5.000000000000001110e-01,-5.000000000000001110e-01,5.000000000000001110e-01,-2.500000000000000555e-01,-9.000000000000001776e+00,3.500000000000000888e+00,1.475000000000000355e+01,-3.025000000000000711e+01,2.150000000000000355e+01,3.500000000000000888e+00,-8.500000000000001776e+00,2.250000000000000444e+00,-8.250000000000001776e+00,1.725000000000000355e+01,-1.050000000000000355e+01,-1.275000000000000355e+01,1.300000000000000355e+01,1.525000000000000355e+01,-1.950000000000000355e+01,2.500000000000000000e-01,6.750000000000001776e+00,-6.000000000000001776e+00,1.025000000000000355e+01,-2.000000000000000444e+00,-2.025000000000000355e+01,1.425000000000000355e+01,-7.500000000000000000e-01,-2.500000000000000000e-01,1.075000000000000178e+01,2.750000000000000888e+00,-2.275000000000000711e+01,6.750000000000001776e+00,2.100000000000000711e+01,-2.625000000000000711e+01,1.225000000000000355e+01,-2.250000000000000888e+00,-3.750000000000000888e+00,1.525000000000000355e+01,-2.000000000000000355e+01,7.750000000000000888e+00,2.500000000000000444e+00,-1.425000000000000355e+01,1.600000000000000355e+01,7.000000000000001776e+00,-2.650000000000000711e+01,2.225000000000000355e+01,5.250000000000000888e+00,-1.825000000000000355e+01,7.250000000000001776e+00,-7.750000000000001776e+00,4.250000000000000000e+00,1.500000000000000355e+01,-2.775000000000000711e+01,2.125000000000000355e+01,-4.500000000000000888e+00,-4.500000000000001776e+00,1.225000000000000355e+01,-2.250000000000000000e+00,-1.400000000000000355e+01,4.250000000000000000e+00,9.750000000000003553e+00,-1.225000000000000355e+01,1.525000000000000355e+01,-1.825000000000000711e+01,9.500000000000003553e+00,4.750000000000000888e+00,-2.050000000000000355e+01,1.775000000000000355e+01,-2.000000000000000444e+00,-5.750000000000001776e+00,1.250000000000000355e+01,3.500000000000000888e+00,-1.650000000000000355e+01,1.000000000000000178e+01,-1.250000000000000222e+00,-1.400000000000001776e+01,1.700000000000001776e+01,-3.750000000000000888e+00,-3.250000000000000888e+00,3.500000000000000888e+00,5.000000000000001110e-01,-2.500000000000000555e-01,2.500000000000000555e-01,-2.500000000000000555e-01,5.000000000000001110e-01,-5.000000000000001110e-01,5.000000000000001110e-01,-2.500000000000000555e-01,0.000000000000000000e+00,0.000000000000000000e+00,-2.500000000000000555e-01,2.500000000000000555e-01,0.000000000000000000e+00,2.500000000000000555e-01,-5.000000000000001110e-01,2.500000000000000555e-01,0.000000000000000000e+00,-2.500000000000000555e-01,5.000000000000001110e-01,-2.500000000000000555e-01,-2.500000000000000555e-01,2.500000000000000555e-01,0.000000000000000000e+00,0.000000000000000000e+00,2.500000000000000555e-01,-5.000000000000001110e-01,2.500000000000000555e-01,0.000000000000000000e+00,0.000000000000000000e+00,0.000000000000000000e+00,0.000000000000000000e+00,0.000000000000000000e+00,0.000000000000000000e+00,-2.500000000000000555e-01,5.000000000000001110e-01,-2.500000000000000555e-01,0.000000000000000000e+00,0.000000000000000000e+00,0.000000000000000000e+00,0.000000000000000000e+00,0.000000000000000000e+00,0.000000000000000000e+00,5.000000000000001110e-01,-1.250000000000000444e+00,1.250000000000000444e+00,-1.000000000000000222e+00,7.500000000000002220e-01,-5.000000000000001110e-01,5.000000000000001110e-01,-2.500000000000000555e-01,0.000000000000000000e+00,0.000000000000000000e+00,0.000000000000000000e+00,-2.500000000000000555e-01,5.000000000000001110e-01,-2.500000000000000555e-01,2.500000000000000555e-01,-7.500000000000002220e-01,7.500000000000002220e-01,-2.500000000000000555e-01,2.500000000000000555e-01,-5.000000000000001110e-01,5.000000000000001110e-01,0.000000000000000000e+00,-5.000000000000001110e-01,0.000000000000000000e+00,7.500000000000002220e-01,-7.500000000000002220e-01,5.000000000000001110e-01,0.000000000000000000e+00,-2.500000000000000555e-01,0.000000000000000000e+00,1.000000000000000222e+00,-1.000000000000000222e+00,5.000000000000001110e-01,8.000000000000015987e+00,-2.000000000000014211e+00,2.500000000000000000e+00,-3.500000000000000888e+00,-8.750000000000001776e+00,1.975000000000000355e+01,-2.175000000000000355e+01,1.250000000000000355e+01,8.250000000000001776e+00,-1.650000000000000355e+01,1.275000000000000178e+01,-1.125000000000000178e+01,-1.275000000000000355e+01,-1.200000000000000355e+01,2.075000000000000711e+01,8.950000000000001421e+01,-6.825000000000001421e+01,-5.750000000000000000e+00,-2.775000000000000711e+01,2.125000000000000355e+01,1.500000000000000888e+00,-1.525000000000000355e+01,1.650000000000000355e+01,-1.775000000000000355e+01,7.000000000000001776e+00,1.800000000000000355e+01,-2.150000000000000711e+01,5.750000000000001776e+00,1.425000000000000355e+01,-2.750000000000000711e+01,2.750000000000000711e+01,-2.625000000000000711e+01,2.275000000000000711e+01,-1.975000000000000355e+01,1.300000000000000355e+01,6.500000000000000888e+00,-1.850000000000000355e+01,5.500000000000001776e+00,1.400000000000000178e+01,-1.850000000000000355e+01,-5.250000000000001776e+00,2.450000000000000711e+01,-2.550000000000000711e+01,2.125000000000000711e+01,-8.000000000000001776e+00,-6.750000000000001776e+00,1.700000000000000355e+01,-1.475000000000000355e+01,2.125000000000000355e+01,-2.350000000000000711e+01,2.175000000000000711e+01,-2.375000000000000711e+01,6.750000000000001776e+00,4.500000000000000888e+00,5.750000000000001776e+00,2.250000000000000000e+00,-1.400000000000000355e+01,1.075000000000000355e+01,-1.800000000000000355e+01,9.000000000000001776e+00,8.000000000000001776e+00,-1.150000000000000355e+01,1.800000000000000355e+01,-2.075000000000000711e+01,5.750000000000001776e+00,1.600000000000000355e+01,-1.700000000000000355e+01,1.000000000000000444e+00,1.250000000000000178e+01,-1.100000000000000178e+01,2.500000000000000000e-01,-1.500000000000000222e+00,1.625000000000000355e+01,-1.550000000000000355e+01,-1.025000000000000178e+01,1.825000000000000355e+01,2.750000000000000000e+00,-2.250000000000000711e+01,2.600000000000000711e+01,-1.750000000000000355e+01,1.075000000000000355e+01,-1.300000000000000355e+01,-5.000000000000000000e-01,1.650000000000000355e+01,-6.750000000000001776e+00,-1.100000000000000178e+01,1.375000000000000355e+01,4.250000000000000888e+00,-1.725000000000000355e+01,2.750000000000000888e+00,1.700000000000000355e+01,-1.200000000000000178e+01,7.000000000000001776e+00,-1.800000000000000355e+01,8.500000000000001776e+00,1.550000000000000355e+01,-2.000000000000000711e+01,1.100000000000000355e+01,-1.475000000000000355e+01,2.125000000000000355e+01,-2.225000000000000711e+01,1.575000000000000355e+01,7.000000000000000888e+00,-1.800000000000000355e+01,1.275000000000000355e+01,-8.750000000000001776e+00,-8.750000000000003553e+00,2.500000000000000711e+01,-2.600000000000000711e+01,2.100000000000000711e+01,-2.250000000000000888e+00,-1.950000000000000355e+01,2.325000000000000711e+01,-2.000000000000000355e+01,1.500000000000000355e+01,-9.250000000000001776e+00,1.125000000000000355e+01,-1.100000000000000355e+01,1.400000000000000355e+01,-1.425000000000000355e+01,-3.250000000000000888e+00,2.125000000000000711e+01,-2.550000000000000711e+01,1.200000000000000355e+01,1.275000000000000355e+01,-2.525000000000000711e+01,1.900000000000000711e+01,-1.500000000000000355e+01,2.250000000000000711e+01,-1.850000000000000355e+01,8.750000000000001776e+00,-1.650000000000000355e+01,2.150000000000000711e+01,-6.750000000000001776e+00,-1.150000000000000178e+01,4.500000000000000888e+00,1.675000000000000355e+01,-2.425000000000000711e+01,2.075000000000000711e+01,-5.750000000000001776e+00,-1.550000000000000355e+01,2.425000000000000711e+01,-2.050000000000000355e+01,8.750000000000001776e+00,9.000000000000001776e+00,-2.375000000000000711e+01,2.050000000000000355e+01,1.750000000000000888e+00,-1.500000000000000355e+01,1.375000000000000355e+01,-1.550000000000000355e+01,1.750000000000000355e+01,-1.825000000000000355e+01,7.250000000000000888e+00,1.375000000000000355e+01,-1.800000000000000355e+01,5.000000000000001776e+00,-5.500000000000001776e+00,2.000000000000000888e+00,1.850000000000000355e+01,-1.075000000000000355e+01,-8.250000000000001776e+00,1.225000000000000355e+01,-1.225000000000000355e+01,6.500000000000001776e+00,4.500000000000000888e+00,-6.750000000000001776e+00,-2.000000000000000444e+00,-7.000000000000000888e+00,2.100000000000000355e+01,-1.325000000000000355e+01,-4.500000000000000888e+00,1.625000000000000355e+01,-4.500000000000000888e+00,-1.675000000000000355e+01,2.300000000000000711e+01,-1.450000000000000355e+01,5.250000000000000888e+00,-7.750000000000001776e+00,1.500000000000000888e+00,1.300000000000000355e+01,-1.375000000000000355e+01,-3.000000000000000000e+00,2.300000000000000711e+01,-1.975000000000000355e+01,9.750000000000001776e+00,-1.650000000000000355e+01,1.225000000000000355e+01,1.125000000000000178e+01,-2.025000000000000355e+01,6.000000000000000888e+00,1.300000000000000355e+01,-9.500000000000001776e+00,-1.150000000000000178e+01,9.250000000000001776e+00,1.450000000000000355e+01,-1.475000000000000355e+01,1.000000000000000222e+00,4.000000000000000888e+00,-1.575000000000000355e+01,1.350000000000000355e+01,1.100000000000000178e+01,-1.675000000000000355e+01,7.500000000000001776e+00,-3.000000000000000888e+00,-1.175000000000000355e+01,2.325000000000000711e+01,-2.025000000000000355e+01,1.000000000000000178e+01,1.175000000000000355e+01,-1.625000000000000355e+01,-6.500000000000000888e+00,1.750000000000000355e+01,-2.500000000000000000e-01,-1.225000000000000355e+01,4.750000000000000888e+00,6.000000000000000888e+00,-1.550000000000000355e+01,1.950000000000000355e+01,-2.475000000000000711e+01,2.775000000000000711e+01,-2.225000000000000711e+01,9.250000000000001776e+00,1.125000000000000178e+01,-2.275000000000000711e+01,1.200000000000000355e+01,1.300000000000000355e+01,-1.575000000000000355e+01,3.500000000000000888e+00,-1.325000000000000355e+01,2.500000000000000711e+01,-2.600000000000000711e+01,2.300000000000000711e+01,-5.250000000000000888e+00,-1.400000000000000355e+01,5.500000000000000888e+00,4.500000000000000888e+00,1.275000000000000355e+01,-2.425000000000000711e+01,1.025000000000000178e+01,5.250000000000000888e+00,3.500000000000000888e+00,-1.950000000000000711e+01,2.250000000000000711e+01,-1.050000000000000178e+01,-1.275000000000000355e+01,2.150000000000000711e+01,-1.700000000000000355e+01,1.750000000000000355e+01,-1.225000000000000355e+01,-1.750000000000000000e+00,8.500000000000001776e+00,-1.100000000000000355e+01,1.350000000000000355e+01,-1.175000000000000355e+01,5.250000000000000888e+00,7.250000000000001776e+00,-7.000000000000001776e+00,-7.250000000000001776e+00,1.800000000000000355e+01,-2.025000000000000355e+01,2.175000000000000711e+01,-1.425000000000000355e+01,2.750000000000000888e+00,-1.375000000000000355e+01,2.050000000000000711e+01,-1.525000000000000355e+01,1.250000000000000355e+01,4.250000000000000888e+00,-1.125000000000000178e+01,-6.250000000000001776e+00,9.250000000000001776e+00,1.150000000000000355e+01,-2.625000000000000711e+01,2.800000000000000711e+01,-2.175000000000000711e+01,2.500000000000000888e+00,1.450000000000000355e+01,-1.825000000000000355e+01,1.750000000000000355e+01,-1.675000000000000355e+01,1.550000000000000355e+01,-1.425000000000000355e+01,1.575000000000000355e+01,-6.500000000000001776e+00,-1.200000000000000178e+01,1.350000000000000355e+01,-7.500000000000000000e-01,3.500000000000000888e+00,-8.000000000000001776e+00,3.500000000000000888e+00,-1.175000000000000178e+01,1.900000000000000355e+01,-2.000000000000000355e+01,2.025000000000000355e+01,-1.200000000000000178e+01,-1.000000000000000444e+00,-1.250000000000000000e+00,7.500000000000001776e+00,6.750000000000001776e+00,-1.425000000000000355e+01,9.750000000000001776e+00,-1.175000000000000355e+01,1.000000000000000355e+01,-1.175000000000000355e+01,6.000000000000001776e+00,5.250000000000000888e+00,-3.750000000000000888e+00,-1.500000000000000222e+00,1.525000000000000355e+01,-2.575000000000000711e+01,1.875000000000000355e+01,-4.250000000000000000e+00,5.500000000000001776e+00,-2.150000000000000711e+01,2.200000000000000711e+01,-1.500000000000000000e+00,-1.250000000000000355e+01,8.250000000000001776e+00,2.750000000000000444e+00,-1.650000000000000355e+01,1.075000000000000355e+01,1.025000000000000178e+01,-5.500000000000000888e+00,-4.000000000000000888e+00,-2.500000000000001110e-01,-8.750000000000001776e+00,1.000000000000000178e+01,1.750000000000000444e+00,6.750000000000001776e+00,-1.325000000000000355e+01,5.000000000000000000e-01,1.050000000000000355e+01,-1.775000000000000355e+01,1.525000000000000355e+01,3.250000000000000888e+00,-1.950000000000000711e+01,2.125000000000000711e+01,-1.875000000000000355e+01,9.500000000000001776e+00,8.750000000000001776e+00,-5.500000000000000888e+00,-1.275000000000000355e+01,2.175000000000000711e+01,-2.075000000000000711e+01,2.500000000000000000e+00,6.250000000000001776e+00,7.250000000000001776e+00,-1.750000000000000888e+00,-1.375000000000000355e+01,1.725000000000000355e+01,-2.075000000000000355e+01,2.050000000000000355e+01,-4.750000000000000888e+00,-1.150000000000000355e+01,7.500000000000001776e+00,5.000000000000000888e+00,-5.500000000000000888e+00,-1.275000000000000355e+01,1.750000000000000355e+01,5.000000000000000888e+00,-1.725000000000000355e+01,1.550000000000000355e+01,-2.200000000000000711e+01,2.525000000000000711e+01,-1.025000000000000178e+01,-1.475000000000000355e+01,2.650000000000000711e+01,-2.700000000000000711e+01,2.000000000000000355e+01,-6.500000000000000888e+00,8.000000000000001776e+00,-1.700000000000000355e+01,5.500000000000000888e+00,1.425000000000000355e+01,-9.500000000000001776e+00,-5.000000000000000888e+00,1.325000000000000355e+01,-2.000000000000000000e+00,-1.625000000000000355e+01,2.325000000000000711e+01,-2.100000000000000711e+01,3.500000000000000888e+00,1.450000000000000355e+01,-1.175000000000000178e+01,-7.750000000000001776e+00,1.650000000000000355e+01,-1.500000000000000000e+00,-1.825000000000000711e+01,1.725000000000000355e+01,-5.000000000000000000e-01,-1.025000000000000178e+01,2.500000000000000000e-01,1.250000000000000355e+01,-4.500000000000001776e+00,-1.175000000000000178e+01,1.225000000000000355e+01,7.000000000000000888e+00,-1.375000000000000355e+01,-5.000000000000000888e+00,8.750000000000001776e+00,9.750000000000001776e+00,-2.225000000000000711e+01,2.000000000000000711e+01,2.500000000000000000e-01,-2.325000000000000711e+01,2.400000000000000711e+01,-3.250000000000000888e+00,-1.850000000000000355e+01,1.600000000000000355e+01,5.500000000000001776e+00,-1.925000000000000355e+01,1.475000000000000355e+01,-4.500000000000000888e+00,-1.325000000000000355e+01,2.875000000000000711e+01,-1.700000000000000355e+01,-1.000000000000000355e+01,2.475000000000000711e+01,-1.075000000000000355e+01,-1.250000000000000178e+01,6.000000000000000888e+00,1.525000000000000355e+01,-8.500000000000001776e+00,-1.450000000000000355e+01,2.275000000000000711e+01,-6.500000000000000888e+00,-1.750000000000000355e+01,2.150000000000000711e+01,-7.500000000000001776e+00,-1.000000000000000222e+00,1.250000000000000178e+01,-1.000000000000000178e+01,-3.000000000000000888e+00,1.100000000000000178e+01,-2.075000000000000355e+01,7.750000000000000888e+00,9.250000000000003553e+00,-8.750000000000001776e+00,1.825000000000000355e+01,-3.200000000000000711e+01,2.925000000000000711e+01,-1.425000000000000355e+01,-1.750000000000000444e+00,1.175000000000000355e+01,-2.275000000000000711e+01,2.000000000000000355e+01,7.500000000000008882e-01,-1.550000000000000355e+01,1.150000000000000178e+01,2.000000000000000444e+00,-1.950000000000000355e+01,3.075000000000000711e+01,-2.125000000000000355e+01,-6.250000000000000888e+00,2.100000000000000355e+01,-1.000000000000000000e+00,-1.025000000000000178e+01,-9.000000000000001776e+00,8.750000000000001776e+00,1.825000000000000355e+01,-3.075000000000000711e+01,2.975000000000000711e+01,-2.075000000000000355e+01,-6.250000000000002665e+00,2.875000000000000711e+01,-2.450000000000000711e+01,-1.500000000000000000e+00,2.550000000000000711e+01,-2.550000000000000711e+01,2.250000000000000000e+00,2.125000000000000711e+01,-3.150000000000000711e+01,3.300000000000000711e+01,-2.175000000000000711e+01,-4.500000000000000000e+00,1.400000000000000355e+01,-6.750000000000001776e+00,8.750000000000001776e+00,-4.250000000000000888e+00,8.750000000000001776e+00,-9.750000000000001776e+00,0.000000000000000000e+00,-1.000000000000000222e+00,-1.325000000000000355e+01,2.975000000000000711e+01,-1.825000000000000355e+01,-1.075000000000000355e+01,2.600000000000000711e+01,-1.000000000000000355e+01,-1.800000000000000355e+01,1.675000000000000355e+01,9.500000000000001776e+00,-9.500000000000001776e+00,-6.250000000000001776e+00,1.100000000000000355e+01,-1.775000000000000355e+01,1.225000000000000178e+01,-5.250000000000000888e+00,1.600000000000000355e+01,-1.375000000000000178e+01,-9.750000000000003553e+00,2.475000000000000711e+01,-1.625000000000000355e+01,-1.075000000000000355e+01,3.025000000000000711e+01,-2.575000000000000711e+01,3.500000000000000000e+00,2.325000000000000711e+01,-2.300000000000000711e+01,1.300000000000000355e+01,-1.425000000000000355e+01,2.750000000000000888e+00,1.500000000000000355e+01,-1.875000000000000355e+01,1.250000000000000355e+01,-1.000000000000000000e+00,-1.800000000000000355e+01,2.075000000000000711e+01,-9.500000000000003553e+00,1.750000000000000444e+00,1.250000000000000178e+01,-1.375000000000000355e+01,7.500000000000001776e+00,-1.925000000000000355e+01,1.375000000000000355e+01,3.500000000000000888e+00,-5.250000000000000888e+00,1.250000000000000000e+00,-7.500000000000000000e-01,1.700000000000000355e+01,-1.750000000000000355e+01,-2.250000000000000444e+00,1.325000000000000355e+01,-2.025000000000000711e+01,9.250000000000003553e+00,1.275000000000000178e+01,-1.600000000000000355e+01,5.000000000000008882e-01,8.750000000000001776e+00,3.250000000000000888e+00,-1.175000000000000355e+01,1.575000000000000355e+01,-1.750000000000000355e+01,1.600000000000000355e+01,-1.725000000000000355e+01,-1.750000000000000000e+00,2.100000000000000355e+01,-6.750000000000000888e+00,-1.975000000000000355e+01,2.925000000000000711e+01,-2.500000000000000711e+01,2.350000000000000711e+01,-3.500000000000000711e+01,3.175000000000000711e+01,-9.500000000000001776e+00,-1.750000000000000444e+00,8.500000000000001776e+00,-1.875000000000000711e+01,2.175000000000000711e+01,1.025000000000000178e+01,-2.325000000000000355e+01,-3.250000000000000888e+00,1.850000000000000355e+01,-1.150000000000000178e+01,1.500000000000000355e+01,-1.025000000000000355e+01,7.500000000000000000e-01,-3.250000000000000444e+00,-9.000000000000001776e+00,1.750000000000000355e+01,-3.250000000000000000e+00,-1.425000000000000355e+01,2.425000000000000711e+01,-3.225000000000000711e+01,2.750000000000000711e+01,1.425000000000000355e+01,-3.450000000000000711e+01,-2.500000000000000000e-01,1.350000000000000355e+01,-1.725000000000000355e+01,6.500000000000000888e+00,5.425000000000001421e+01,-7.275000000000001421e+01,3.225000000000000711e+01,-1.400000000000000355e+01,1.925000000000000355e+01,-2.850000000000000711e+01,2.500000000000000711e+01,-1.475000000000000355e+01,-1.425000000000000355e+01,2.950000000000000711e+01,-1.950000000000000355e+01,1.575000000000000355e+01,1.150000000000000178e+01,-3.750000000000000711e+01,2.700000000000000711e+01,-1.450000000000000355e+01,1.075000000000000355e+01,2.500000000000000888e+00,-1.025000000000000355e+01,9.250000000000003553e+00,-1.325000000000000355e+01,-7.500000000000001776e+00,2.800000000000000711e+01,-4.000000000000001421e+01,2.000000000000000711e+01,4.150000000000000711e+01,-5.075000000000001421e+01,1.875000000000000355e+01,-1.325000000000000178e+01,4.750000000000000888e+00,1.275000000000000355e+01,-1.850000000000000355e+01,2.125000000000000355e+01,-2.800000000000000711e+01,1.125000000000000178e+01,2.750000000000000711e+01,-2.400000000000000355e+01,1.500000000000000444e+00,-2.050000000000000355e+01,1.975000000000000355e+01,9.250000000000001776e+00,-1.400000000000000355e+01,-4.000000000000000000e+00,6.750000000000000888e+00,2.500000000000000000e-01,1.850000000000000355e+01,-9.750000000000003553e+00,-2.725000000000000355e+01,2.225000000000000355e+01,-3.250000000000000888e+00,1.350000000000000355e+01,-6.750000000000001776e+00,-3.200000000000000711e+01,4.175000000000001421e+01,-2.525000000000000711e+01,-7.500000000000000000e-01,1.600000000000000355e+01,6.500000000000001776e+00,-1.750000000000000000e+00,-2.975000000000000711e+01,2.450000000000000355e+01,1.025000000000000355e+01,-1.500000000000000355e+01,-9.750000000000003553e+00,1.525000000000000355e+01,-1.175000000000000178e+01,1.775000000000000355e+01,-1.025000000000000178e+01,6.250000000000001776e+00,-2.050000000000000355e+01,6.750000000000001776e+00,1.475000000000000355e+01,-1.575000000000000355e+01,1.625000000000000355e+01,-2.225000000000000711e+01,2.000000000000000355e+01,8.750000000000003553e+00,-2.575000000000000711e+01,1.900000000000000711e+01,5.750000000000000000e+00,-2.325000000000000355e+01,-2.500000000000000000e-01,1.625000000000000355e+01,-5.000000000000000888e+00,2.000000000000000444e+00,-5.250000000000001776e+00,5.750000000000001776e+00,-1.600000000000000355e+01,3.075000000000000711e+01,-1.950000000000000355e+01,-4.500000000000001776e+00,5.250000000000001776e+00,5.500000000000001776e+00,7.000000000000000888e+00,-7.500000000000000000e-01,-9.250000000000001776e+00,4.500000000000000888e+00,-1.500000000000000355e+01,1.250000000000000000e+00,1.650000000000000355e+01,-9.500000000000001776e+00,-8.750000000000001776e+00,1.775000000000000355e+01,1.050000000000000178e+01,-2.000000000000000355e+01,-2.475000000000000711e+01,2.800000000000000711e+01,2.375000000000000711e+01,-3.475000000000000711e+01,9.000000000000001776e+00,1.050000000000000178e+01,-1.900000000000000355e+01,1.100000000000000178e+01,4.500000000000001776e+00,1.000000000000000000e+00,-1.750000000000000355e+01,1.000000000000000178e+01,1.125000000000000178e+01,-1.450000000000000355e+01,8.500000000000001776e+00,-1.275000000000000355e+01,-4.250000000000001776e+00,2.200000000000000711e+01,-8.500000000000001776e+00,-1.700000000000000355e+01
