3.912474999999997038e+01,3.906224999999997038e+01,3.909349999999997038e+01,3.923412499999997038e+01,3.943724999999997038e+01,3.942162499999997038e+01,3.962474999999997038e+01,3.993724999999997038e+01,4.032787499999997038e+01,4.079662499999997038e+01,4.112474999999997038e+01,4.140599999999997038e+01,4.171849999999997038e+01,4.209349999999997038e+01,4.235912499999997038e+01,4.256224999999997038e+01,4.264037499999997038e+01,4.274974999999997038e+01,4.293724999999997038e+01,4.320287499999997038e+01,4.332787499999997038e+01,4.343724999999997038e+01,4.345287499999997038e+01,4.343724999999997038e+01,4.343724999999997038e+01,4.328099999999997038e+01,4.309349999999997038e+01,4.273412499999997038e+01,4.251537499999997038e+01,4.235912499999997038e+01,4.228099999999997038e+01,4.218724999999997038e+01,4.207787499999997038e+01,4.206224999999997038e+01,4.206224999999997038e+01,4.214037499999997038e+01,4.218724999999997038e+01,4.221849999999997038e+01,4.223412499999997038e+01,4.234349999999997038e+01,4.248412499999997038e+01,4.260912499999997038e+01,4.270287499999997038e+01,4.279662499999997038e+01,4.281224999999997038e+01,4.278099999999997038e+01,4.278099999999997038e+01,4.271849999999997038e+01,4.273412499999997038e+01,4.282787499999997038e+01,4.296849999999997038e+01,4.312474999999997038e+01,4.337474999999997038e+01,4.379662499999997038e+01,4.429662499999997038e+01,4.489037499999997038e+01,4.546849999999997038e+01,4.598412499999997038e+01,4.656224999999997038e+01,4.726537499999997749e+01,4.806224999999998460e+01,4.874974999999999170e+01,4.935912499999999170e+01,4.987474999999999170e+01,5.040599999999999170e+01,5.089037499999999170e+01,5.129662499999999170e+01,5.154662499999999170e+01,5.160912499999999170e+01,5.162474999999999170e+01,5.154662499999999170e+01,5.145287499999999170e+01,5.117162499999999170e+01,5.090599999999999170e+01,5.051537499999999170e+01,5.001537499999999170e+01,4.948412499999999170e+01,4.885912499999999170e+01,4.817162499999999170e+01,4.740599999999997749e+01,4.667162499999997038e+01,4.596849999999997038e+01,4.534349999999997038e+01,4.478099999999997038e+01,4.428099999999997038e+01,4.384349999999997038e+01,4.351537499999997038e+01,4.324974999999997038e+01,4.303099999999997038e+01,4.271849999999997038e+01,4.243724999999997038e+01,4.221849999999997038e+01,4.203099999999997038e+01,4.135912499999997038e+01,4.021849999999997038e+01,3.864037499999997038e+01,3.664037499999997038e+01,3.428099999999997038e+01,3.145287499999997038e+01,2.801537499999997038e+01
-1.562500000000001110e-01,-3.125000000000002776e-02,-1.875000000000001110e-01,-2.031250000000001388e-01,3.124999999999998612e-02,-5.156250000000004441e-01,-4.062500000000003331e-01,-2.812500000000002220e-01,-4.843750000000003886e-01,4.687500000000002776e-02,3.125000000000000000e-02,-5.551115123125782702e-17,4.375000000000003331e-01,5.000000000000004441e-01,6.093750000000004441e-01,5.937500000000004441e-01,7.812500000000008327e-02,-4.062500000000003331e-01,-5.937500000000004441e-01,-6.718750000000004441e-01,-3.593750000000002776e-01,2.812500000000001665e-01,6.406250000000004441e-01,1.156250000000000888e+00,1.218750000000000888e+00,6.875000000000004441e-01,1.875000000000001665e-01,-7.031250000000004441e-01,-1.046875000000000666e+00,-8.906250000000006661e-01,-5.625000000000004441e-01,9.375000000000008327e-02,3.906250000000003331e-01,4.687500000000003331e-01,3.437500000000002220e-01,1.562500000000001388e-02,-2.812500000000002220e-01,-5.000000000000003331e-01,-5.156250000000003331e-01,-3.750000000000003331e-01,-1.562500000000002776e-02,2.968750000000002220e-01,3.906250000000002776e-01,4.843750000000003331e-01,2.812500000000001665e-01,1.250000000000000833e-01,1.250000000000000833e-01,-6.250000000000002776e-02,-1.406250000000000833e-01,-4.218750000000002220e-01,-7.500000000000004441e-01,-8.437500000000006661e-01,-7.187500000000004441e-01,-2.031250000000001110e-01,2.343750000000001665e-01,3.906250000000003331e-01,1.250000000000001110e-01,-3.906250000000002220e-01,-6.562500000000004441e-01,-5.468750000000003331e-01,-3.125000000000002776e-02,4.062500000000002220e-01,5.468750000000004441e-01,4.687500000000003331e-01,1.875000000000001110e-01,2.031250000000001665e-01,4.218750000000003331e-01,5.468750000000004441e-01,7.968750000000005551e-01,5.937500000000004441e-01,2.968750000000002220e-01,2.031250000000001388e-01,-1.406250000000000833e-01,6.250000000000008327e-02,2.656250000000002220e-01,3.906250000000002220e-01,7.343750000000004441e-01,6.093750000000004441e-01,4.843750000000002776e-01,1.875000000000001110e-01,-2.031250000000001388e-01,-4.375000000000003331e-01,-7.500000000000004441e-01,-7.500000000000004441e-01,-7.500000000000004441e-01,-5.000000000000003331e-01,1.562500000000002776e-02,2.187500000000001665e-01,5.625000000000004441e-01,4.375000000000003331e-01,-3.125000000000002776e-02,-1.875000000000001110e-01,-6.250000000000004441e-01,-1.406250000000001110e-01,1.187500000000000888e+00,2.703125000000001776e+00,5.078125000000003553e+00,5.562500000000003553e+00,4.203125000000002665e+00,1.828125000000001332e+00
6.875000000000002220e-01,-6.250000000000003331e-01,-1.750000000000000888e+00,6.250000000000002220e-01,2.187500000000000888e+00,-5.000000000000002220e-01,-1.812500000000000888e+00,-5.000000000000002220e-01,5.625000000000002220e-01,1.062500000000000444e+00,0.000000000000000000e+00,-1.000000000000000444e+00,-2.500000000000001110e-01,3.125000000000001665e-01,6.875000000000004441e-01,1.000000000000000444e+00,-6.250000000000000000e-02,-9.375000000000004441e-01,-4.375000000000002220e-01,-1.250000000000000555e-01,-6.250000000000002776e-02,1.875000000000000833e-01,6.250000000000002776e-02,6.250000000000002776e-02,5.000000000000002220e-01,1.187500000000000666e+00,8.750000000000004441e-01,-1.125000000000000666e+00,-1.812500000000000888e+00,-3.125000000000000555e-01,6.875000000000003331e-01,3.750000000000001665e-01,-6.250000000000002776e-02,1.250000000000000833e-01,2.500000000000001110e-01,0.000000000000000000e+00,0.000000000000000000e+00,-6.250000000000002776e-02,-5.625000000000002220e-01,-5.625000000000003331e-01,1.875000000000000278e-01,5.000000000000002220e-01,3.125000000000001665e-01,1.250000000000000555e-01,-1.875000000000001110e-01,0.000000000000000000e+00,2.500000000000001110e-01,-2.500000000000001110e-01,-1.875000000000001110e-01,5.000000000000002220e-01,1.875000000000001110e-01,-8.750000000000004441e-01,-1.000000000000000444e+00,-1.875000000000000833e-01,3.750000000000002220e-01,8.750000000000004441e-01,1.062500000000000444e+00,-1.875000000000000000e-01,-1.750000000000000666e+00,-1.312500000000000444e+00,6.250000000000003331e-01,1.500000000000000888e+00,7.500000000000003331e-01,-4.375000000000002220e-01,-9.375000000000004441e-01,-1.875000000000001110e-01,6.875000000000003331e-01,5.625000000000002220e-01,0.000000000000000000e+00,-6.250000000000002776e-02,5.625000000000002220e-01,2.500000000000001110e-01,-8.750000000000004441e-01,-3.125000000000001665e-01,6.250000000000003331e-01,2.500000000000001110e-01,-6.250000000000004163e-02,1.875000000000000833e-01,5.000000000000002220e-01,3.125000000000001665e-01,-3.125000000000001665e-01,-6.250000000000002220e-01,-1.875000000000000555e-01,3.750000000000001665e-01,-1.250000000000001110e-01,-9.375000000000004441e-01,-6.250000000000002220e-01,6.875000000000004441e-01,1.312500000000000888e+00,1.110223024625156540e-16,-7.500000000000003331e-01,1.250000000000000555e-01,0.000000000000000000e+00,-5.625000000000002220e-01,-2.500000000000001110e-01,6.250000000000002776e-02,1.875000000000000833e-01,2.062500000000000888e+00,6.250000000000002665e+00,4.312500000000001776e+00
1.250000000000000444e+00,-5.000000000000002220e-01,-2.500000000000000555e-01,-2.750000000000000444e+00,6.250000000000001776e+00,-4.500000000000000888e+00,5.000000000000001110e-01,7.500000000000002220e-01,-1.500000000000000222e+00,2.000000000000000444e+00,-2.500000000000001110e-01,-1.500000000000000444e+00,1.000000000000000222e+00,0.000000000000000000e+00,-7.500000000000002220e-01,1.750000000000000444e+00,-7.500000000000002220e-01,-5.000000000000001110e-01,0.000000000000000000e+00,5.000000000000001110e-01,-1.000000000000000222e+00,1.000000000000000222e+00,-2.500000000000000555e-01,-7.500000000000002220e-01,1.750000000000000444e+00,-2.250000000000000444e+00,3.750000000000000888e+00,-3.000000000000000444e+00,2.500000000000000555e-01,-2.500000000000000555e-01,5.000000000000001110e-01,2.500000000000000555e-01,-5.000000000000001110e-01,2.500000000000000555e-01,2.500000000000000555e-01,-2.500000000000000555e-01,0.000000000000000000e+00,2.500000000000000555e-01,-2.500000000000000555e-01,-5.000000000000001110e-01,2.500000000000000555e-01,5.000000000000001110e-01,-5.000000000000001110e-01,5.000000000000001110e-01,0.000000000000000000e+00,-1.000000000000000222e+00,1.750000000000000444e+00,-1.500000000000000444e+00,5.000000000000001110e-01,0.000000000000000000e+00,5.000000000000001110e-01,-5.000000000000001110e-01,-7.500000000000002220e-01,5.000000000000002220e-01,0.000000000000000000e+00,-2.500000000000000555e-01,1.250000000000000444e+00,-5.000000000000002220e-01,-2.500000000000000555e-01,-1.500000000000000444e+00,1.250000000000000444e+00,2.500000000000000555e-01,2.500000000000000555e-01,0.000000000000000000e+00,-7.500000000000002220e-01,0.000000000000000000e+00,5.000000000000001110e-01,2.500000000000000555e-01,-5.000000000000001110e-01,7.500000000000002220e-01,-1.500000000000000444e+00,3.000000000000000888e+00,-3.250000000000000888e+00,1.250000000000000222e+00,5.000000000000001110e-01,-7.500000000000002220e-01,7.500000000000002220e-01,-7.500000000000002220e-01,7.500000000000002220e-01,0.000000000000000000e+00,-2.500000000000000555e-01,0.000000000000000000e+00,-5.000000000000001110e-01,5.000000000000001110e-01,5.000000000000002220e-01,-1.500000000000000444e+00,1.000000000000000222e+00,-1.250000000000000222e+00,2.000000000000000444e+00,-2.500000000000000000e-01,-1.750000000000000444e+00,1.750000000000000444e+00,-5.000000000000002220e-01,-7.500000000000002220e-01,7.500000000000002220e-01,-5.000000000000001110e-01,0.000000000000000000e+00,1.000000000000000222e+00,-2.000000000000000444e+00,1.075000000000000178e+01
