-6.534999999999973497e+00,-7.003749999999973497e+00,-7.503749999999973497e+00,-8.034999999999973497e+00,-8.519374999999973497e+00,-8.878749999999973497e+00,-9.175624999999973497e+00,-9.316249999999973497e+00,-9.206874999999973497e+00,-9.097499999999973497e+00,-8.894374999999973497e+00,-8.691249999999973497e+00,-8.503749999999973497e+00,-8.409999999999973497e+00,-8.300624999999973497e+00,-8.425624999999973497e+00,-8.894374999999973497e+00,-9.222499999999973497e+00,-9.644374999999973497e+00,-1.006624999999997350e+01,-1.055062499999997350e+01,-1.105062499999997350e+01,-1.169124999999997527e+01,-1.231624999999997883e+01,-1.276937499999997883e+01,-1.325374999999997883e+01,-1.361312499999997883e+01,-1.392562499999997883e+01,-1.408187499999997883e+01,-1.408187499999997883e+01,-1.392562499999997883e+01,-1.364437499999997883e+01,-1.333187499999997883e+01,-1.303499999999997883e+01,-1.284749999999997883e+01,-1.267562499999997883e+01,-1.264437499999997883e+01,-1.270687499999997883e+01,-1.256624999999997883e+01,-1.240999999999997883e+01,-1.222249999999997883e+01,-1.200374999999997705e+01,-1.169124999999997527e+01,-1.131624999999997527e+01,-1.083187499999997350e+01,-1.031624999999997350e+01,-1.009749999999997350e+01,-9.878749999999973497e+00,-9.628749999999973497e+00,-9.363124999999973497e+00,-9.050624999999973497e+00,-8.738124999999973497e+00,-8.566249999999973497e+00,-8.519374999999973497e+00,-8.488124999999973497e+00,-8.409999999999973497e+00,-8.409999999999973497e+00,-8.472499999999973497e+00,-8.738124999999973497e+00,-9.128749999999973497e+00,-9.284999999999973497e+00,-9.191249999999973497e+00,-8.941249999999973497e+00,-8.800624999999973497e+00,-8.566249999999973497e+00,-8.269374999999973497e+00,-7.831874999999973497e+00,-7.331874999999973497e+00,-7.144374999999973497e+00,-7.238124999999973497e+00,-7.347499999999973497e+00,-7.409999999999973497e+00,-7.550624999999973497e+00,-7.769374999999973497e+00,-8.019374999999973497e+00,-8.331874999999973497e+00,-8.472499999999973497e+00,-8.503749999999973497e+00,-8.659999999999973497e+00,-8.894374999999973497e+00,-9.206874999999973497e+00,-9.488124999999973497e+00,-9.784999999999973497e+00,-1.006624999999997350e+01,-1.039437499999997350e+01,-1.061312499999997350e+01,-1.070687499999997350e+01,-1.075374999999997350e+01,-1.069124999999997350e+01,-1.059749999999997350e+01,-1.045687499999997350e+01,-1.020687499999997350e+01,-9.831874999999973497e+00,-9.269374999999973497e+00,-8.394374999999973497e+00,-7.144374999999973497e+00,-5.628749999999971720e+00,-3.816249999999970832e+00,-1.628749999999969278e+00,8.868750000000320544e-01
1.062500000000000888e+00,3.125000000000002776e-02,-6.562500000000004441e-01,-1.125000000000000888e+00,-8.281250000000005551e-01,-2.812500000000002220e-01,-4.687500000000006245e-02,-9.375000000000008327e-02,-7.031250000000004441e-01,-1.125000000000000666e+00,-1.203125000000000666e+00,-5.937500000000002220e-01,8.437500000000007772e-01,1.625000000000001332e+00,2.140625000000001776e+00,1.640625000000001110e+00,1.093750000000001665e-01,-6.250000000000003331e-01,-1.140625000000000666e+00,-7.812500000000004441e-01,2.031250000000001665e-01,6.406250000000004441e-01,8.437500000000006661e-01,5.312500000000004441e-01,4.687500000000005551e-02,-2.812500000000002220e-01,-6.718750000000005551e-01,-9.218750000000006661e-01,-1.203125000000000888e+00,-1.453125000000000888e+00,-1.109375000000000888e+00,-5.781250000000004441e-01,2.968750000000002220e-01,1.312500000000000888e+00,1.500000000000000888e+00,1.390625000000000888e+00,6.718750000000003331e-01,-4.531250000000003331e-01,-1.093750000000000888e+00,-1.500000000000000888e+00,-1.375000000000000888e+00,-7.812500000000005551e-01,9.375000000000005551e-02,7.812500000000004441e-01,1.109375000000000888e+00,1.031250000000000666e+00,1.875000000000001110e-01,-4.062500000000003331e-01,-6.562500000000004441e-01,-5.468750000000004441e-01,7.812500000000005551e-02,3.281250000000002220e-01,3.437500000000002220e-01,1.718750000000001388e-01,1.406250000000001110e-01,5.625000000000004441e-01,8.750000000000006661e-01,1.000000000000000666e+00,4.531250000000002776e-01,-4.062500000000003331e-01,-1.062500000000000888e+00,-1.406250000000000888e+00,-1.093750000000000888e+00,-7.968750000000006661e-01,-3.437500000000002776e-01,1.718750000000001110e-01,4.218750000000002220e-01,8.593750000000004441e-01,1.046875000000000666e+00,9.531250000000006661e-01,8.750000000000006661e-01,6.250000000000004441e-01,7.812500000000011102e-02,-5.156250000000004441e-01,-1.015625000000000666e+00,-1.265625000000000888e+00,-6.875000000000004441e-01,2.812500000000001665e-01,1.125000000000000888e+00,1.546875000000001332e+00,1.109375000000000666e+00,2.031250000000000833e-01,-7.500000000000005551e-01,-1.218750000000000888e+00,-1.078125000000000666e+00,-5.468750000000004441e-01,1.718750000000001110e-01,4.062500000000002220e-01,1.562500000000000833e-01,-2.500000000000001665e-01,-7.656250000000004441e-01,-8.281250000000004441e-01,-3.906250000000001665e-01,-2.656250000000001665e-01,-4.531250000000003331e-01,-1.265625000000000888e+00,-2.718750000000001776e+00,-3.343750000000002665e+00,-3.031250000000002220e+00,-1.609375000000001110e+00
1.875000000000001110e-01,-3.125000000000001110e-01,-1.250000000000000555e-01,-1.125000000000000444e+00,-1.437500000000000666e+00,3.750000000000002220e-01,1.687500000000000888e+00,6.250000000000003331e-01,-1.125000000000000444e+00,-1.062500000000000444e+00,6.250000000000000000e-02,-2.500000000000001110e-01,-1.625000000000000666e+00,0.000000000000000000e+00,4.125000000000001776e+00,2.750000000000001776e+00,-2.500000000000000888e+00,-2.437500000000000888e+00,2.500000000000001110e-01,6.250000000000005551e-02,-4.375000000000002220e-01,8.750000000000004441e-01,1.562500000000000666e+00,0.000000000000000000e+00,-1.312500000000000444e+00,-5.000000000000001110e-01,7.500000000000003331e-01,5.625000000000002220e-01,-7.500000000000004441e-01,-1.250000000000000666e+00,-5.000000000000002220e-01,-6.250000000000006939e-02,-5.551115123125782702e-17,1.875000000000001110e-01,8.125000000000004441e-01,1.750000000000000888e+00,6.875000000000002220e-01,-1.375000000000000666e+00,-1.125000000000000444e+00,-1.250000000000000555e-01,-1.875000000000001110e-01,-2.500000000000001110e-01,-4.375000000000001665e-01,-5.000000000000002220e-01,1.187500000000000444e+00,2.250000000000000888e+00,1.250000000000001110e-01,-1.750000000000000888e+00,-1.250000000000000666e+00,-1.250000000000000555e-01,6.875000000000003331e-01,8.750000000000004441e-01,4.375000000000002220e-01,-1.875000000000000833e-01,-6.875000000000003331e-01,-9.375000000000004441e-01,0.000000000000000000e+00,2.187500000000000888e+00,2.250000000000001332e+00,-1.000000000000000444e+00,-3.187500000000001776e+00,-1.187500000000000666e+00,1.750000000000000888e+00,1.312500000000000666e+00,-1.125000000000000444e+00,-1.937500000000000888e+00,1.250000000000000000e-01,2.437500000000001332e+00,1.062500000000000666e+00,-1.500000000000000666e+00,-5.625000000000002220e-01,1.250000000000000666e+00,6.875000000000004441e-01,0.000000000000000000e+00,-2.500000000000001110e-01,-1.437500000000000444e+00,-1.625000000000000666e+00,1.875000000000000000e-01,1.750000000000000666e+00,1.562500000000000666e+00,3.125000000000001110e-01,-5.000000000000002220e-01,-5.000000000000002220e-01,-5.000000000000002220e-01,-8.125000000000004441e-01,-6.250000000000002220e-01,2.500000000000001665e-01,1.062500000000000444e+00,1.250000000000000444e+00,-1.875000000000002220e-01,-2.062500000000000888e+00,-1.000000000000000444e+00,1.187500000000000444e+00,5.000000000000002220e-01,-6.875000000000004441e-01,3.750000000000001665e-01,1.062500000000000444e+00,-1.375000000000000444e+00,-4.625000000000001776e+00,-2.812500000000000888e+00
-2.500000000000000000e-01,-1.250000000000000444e+00,1.750000000000000444e+00,-1.250000000000000222e+00,-7.500000000000002220e-01,2.500000000000001110e-01,1.000000000000000222e+00,2.500000000000001110e-01,-5.000000000000002220e-01,-1.250000000000000222e+00,1.500000000000000444e+00,-1.000000000000000222e+00,7.500000000000002220e-01,-2.750000000000000444e+00,2.500000000000000444e+00,4.500000000000000888e+00,-6.250000000000001776e+00,1.750000000000000444e+00,0.000000000000000000e+00,2.500000000000000555e-01,-7.500000000000002220e-01,0.000000000000000000e+00,1.750000000000000444e+00,-7.500000000000001110e-01,-5.000000000000001110e-01,-5.000000000000001110e-01,1.000000000000000222e+00,-2.500000000000000555e-01,5.000000000000002220e-01,-1.750000000000000444e+00,1.000000000000000222e+00,-2.500000000000000555e-01,-5.000000000000002220e-01,1.000000000000000222e+00,-1.000000000000000222e+00,1.000000000000000222e+00,1.750000000000000444e+00,-3.000000000000000888e+00,1.250000000000000222e+00,-5.000000000000001110e-01,2.500000000000000555e-01,-5.000000000000001110e-01,5.000000000000001110e-01,-5.000000000000001110e-01,-1.000000000000000444e+00,3.500000000000000888e+00,-1.750000000000000444e+00,-5.000000000000001110e-01,0.000000000000000000e+00,-5.000000000000002220e-01,7.500000000000002220e-01,0.000000000000000000e+00,2.500000000000000555e-01,0.000000000000000000e+00,-5.000000000000001110e-01,2.500000000000000555e-01,-1.000000000000000222e+00,7.500000000000002220e-01,2.500000000000000444e+00,-2.000000000000000444e+00,0.000000000000000000e+00,-2.750000000000000444e+00,3.750000000000000888e+00,-1.250000000000000222e+00,5.000000000000001110e-01,-1.500000000000000444e+00,-2.500000000000000000e-01,1.500000000000000222e+00,1.500000000000000444e+00,-2.750000000000000888e+00,5.000000000000001110e-01,1.000000000000000222e+00,2.500000000000001110e-01,-1.250000000000000444e+00,1.750000000000000444e+00,-1.500000000000000222e+00,-7.500000000000002220e-01,5.000000000000001110e-01,2.500000000000000555e-01,1.250000000000000222e+00,-7.500000000000002220e-01,2.500000000000000555e-01,-5.000000000000001110e-01,2.500000000000000555e-01,-2.500000000000000555e-01,-7.500000000000002220e-01,7.500000000000002220e-01,-2.500000000000000555e-01,7.500000000000002220e-01,5.000000000000001110e-01,-1.250000000000000222e+00,-1.500000000000000444e+00,2.500000000000000888e+00,-5.000000000000002220e-01,-1.000000000000000222e+00,5.000000000000002220e-01,7.500000000000002220e-01,0.000000000000000000e+00,-1.250000000000000444e+00,-4.000000000000000888e+00
