1.183499999999981567e+00,1.074124999999981567e+00,9.959999999999815667e-01,9.647499999999815667e-01,9.959999999999815667e-01,1.011624999999981567e+00,1.120999999999981567e+00,1.042874999999981567e+00,9.334999999999815667e-01,1.027249999999981567e+00,1.058499999999981567e+00,1.042874999999981567e+00,9.178749999999815667e-01,5.741249999999812337e-01,1.522499999999809839e-01,-4.000000000019085511e-03,-8.212500000001914102e-02,-3.477500000000193214e-01,-5.977500000000194325e-01,-6.602500000000194325e-01,-6.290000000000194325e-01,-3.790000000000193214e-01,-1.915000000000192382e-01,-2.227500000000192659e-01,-2.383750000000192659e-01,-2.071250000000192382e-01,-1.915000000000192382e-01,-2.696250000000193214e-01,-4.258750000000193769e-01,-8.321250000000195435e-01,-1.160250000000019766e+00,-1.410250000000019988e+00,-1.441500000000020210e+00,-1.519625000000020210e+00,-1.660250000000020432e+00,-1.941500000000020432e+00,-2.285250000000020432e+00,-2.347750000000020432e+00,-2.457125000000020432e+00,-2.832125000000020876e+00,-3.847750000000021764e+00,-4.769625000000022652e+00,-5.582125000000022652e+00,-6.379000000000024428e+00,-7.082125000000024428e+00,-8.019625000000024428e+00,-8.894625000000024428e+00,-9.582125000000024428e+00,-9.879000000000024428e+00,-1.017587500000002443e+01,-1.044150000000002443e+01,-1.028525000000002443e+01,-1.014462500000002443e+01,-1.016025000000002443e+01,-1.037900000000002443e+01,-1.048837500000002443e+01,-1.050400000000002443e+01,-1.051962500000002443e+01,-1.059775000000002443e+01,-1.130087500000002620e+01,-1.209775000000002798e+01,-1.237900000000002976e+01,-1.234775000000002976e+01,-1.236337500000002976e+01,-1.253525000000002976e+01,-1.270712500000002976e+01,-1.287900000000002976e+01,-1.273837500000002976e+01,-1.233212500000002976e+01,-1.216025000000002976e+01,-1.198837500000002976e+01,-1.173837500000002798e+01,-1.130087500000002620e+01,-1.084775000000002443e+01,-1.033212500000002443e+01,-9.722750000000024428e+00,-9.363375000000024428e+00,-8.941500000000024428e+00,-8.629000000000024428e+00,-8.394625000000024428e+00,-8.269625000000024428e+00,-8.113375000000024428e+00,-7.847750000000024428e+00,-7.597750000000024428e+00,-7.066500000000024428e+00,-6.519625000000024428e+00,-6.066500000000024428e+00,-5.519625000000022652e+00,-4.785250000000021764e+00,-4.066500000000021764e+00,-3.535250000000021764e+00,-3.175875000000021764e+00,-3.191500000000021764e+00,-3.597750000000021764e+00,-4.191500000000021764e+00,-5.269625000000022652e+00,-7.066500000000024428e+00,-9.004000000000026205e+00,-1.076962500000002620e+01,-1.226962500000002798e+01
1.187500000000000888e+00,1.171875000000000888e+00,6.250000000000004441e-01,-2.812500000000001665e-01,-5.625000000000003331e-01,-8.906250000000004441e-01,-6.250000000000003331e-01,-2.968750000000002220e-01,-1.875000000000001110e-01,5.312500000000004441e-01,8.125000000000004441e-01,9.531250000000004441e-01,8.906250000000004441e-01,2.968750000000001665e-01,-1.562500000000001388e-01,-5.625000000000004441e-01,-6.093750000000004441e-01,-6.562500000000004441e-01,-6.562500000000004441e-01,-2.187500000000001665e-01,-1.250000000000000833e-01,1.250000000000000833e-01,3.125000000000002220e-01,-9.375000000000006939e-02,-7.812500000000004163e-02,2.031250000000001110e-01,4.375000000000002220e-01,8.906250000000004441e-01,8.593750000000004441e-01,2.656250000000001665e-01,-2.187500000000001665e-01,-5.937500000000004441e-01,-8.125000000000006661e-01,-6.718750000000004441e-01,-4.687500000000003331e-01,-3.125000000000002220e-01,5.937500000000002220e-01,1.218750000000000666e+00,1.453125000000000888e+00,1.578125000000000888e+00,3.437500000000002776e-01,-1.718750000000000555e-01,-1.093750000000000555e-01,-1.875000000000001388e-01,3.906250000000002220e-01,-4.687500000000016653e-02,-1.046875000000000888e+00,-1.546875000000001110e+00,-1.562500000000001110e+00,-8.281250000000005551e-01,4.375000000000002220e-01,7.812500000000004441e-01,2.031250000000001110e-01,-4.687500000000003886e-01,-1.437500000000001110e+00,-5.156250000000003331e-01,1.250000000000000888e+00,2.140625000000001776e+00,2.718750000000001776e+00,8.593750000000005551e-01,-1.468750000000000888e+00,-2.312500000000001332e+00,-2.468750000000001332e+00,-9.531250000000005551e-01,5.312500000000004441e-01,9.531250000000006661e-01,1.000000000000000666e+00,3.593750000000002220e-01,-2.343750000000001665e-01,-4.687500000000002776e-01,-9.531250000000004441e-01,-1.140625000000000666e+00,-8.906250000000005551e-01,-7.812500000000005551e-01,1.406250000000000555e-01,9.062500000000006661e-01,1.109375000000000666e+00,1.437500000000000888e+00,6.250000000000004441e-01,1.562500000000002776e-02,-4.843750000000002220e-01,-1.015625000000000666e+00,-4.687500000000003331e-01,-4.062500000000002220e-01,-2.500000000000001110e-01,-1.718750000000000833e-01,-6.875000000000004441e-01,-4.843750000000002776e-01,-9.375000000000001388e-02,5.000000000000003331e-01,1.093750000000000666e+00,1.109375000000000666e+00,1.125000000000000666e+00,1.156250000000000666e+00,1.687500000000000888e+00,2.703125000000001776e+00,3.312500000000002665e+00,3.062500000000002220e+00,1.453125000000000888e+00,-1.609375000000001110e+00
2.000000000000000888e+00,1.125000000000000444e+00,-5.000000000000001110e-01,-1.062500000000000444e+00,-5.625000000000003331e-01,-2.775557561562891351e-17,3.750000000000001665e-01,-1.250000000000000555e-01,-3.750000000000001665e-01,6.250000000000001388e-02,-5.000000000000002220e-01,3.750000000000002220e-01,2.562500000000001332e+00,7.500000000000004441e-01,-2.875000000000001332e+00,-1.562500000000000666e+00,2.062500000000000888e+00,1.375000000000000888e+00,-1.375000000000000888e+00,-1.750000000000000888e+00,-3.750000000000000555e-01,1.625000000000000888e+00,1.750000000000000888e+00,-8.125000000000004441e-01,-1.812500000000000888e+00,-3.750000000000002220e-01,8.750000000000004441e-01,1.250000000000000666e+00,4.375000000000002220e-01,-3.125000000000002220e-01,2.500000000000001110e-01,-3.750000000000002220e-01,-1.875000000000000888e+00,-1.875000000000000000e-01,2.500000000000001332e+00,6.250000000000004441e-01,-3.437500000000001776e+00,-2.250000000000001332e+00,4.125000000000001776e+00,5.125000000000001776e+00,-1.625000000000000444e+00,-4.437500000000001776e+00,-1.187500000000000666e+00,1.687500000000000888e+00,2.812500000000001332e+00,9.375000000000003331e-01,-2.187500000000001332e+00,-2.000000000000000888e+00,-1.875000000000001110e-01,-1.250000000000000555e-01,-3.750000000000001665e-01,8.750000000000004441e-01,2.312500000000000888e+00,1.000000000000000222e+00,-2.312500000000000888e+00,-3.625000000000001776e+00,-2.125000000000000888e+00,3.250000000000001776e+00,7.750000000000003553e+00,1.812500000000000888e+00,-6.312500000000002665e+00,-4.687500000000001776e+00,4.375000000000001110e-01,1.937500000000000888e+00,1.375000000000000666e+00,6.250000000000002220e-01,-5.000000000000002220e-01,-1.000000000000000444e+00,4.375000000000002220e-01,1.000000000000000444e+00,-6.875000000000003331e-01,-1.000000000000000444e+00,-1.875000000000000555e-01,-5.000000000000002220e-01,-1.875000000000001110e-01,4.375000000000002220e-01,6.250000000000003331e-01,1.125000000000000444e+00,6.250000000000003331e-01,-5.000000000000002220e-01,-8.750000000000004441e-01,-2.500000000000001110e-01,-6.250000000000000000e-02,-8.750000000000003331e-01,4.375000000000002220e-01,1.812500000000000888e+00,-3.750000000000000000e-01,-2.125000000000000888e+00,-1.000000000000000444e+00,6.875000000000003331e-01,1.812500000000000888e+00,1.687500000000000666e+00,-5.625000000000002220e-01,-2.187500000000000888e+00,1.250000000000000000e-01,2.437500000000000888e+00,1.125000000000000444e+00,5.625000000000002220e-01,1.937500000000000888e+00,1.000000000000000666e+00
7.500000000000002220e-01,-2.500000000000000555e-01,1.000000000000000222e+00,-2.500000000000000444e+00,2.250000000000000444e+00,-2.000000000000000444e+00,1.250000000000000222e+00,5.000000000000002220e-01,-2.250000000000000888e+00,2.500000000000000888e+00,-1.250000000000000222e+00,-1.250000000000000444e+00,2.750000000000000888e+00,5.000000000000002220e-01,-2.000000000000000444e+00,-1.750000000000000444e+00,2.750000000000000888e+00,7.500000000000002220e-01,-2.250000000000000888e+00,7.500000000000002220e-01,-7.500000000000002220e-01,-2.500000000000000000e-01,3.250000000000000888e+00,-2.750000000000000444e+00,2.500000000000000555e-01,-5.000000000000002220e-01,1.000000000000000222e+00,-7.500000000000002220e-01,2.250000000000000444e+00,-3.000000000000000888e+00,2.250000000000000444e+00,-5.000000000000001110e-01,-7.500000000000002220e-01,-1.500000000000000444e+00,2.750000000000000888e+00,7.500000000000002220e-01,-2.750000000000000888e+00,-5.000000000000002220e-01,-1.000000000000000000e+00,8.250000000000001776e+00,-5.750000000000000888e+00,-1.500000000000000444e+00,2.000000000000000444e+00,-2.000000000000000444e+00,3.000000000000000888e+00,2.500000000000000000e-01,-1.750000000000000444e+00,-7.500000000000002220e-01,7.500000000000002220e-01,2.500000000000000555e-01,-1.500000000000000222e+00,1.750000000000000444e+00,-1.250000000000000444e+00,3.750000000000000888e+00,-3.750000000000000888e+00,-2.500000000000000000e-01,5.000000000000001110e-01,-3.750000000000000888e+00,8.250000000000001776e+00,7.500000000000000000e-01,-7.000000000000001776e+00,1.500000000000000222e+00,-5.000000000000000000e-01,1.500000000000000222e+00,-2.500000000000000555e-01,2.500000000000000555e-01,5.000000000000002220e-01,-1.500000000000000444e+00,2.500000000000001110e-01,1.750000000000000444e+00,-1.250000000000000222e+00,-1.000000000000000222e+00,1.500000000000000444e+00,-7.500000000000002220e-01,-1.500000000000000444e+00,3.500000000000000888e+00,-4.250000000000000888e+00,4.500000000000000888e+00,-2.500000000000000444e+00,1.000000000000000222e+00,-2.500000000000000555e-01,-1.500000000000000222e+00,2.500000000000000444e+00,-2.000000000000000444e+00,-1.000000000000000222e+00,4.000000000000000888e+00,-2.750000000000000444e+00,2.500000000000000555e-01,-1.000000000000000222e+00,1.000000000000000222e+00,-2.500000000000000555e-01,1.500000000000000444e+00,-2.500000000000000000e-01,-1.250000000000000444e+00,-1.500000000000000444e+00,4.250000000000000888e+00,-2.250000000000000444e+00,5.000000000000001110e-01,5.000000000000001110e-01,2.000000000000000888e+00
