9.753749999999858922e-01,1.162874999999986114e+00,1.444124999999986336e+00,1.944124999999986780e+00,2.240999999999986780e+00,2.381624999999986780e+00,2.381624999999986780e+00,2.444124999999986780e+00,2.334749999999986780e+00,2.350374999999986780e+00,2.256624999999986780e+00,1.990999999999986780e+00,1.740999999999986780e+00,1.522249999999986558e+00,1.225374999999986336e+00,9.441249999999860032e-01,8.659999999999860032e-01,6.316249999999858922e-01,4.753749999999857812e-01,5.378749999999857812e-01,5.534999999999857812e-01,6.628749999999858922e-01,1.022249999999986114e+00,1.209749999999986114e+00,1.240999999999986114e+00,1.381624999999986336e+00,1.428499999999986336e+00,9.909999999999858922e-01,7.097499999999858922e-01,4.753749999999857812e-01,-5.587500000001462130e-02,-5.871250000000149960e-01,-9.465000000000152180e-01,-1.102750000000015218e+00,-1.243375000000015218e+00,-8.840000000000149960e-01,-6.652500000000149960e-01,-7.902500000000152180e-01,-7.121250000000151070e-01,-3.996250000000148850e-01,-2.902500000000147740e-01,-4.777500000000149960e-01,-6.027500000000149960e-01,-1.149625000000015440e+00,-1.540250000000015884e+00,-1.477750000000015662e+00,-1.477750000000015662e+00,-1.680875000000015884e+00,-1.759000000000015884e+00,-1.727750000000015884e+00,-1.743375000000015884e+00,-1.337125000000015440e+00,-9.777500000000152180e-01,-9.465000000000152180e-01,-9.621250000000152180e-01,-9.152500000000152180e-01,-9.465000000000152180e-01,-1.055875000000015218e+00,-1.087125000000015440e+00,-1.509000000000015440e+00,-2.180875000000015884e+00,-2.680875000000016328e+00,-2.962125000000016772e+00,-3.055875000000017216e+00,-2.977750000000016772e+00,-2.790250000000016328e+00,-2.665250000000015884e+00,-2.243375000000015884e+00,-1.555875000000015440e+00,-9.152500000000149960e-01,-6.965000000000149960e-01,-7.902500000000151070e-01,-1.055875000000015218e+00,-1.384000000000015440e+00,-1.602750000000015440e+00,-1.852750000000015884e+00,-2.337125000000016328e+00,-2.884000000000016328e+00,-3.102750000000017216e+00,-3.040250000000016772e+00,-2.790250000000016328e+00,-2.555875000000016328e+00,-2.430875000000015884e+00,-2.493375000000015884e+00,-2.321500000000015884e+00,-1.977750000000015884e+00,-1.634000000000015662e+00,-1.555875000000015662e+00,-1.634000000000015884e+00,-1.555875000000015662e+00,-1.587125000000015662e+00,-1.477750000000015440e+00,-1.368375000000015440e+00,-1.493375000000015662e+00,-1.790250000000015884e+00,-2.102750000000015884e+00,-2.509000000000016328e+00,-3.290250000000016772e+00,-3.915250000000017216e+00,-4.602750000000017216e+00
-2.343750000000001943e-01,-3.593750000000003331e-01,1.093750000000000555e-01,4.218750000000002776e-01,8.750000000000005551e-01,9.218750000000006661e-01,2.343750000000002220e-01,-1.562499999999993755e-02,-3.437500000000001665e-01,-2.343750000000000833e-01,4.843750000000003331e-01,5.625000000000004441e-01,5.000000000000003331e-01,3.437500000000002220e-01,-2.968750000000002220e-01,-5.156250000000003331e-01,-3.750000000000002220e-01,-3.906250000000002776e-01,-1.718750000000001388e-01,-1.718750000000001388e-01,-3.125000000000002220e-01,-4.843750000000003331e-01,-6.562500000000004441e-01,-2.187500000000002220e-01,-5.551115123125782702e-17,6.718750000000004441e-01,1.625000000000001332e+00,1.500000000000000888e+00,1.531250000000001110e+00,7.656250000000006661e-01,-7.031250000000004441e-01,-1.421875000000000888e+00,-1.937500000000001332e+00,-1.531250000000000888e+00,-5.156250000000003331e-01,6.250000000000001388e-02,4.062500000000002220e-01,4.062500000000002220e-01,1.562500000000001388e-02,5.156250000000002220e-01,1.031250000000000666e+00,7.187500000000004441e-01,9.062500000000004441e-01,1.406250000000000000e-01,-8.437500000000006661e-01,-5.312500000000003331e-01,-8.437500000000004441e-01,-1.015625000000000666e+00,-3.750000000000002776e-01,-4.062500000000003331e-01,1.718750000000000555e-01,1.015625000000000666e+00,5.937500000000004441e-01,3.125000000000002220e-01,-5.468750000000004441e-01,-1.093750000000000888e+00,-6.249999999999994449e-02,6.718750000000005551e-01,1.828125000000001332e+00,2.187500000000001776e+00,7.968750000000006661e-01,-1.406249999999999722e-01,-1.359375000000000666e+00,-2.328125000000001332e+00,-1.968750000000001332e+00,-1.906250000000001332e+00,-1.281250000000000888e+00,1.093750000000000555e-01,9.218750000000005551e-01,1.968750000000001332e+00,2.250000000000001776e+00,1.468750000000000888e+00,1.046875000000000666e+00,3.125000000000002220e-01,-3.437500000000002220e-01,-5.312500000000004441e-01,-1.234375000000000888e+00,-1.562500000000001332e+00,-9.687500000000006661e-01,-2.812500000000001110e-01,5.937500000000003331e-01,9.843750000000006661e-01,1.093750000000000555e-01,-6.406250000000004441e-01,-8.750000000000006661e-01,-6.562500000000005551e-01,6.250000000000004441e-01,1.171875000000000888e+00,9.375000000000006661e-01,4.843750000000002776e-01,-6.093750000000004441e-01,-8.437500000000006661e-01,-5.781250000000004441e-01,4.687500000000005551e-02,8.437500000000006661e-01,1.218750000000000888e+00,1.625000000000001110e+00,1.281250000000000888e+00,8.437500000000005551e-01,2.812500000000002220e-01
8.750000000000004441e-01,-9.375000000000003331e-01,-1.937500000000000888e+00,-1.110223024625156540e-16,2.250000000000000888e+00,1.562500000000000666e+00,-5.000000000000002220e-01,-1.312500000000000444e+00,-1.125000000000000444e+00,5.000000000000002220e-01,1.375000000000000666e+00,-4.375000000000002220e-01,-3.750000000000002220e-01,1.500000000000000666e+00,1.875000000000000000e-01,-1.812500000000000888e+00,-8.750000000000004441e-01,8.750000000000004441e-01,1.312500000000000666e+00,-2.500000000000002220e-01,-1.875000000000000888e+00,-6.250000000000000000e-02,2.250000000000000888e+00,-6.250000000000004441e-01,-3.375000000000001776e+00,1.062500000000000000e+00,3.562500000000001332e+00,-8.750000000000004441e-01,-1.125000000000000444e+00,2.375000000000001332e+00,8.750000000000004441e-01,-1.875000000000000888e+00,-1.500000000000000666e+00,-1.250000000000000666e+00,-1.125000000000000444e+00,1.937500000000000888e+00,3.375000000000001332e+00,-1.250000000000000444e+00,-3.687500000000001332e+00,5.000000000000004441e-01,2.125000000000000888e+00,6.250000000000003331e-01,1.312500000000000666e+00,-3.750000000000002220e-01,-2.500000000000000888e+00,-1.250000000000000000e-01,9.375000000000004441e-01,3.125000000000001110e-01,5.000000000000002220e-01,-1.750000000000000888e+00,-2.312500000000000888e+00,1.937500000000000666e+00,3.500000000000001776e+00,2.220446049250313081e-16,-2.375000000000000888e+00,-8.750000000000005551e-01,-3.750000000000001110e-01,-1.250000000000000444e+00,1.875000000000000666e+00,3.937500000000001776e+00,5.000000000000006661e-01,-2.062500000000000888e+00,-2.062500000000000888e+00,-7.500000000000003331e-01,1.312500000000000444e+00,3.125000000000000000e-01,-2.187500000000000888e+00,-1.750000000000000888e+00,7.500000000000002220e-01,2.562500000000001332e+00,1.812500000000001110e+00,1.875000000000001388e-01,-6.250000000000002220e-01,-1.562500000000000666e+00,-1.875000000000000000e-01,2.500000000000001332e+00,6.875000000000004441e-01,-2.687500000000001332e+00,-2.312500000000001332e+00,-3.125000000000002776e-01,1.562500000000000666e+00,2.687500000000001332e+00,1.187500000000000666e+00,-1.750000000000000888e+00,-3.187500000000001776e+00,-1.250000000000000666e+00,2.125000000000000888e+00,2.500000000000001332e+00,8.125000000000004441e-01,-8.125000000000004441e-01,-1.937500000000000888e+00,-3.125000000000000000e-01,1.312500000000000666e+00,-6.875000000000004441e-01,-1.437500000000000888e+00,2.000000000000000888e+00,2.500000000000000888e+00,-1.625000000000000666e+00,-1.312500000000000444e+00,2.437500000000001332e+00
2.000000000000000444e+00,-1.250000000000000222e+00,-1.000000000000000222e+00,2.500000000000000000e-01,2.500000000000001110e-01,2.750000000000000444e+00,-3.500000000000000888e+00,2.500000000000000444e+00,-2.250000000000000444e+00,0.000000000000000000e+00,2.500000000000000888e+00,-1.500000000000000444e+00,-1.250000000000000222e+00,2.250000000000000444e+00,5.000000000000002220e-01,-3.000000000000000888e+00,2.000000000000000444e+00,-1.500000000000000444e+00,2.000000000000000444e+00,-5.000000000000001110e-01,-7.500000000000002220e-01,-1.500000000000000444e+00,3.000000000000000888e+00,2.500000000000002220e-01,-3.250000000000000888e+00,-1.500000000000000444e+00,8.000000000000001776e+00,-6.000000000000000888e+00,-5.000000000000002220e-01,4.000000000000000888e+00,-1.500000000000000222e+00,-5.000000000000002220e-01,-1.000000000000000222e+00,1.500000000000000444e+00,-2.500000000000000888e+00,5.000000000000002220e-01,3.500000000000000888e+00,-7.500000000000000000e-01,-4.000000000000000888e+00,1.000000000000000000e+00,4.750000000000001776e+00,-6.250000000000001776e+00,5.000000000000001776e+00,0.000000000000000000e+00,-4.500000000000000888e+00,2.750000000000000444e+00,1.000000000000000222e+00,-3.000000000000000888e+00,3.250000000000000888e+00,-5.000000000000002220e-01,-4.500000000000000888e+00,4.000000000000000888e+00,5.000000000000001110e-01,2.500000000000000000e-01,-1.500000000000000222e+00,-1.500000000000000444e+00,4.000000000000000888e+00,-4.750000000000000888e+00,1.000000000000000000e+00,5.000000000000001776e+00,-3.500000000000000888e+00,5.000000000000001110e-01,0.000000000000000000e+00,-2.250000000000000444e+00,2.250000000000000444e+00,1.000000000000000444e+00,-3.250000000000000888e+00,1.500000000000000444e+00,-1.500000000000000444e+00,2.000000000000000444e+00,1.250000000000000444e+00,-2.250000000000000888e+00,2.250000000000000888e+00,-1.750000000000000444e+00,-1.250000000000000444e+00,2.500000000000000888e+00,1.500000000000000222e+00,-4.250000000000000888e+00,2.000000000000000444e+00,-1.750000000000000444e+00,1.250000000000000444e+00,5.000000000000001110e-01,1.750000000000000444e+00,-2.500000000000000444e+00,1.000000000000000222e+00,-3.500000000000000888e+00,3.500000000000000888e+00,5.000000000000001110e-01,-1.500000000000000444e+00,2.500000000000000444e+00,-3.250000000000000888e+00,2.500000000000000000e-01,2.250000000000000444e+00,-1.250000000000000222e+00,-1.000000000000000222e+00,-5.000000000000002220e-01,5.000000000000001776e+00,-3.750000000000000888e+00,-2.000000000000000444e+00,4.500000000000000888e+00
