-7.971499999999997144e+00,-8.549624999999997144e+00,-9.221499999999997144e+00,-9.643374999999997144e+00,-1.004962499999999714e+01,-1.039337499999999714e+01,-1.086212499999999714e+01,-1.128399999999999714e+01,-1.151837499999999714e+01,-1.170587499999999892e+01,-1.194024999999999892e+01,-1.226837500000000247e+01,-1.253400000000000247e+01,-1.270587500000000247e+01,-1.264337500000000247e+01,-1.261212500000000247e+01,-1.276837500000000247e+01,-1.286212500000000247e+01,-1.289337500000000247e+01,-1.283087500000000247e+01,-1.272150000000000247e+01,-1.272150000000000247e+01,-1.292462500000000247e+01,-1.301837500000000247e+01,-1.287775000000000247e+01,-1.262775000000000247e+01,-1.240900000000000247e+01,-1.229962500000000247e+01,-1.209650000000000070e+01,-1.197149999999999892e+01,-1.170587499999999892e+01,-1.154962499999999714e+01,-1.162774999999999714e+01,-1.178399999999999892e+01,-1.181524999999999892e+01,-1.159649999999999892e+01,-1.144024999999999892e+01,-1.108087499999999714e+01,-1.079962499999999714e+01,-1.036212499999999714e+01,-9.565249999999997144e+00,-8.596499999999997144e+00,-7.721499999999997144e+00,-7.127749999999997144e+00,-6.612124999999997144e+00,-6.127749999999996255e+00,-5.549624999999995367e+00,-5.112124999999994479e+00,-5.002749999999994479e+00,-5.096499999999994479e+00,-5.049624999999994479e+00,-4.893374999999994479e+00,-4.643374999999994479e+00,-4.580874999999994479e+00,-4.580874999999994479e+00,-4.612124999999994479e+00,-4.721499999999994479e+00,-4.690249999999994479e+00,-4.846499999999994479e+00,-4.830874999999994479e+00,-4.815249999999994479e+00,-4.549624999999994479e+00,-4.143374999999994479e+00,-3.346499999999994035e+00,-2.299624999999993591e+00,-1.440249999999992703e+00,-5.027499999999922586e-01,2.316250000000084075e-01,9.347500000000088516e-01,1.497250000000009074e+00,1.903500000000009518e+00,1.934750000000009518e+00,1.825375000000009518e+00,1.841000000000009518e+00,1.887875000000009518e+00,1.887875000000009518e+00,1.919125000000009518e+00,2.012875000000009518e+00,1.934750000000009518e+00,1.684750000000009518e+00,1.559750000000009296e+00,1.419125000000009074e+00,1.106625000000008852e+00,9.191250000000087406e-01,7.941250000000086295e-01,5.441250000000085185e-01,4.972500000000085185e-01,6.535000000000086295e-01,8.253750000000087406e-01,1.075375000000008852e+00,1.450375000000009074e+00,1.794125000000009518e+00,2.091000000000009518e+00,2.309750000000009518e+00,2.434750000000009518e+00,2.294125000000009518e+00,1.622250000000009074e+00,5.441250000000085185e-01,-6.902499999999922586e-01,-2.174624999999993591e+00
6.250000000000004441e-01,5.156250000000003331e-01,1.875000000000001665e-01,4.687500000000008327e-02,-7.343750000000004441e-01,-7.656250000000004441e-01,-4.843750000000003331e-01,-3.125000000000001665e-01,2.343750000000001388e-01,4.843750000000003331e-01,2.187500000000001388e-01,-7.812500000000009714e-02,-1.875000000000002220e-01,-5.156250000000004441e-01,-3.281250000000003331e-01,-1.718750000000001665e-01,-6.406250000000005551e-01,-2.968750000000002220e-01,-1.562500000000005551e-02,2.968750000000002220e-01,1.187500000000000888e+00,8.125000000000005551e-01,1.406250000000000555e-01,-4.531250000000003331e-01,-1.531250000000000888e+00,-1.281250000000000888e+00,-8.125000000000004441e-01,-2.968750000000002220e-01,9.375000000000004441e-01,1.187500000000000666e+00,1.296875000000000888e+00,1.015625000000000666e+00,-3.125000000000000000e-02,-6.250000000000004441e-01,-9.687500000000007772e-01,-9.375000000000007772e-01,-5.937500000000004441e-01,-4.531250000000003331e-01,-4.843750000000003331e-01,-4.218750000000003331e-01,-4.687500000000002220e-01,-2.500000000000001110e-01,-1.250000000000000555e-01,-2.187500000000001388e-01,4.531250000000002776e-01,9.687500000000006661e-01,1.640625000000000888e+00,2.078125000000001332e+00,9.062500000000006661e-01,-2.500000000000001110e-01,-1.484375000000000888e+00,-2.140625000000001332e+00,-1.015625000000000666e+00,4.687500000000005551e-02,1.359375000000000666e+00,2.140625000000001332e+00,1.562500000000000888e+00,7.812500000000004441e-01,-5.000000000000002220e-01,-1.640625000000000888e+00,-2.093750000000001332e+00,-1.859375000000001332e+00,-1.328125000000000888e+00,-5.625000000000003331e-01,1.562500000000010061e-02,-3.124999999999989592e-02,2.187500000000002776e-01,6.718750000000005551e-01,1.343750000000000888e+00,2.093750000000001332e+00,2.125000000000001332e+00,1.093750000000000666e+00,-3.593750000000003331e-01,-1.562500000000000888e+00,-2.046875000000001332e+00,-1.109375000000000666e+00,1.718750000000001388e-01,1.203125000000000888e+00,1.906250000000001332e+00,1.281250000000000888e+00,4.687500000000003331e-01,-7.812500000000000000e-02,-8.906250000000006661e-01,-8.906250000000006661e-01,-7.031250000000004441e-01,-7.656250000000004441e-01,-3.437500000000001665e-01,2.775557561562891351e-17,1.406250000000001110e-01,2.031250000000001388e-01,1.562499999999998612e-02,-5.156250000000003331e-01,-8.125000000000005551e-01,-3.437500000000001665e-01,2.812500000000002776e-01,1.671875000000001110e+00,3.218750000000001776e+00,3.484375000000002665e+00,3.531250000000002665e+00,2.140625000000001776e+00
2.687500000000001332e+00,8.750000000000006661e-01,-1.625000000000000666e+00,-8.125000000000004441e-01,6.250000000000002220e-01,7.500000000000003331e-01,-8.125000000000003331e-01,-1.812500000000000888e+00,3.750000000000000000e-01,2.062500000000000888e+00,5.625000000000002220e-01,-8.125000000000004441e-01,-9.375000000000004441e-01,-6.875000000000003331e-01,5.625000000000003331e-01,8.750000000000004441e-01,-2.775557561562891351e-17,-2.500000000000001110e-01,-1.500000000000000444e+00,-1.375000000000000444e+00,2.125000000000000888e+00,3.000000000000001332e+00,-1.250000000000000000e-01,-2.437500000000000888e+00,-1.500000000000000666e+00,7.500000000000003331e-01,3.125000000000001110e-01,-8.125000000000004441e-01,-5.551115123125782702e-17,3.750000000000001665e-01,1.000000000000000444e+00,1.625000000000000666e+00,0.000000000000000000e+00,-1.500000000000000666e+00,-1.125000000000000444e+00,-3.750000000000001110e-01,3.750000000000002220e-01,1.125000000000000444e+00,3.750000000000001665e-01,-1.625000000000000888e+00,-1.625000000000000888e+00,9.375000000000003331e-01,1.937500000000000888e+00,1.875000000000001110e-01,-1.750000000000000666e+00,-2.000000000000000888e+00,1.000000000000000444e+00,3.875000000000001776e+00,2.187500000000000888e+00,-1.312500000000000222e+00,-3.125000000000001332e+00,-1.875000000000000888e+00,7.500000000000004441e-01,8.750000000000004441e-01,6.250000000000002776e-02,5.625000000000002220e-01,1.500000000000000666e+00,1.500000000000000444e+00,-8.125000000000005551e-01,-2.437500000000000888e+00,-5.000000000000001110e-01,7.500000000000004441e-01,-1.187500000000000444e+00,-1.500000000000000444e+00,1.125000000000000444e+00,2.312500000000000888e+00,1.250000000000000000e-01,-3.062500000000001332e+00,-1.937500000000000888e+00,3.500000000000001776e+00,4.562500000000002665e+00,-6.875000000000002220e-01,-2.875000000000001332e+00,6.250000000000000000e-02,2.500000000000002220e-01,-2.687500000000000888e+00,-1.500000000000000666e+00,3.375000000000001776e+00,3.250000000000001776e+00,-1.375000000000000666e+00,-1.437500000000000888e+00,7.500000000000003331e-01,-3.750000000000002220e-01,-4.375000000000002220e-01,5.000000000000002220e-01,-9.375000000000004441e-01,-8.125000000000003331e-01,1.187500000000000444e+00,3.750000000000002220e-01,-1.187500000000000444e+00,3.750000000000002220e-01,1.812500000000000888e+00,-4.375000000000000000e-01,-3.125000000000001332e+00,-1.125000000000000444e+00,3.125000000000001332e+00,2.000000000000000888e+00,-1.187500000000000666e+00,1.250000000000000444e+00,3.375000000000001776e+00
2.750000000000000888e+00,1.250000000000000222e+00,-4.250000000000000888e+00,3.500000000000000888e+00,-2.750000000000000888e+00,2.500000000000000444e+00,-7.500000000000001110e-01,-1.500000000000000444e+00,0.000000000000000000e+00,2.250000000000000444e+00,-7.500000000000001110e-01,-7.500000000000002220e-01,7.500000000000002220e-01,-1.000000000000000222e+00,-5.000000000000001110e-01,3.000000000000000888e+00,-3.500000000000000888e+00,2.500000000000000888e+00,-5.000000000000001110e-01,-3.000000000000000444e+00,2.500000000000000444e+00,2.000000000000000444e+00,-2.000000000000000444e+00,1.000000000000000222e+00,-3.000000000000000888e+00,2.250000000000000444e+00,1.000000000000000222e+00,-3.500000000000000888e+00,3.250000000000000888e+00,-1.500000000000000444e+00,-5.000000000000001110e-01,3.000000000000000888e+00,-2.250000000000000444e+00,1.000000000000000222e+00,-2.000000000000000444e+00,2.000000000000000444e+00,-2.250000000000000888e+00,2.500000000000000888e+00,-1.000000000000000222e+00,5.000000000000001110e-01,-2.250000000000000444e+00,1.000000000000000222e+00,2.000000000000000444e+00,-1.750000000000000444e+00,1.000000000000000222e+00,-1.750000000000000444e+00,-1.000000000000000222e+00,4.250000000000000888e+00,-1.000000000000000222e+00,-2.500000000000000000e-01,-2.500000000000001110e-01,-3.000000000000000444e+00,3.000000000000000444e+00,-2.500000000000000555e-01,-1.750000000000000444e+00,3.000000000000000888e+00,-3.250000000000000888e+00,4.500000000000000888e+00,-2.750000000000000444e+00,0.000000000000000000e+00,-1.500000000000000444e+00,2.750000000000000888e+00,-1.250000000000000222e+00,-2.500000000000000444e+00,3.250000000000000888e+00,-1.750000000000000444e+00,3.250000000000000888e+00,-3.750000000000000888e+00,-2.500000000000000000e-01,0.000000000000000000e+00,5.500000000000001776e+00,-3.250000000000000888e+00,-1.500000000000000444e+00,7.500000000000002220e-01,2.000000000000000444e+00,-3.000000000000000888e+00,-5.000000000000002220e-01,5.000000000000002220e-01,5.000000000000000888e+00,-4.500000000000000888e+00,-5.000000000000000000e-01,3.000000000000000888e+00,-1.750000000000000444e+00,-1.500000000000000444e+00,3.500000000000000888e+00,-2.750000000000000888e+00,-2.500000000000000000e-01,1.250000000000000222e+00,7.500000000000002220e-01,-2.000000000000000444e+00,2.500000000000000000e-01,2.000000000000000444e+00,-7.500000000000001110e-01,-7.500000000000002220e-01,-2.500000000000000444e+00,3.000000000000000444e+00,2.250000000000000444e+00,-3.750000000000000888e+00,0.000000000000000000e+00,5.750000000000000888e+00
