4.211750000000055394e+00,4.821125000000055394e+00,4.977375000000055394e+00,4.446125000000055394e+00,3.555500000000054506e+00,2.805500000000053618e+00,2.571125000000053618e+00,2.836750000000053618e+00,2.227375000000053173e+00,1.946125000000053173e+00,1.743000000000052951e+00,1.461750000000052729e+00,7.273750000000521743e-01,-4.132499999999486584e-01,-2.303874999999949935e+00,-5.038249999999951712e+00,-7.631999999999953488e+00,-1.064762499999995526e+01,-1.402262499999995882e+01,-1.749137499999995882e+01,-2.086637499999996237e+01,-2.446012499999996948e+01,-2.816324999999996948e+01,-3.167887499999996948e+01,-3.513199999999996948e+01,-3.867887499999996948e+01,-4.188199999999996948e+01,-4.463199999999997658e+01,-4.719449999999999079e+01,-4.936637499999999079e+01,-5.108512499999999079e+01,-5.255387499999999079e+01,-5.381949999999999079e+01,-5.441324999999999079e+01,-5.500699999999999079e+01,-5.569449999999999079e+01,-5.594449999999999079e+01,-5.592887499999999079e+01,-5.588199999999999079e+01,-5.586637499999999079e+01,-5.583512499999999079e+01,-5.616324999999999079e+01,-5.624137499999999079e+01,-5.613199999999999079e+01,-5.625699999999999079e+01,-5.650699999999999079e+01,-5.667887499999999079e+01,-5.671012499999999079e+01,-5.669449999999999079e+01,-5.661637499999999079e+01,-5.664762499999999079e+01,-5.671012499999999079e+01,-5.667887499999999079e+01,-5.655387499999999079e+01,-5.633512499999999079e+01,-5.605387499999999079e+01,-5.581949999999999079e+01,-5.542887499999999079e+01,-5.483512499999999079e+01,-5.433512499999999079e+01,-5.386637499999999079e+01,-5.330387499999999079e+01,-5.286637499999999079e+01,-5.255387499999999079e+01,-5.224137499999999079e+01,-5.191324999999999079e+01,-5.167887499999999079e+01,-5.133512499999999079e+01,-5.110074999999999079e+01,-5.099137499999999079e+01,-5.083512499999999079e+01,-5.046012499999999079e+01,-4.985074999999999079e+01,-4.916324999999999079e+01,-4.836637499999999079e+01,-4.736637499999999079e+01,-4.622574999999997658e+01,-4.513199999999996948e+01,-4.400699999999996948e+01,-4.297574999999996948e+01,-4.205387499999996948e+01,-4.125699999999996948e+01,-4.064762499999996948e+01,-4.031949999999996948e+01,-3.978824999999996948e+01,-3.900699999999996948e+01,-3.830387499999996948e+01,-3.761637499999996948e+01,-3.696012499999996948e+01,-3.642887499999996948e+01,-3.581949999999996948e+01,-3.511637499999996948e+01,-3.472574999999996948e+01,-3.416324999999996948e+01,-3.313199999999996948e+01,-3.161637499999996948e+01,-2.967887499999996948e+01,-2.702262499999996948e+01,-2.386637499999996592e+01,-2.036637499999996237e+01
2.656250000000001776e+00,6.296875000000003553e+00,6.328125000000003553e+00,3.796875000000001776e+00,1.875000000000000000e-01,-4.125000000000003553e+00,-5.203125000000003553e+00,-3.968750000000002665e+00,-2.359375000000001776e+00,7.968750000000003331e-01,2.500000000000001332e+00,3.906250000000001776e+00,4.703125000000002665e+00,4.031250000000002665e+00,3.421875000000002220e+00,1.281250000000000888e+00,-1.875000000000000555e-01,-9.843750000000006661e-01,-1.671875000000001332e+00,-5.156250000000004441e-01,5.468750000000002220e-01,1.515625000000000888e+00,2.343750000000001332e+00,1.484375000000000888e+00,1.250000000000001665e-01,-1.640625000000000666e+00,-3.437500000000001776e+00,-3.687500000000002665e+00,-3.000000000000001776e+00,-1.765625000000000888e+00,1.562500000000000000e-02,8.593750000000006661e-01,4.375000000000003331e-01,-4.687500000000003331e-01,-1.875000000000001332e+00,-2.812500000000001776e+00,-2.375000000000001776e+00,-8.281250000000005551e-01,6.875000000000005551e-01,1.796875000000001332e+00,2.078125000000001776e+00,8.437500000000006661e-01,-1.562500000000000347e-02,-6.875000000000004441e-01,-1.250000000000000888e+00,-7.500000000000004441e-01,-5.781250000000003331e-01,-1.093750000000000555e-01,4.375000000000002776e-01,4.218750000000002776e-01,7.031250000000004441e-01,3.281250000000002220e-01,-7.812500000000004163e-02,-2.656250000000001110e-01,-1.109375000000000666e+00,-1.203125000000000888e+00,-1.125000000000000666e+00,-9.531250000000004441e-01,3.281250000000002776e-01,1.015625000000000888e+00,1.234375000000000888e+00,1.171875000000000888e+00,-1.562500000000000000e-02,-8.906250000000006661e-01,-1.015625000000000666e+00,-6.562500000000004441e-01,4.843750000000002220e-01,1.328125000000000888e+00,1.281250000000000888e+00,6.093750000000004441e-01,-6.093750000000002220e-01,-1.421875000000000888e+00,-1.656250000000001332e+00,-1.468750000000001110e+00,-8.906250000000006661e-01,-7.031250000000006661e-01,-3.437500000000003331e-01,1.250000000000000833e-01,5.000000000000004441e-01,1.531250000000001332e+00,1.796875000000001332e+00,1.375000000000000888e+00,8.906250000000006661e-01,-6.250000000000005551e-01,-1.343750000000000888e+00,-1.250000000000000888e+00,-1.265625000000000888e+00,-3.281250000000001110e-01,3.281250000000002776e-01,7.968750000000005551e-01,1.500000000000000888e+00,1.484375000000000888e+00,1.281250000000000888e+00,-3.125000000000011102e-02,-1.937500000000001110e+00,-3.640625000000001776e+00,-5.703125000000003553e+00,-5.609375000000003553e+00,-4.203125000000002665e+00,-1.953125000000001332e+00
-1.625000000000001110e+00,6.125000000000003553e+00,8.687500000000003553e+00,5.000000000000001776e+00,-3.750000000000001776e+00,-9.437500000000003553e+00,-2.375000000000000888e+00,4.125000000000001776e+00,-3.750000000000000000e-01,-2.500000000000000888e+00,1.250000000000000444e+00,2.125000000000000888e+00,1.062500000000000444e+00,2.625000000000001332e+00,2.125000000000000888e+00,-1.750000000000000888e+00,-6.875000000000004441e-01,1.375000000000000666e+00,-1.812500000000000666e+00,-2.500000000000000888e+00,1.062500000000000222e+00,2.187500000000000888e+00,5.625000000000002220e-01,4.375000000000002776e-01,1.500000000000000888e+00,-1.875000000000002220e-01,-2.437500000000001332e+00,-2.187500000000000888e+00,-2.062500000000000888e+00,-6.250000000000004441e-01,2.562500000000000888e+00,1.187500000000000444e+00,-1.625000000000000888e+00,8.750000000000004441e-01,1.875000000000000888e+00,-2.500000000000001332e+00,-4.187500000000001776e+00,-1.250000000000000888e+00,1.937500000000000888e+00,4.062500000000001776e+00,2.000000000000000888e+00,-2.937500000000001776e+00,-2.000000000000000888e+00,2.062500000000000888e+00,7.500000000000004441e-01,-2.250000000000000888e+00,-1.000000000000000444e+00,1.562500000000000888e+00,5.000000000000004441e-01,-1.062500000000000444e+00,6.875000000000002220e-01,1.375000000000000444e+00,-7.500000000000003331e-01,-1.437500000000000666e+00,6.875000000000004441e-01,1.500000000000000888e+00,-1.812500000000000666e+00,-2.875000000000000888e+00,1.000000000000000444e+00,2.062500000000000888e+00,3.750000000000001665e-01,6.250000000000003331e-01,3.750000000000002220e-01,-8.125000000000003331e-01,-1.000000000000000444e+00,-1.187500000000000666e+00,-8.125000000000004441e-01,1.500000000000000888e+00,3.312500000000001776e+00,1.125000000000000666e+00,-2.812500000000000888e+00,-2.625000000000000888e+00,7.500000000000002220e-01,1.375000000000000444e+00,-1.000000000000000444e+00,-1.437500000000000444e+00,8.125000000000003331e-01,1.000000000000000444e+00,-1.000000000000000444e+00,-1.062500000000000444e+00,1.000000000000000444e+00,3.125000000000001332e+00,1.750000000000000888e+00,-2.562500000000000888e+00,-2.625000000000000888e+00,2.500000000000001110e-01,5.625000000000002220e-01,4.375000000000002220e-01,1.250000000000001110e-01,-1.125000000000000444e+00,-1.875000000000002220e-01,2.125000000000000888e+00,1.687500000000000888e+00,-5.625000000000003331e-01,-6.875000000000004441e-01,-5.000000000000002220e-01,-1.625000000000000666e+00,-2.125000000000000888e+00,-3.687500000000001776e+00,-2.937500000000001332e+00
-2.500000000000000000e-01,3.750000000000000888e+00,2.000000000000000444e+00,1.750000000000000444e+00,1.000000000000000000e+00,-6.250000000000001776e+00,-5.000000000000001776e+00,1.400000000000000355e+01,-1.150000000000000355e+01,4.750000000000000888e+00,-2.500000000000000444e+00,3.500000000000000888e+00,-1.500000000000000444e+00,-1.250000000000000222e+00,6.750000000000000888e+00,-6.500000000000000888e+00,5.000000000000001110e-01,4.250000000000000888e+00,-3.500000000000000888e+00,-1.500000000000000222e+00,2.250000000000000444e+00,-2.500000000000000000e-01,1.250000000000000222e+00,-2.250000000000000444e+00,2.500000000000000444e+00,5.000000000000000000e-01,-3.250000000000000444e+00,1.500000000000000444e+00,-7.500000000000002220e-01,-2.250000000000000444e+00,2.500000000000000444e+00,2.500000000000000888e+00,-5.000000000000001776e+00,2.000000000000000444e+00,3.000000000000000888e+00,-3.000000000000000888e+00,-1.500000000000000444e+00,0.000000000000000000e+00,1.250000000000000444e+00,-1.000000000000000222e+00,5.750000000000000888e+00,-5.750000000000000888e+00,-7.500000000000002220e-01,3.750000000000000888e+00,-1.250000000000000444e+00,-5.000000000000001110e-01,-1.750000000000000444e+00,2.250000000000000444e+00,7.500000000000001110e-01,-2.750000000000000888e+00,1.250000000000000444e+00,2.000000000000000444e+00,-2.500000000000000888e+00,1.250000000000000444e+00,-2.250000000000000444e+00,3.750000000000000888e+00,-1.250000000000000222e+00,-3.750000000000000888e+00,2.500000000000000888e+00,2.250000000000000444e+00,-3.750000000000000888e+00,3.500000000000000888e+00,-1.500000000000000444e+00,2.500000000000000555e-01,-7.500000000000002220e-01,7.500000000000002220e-01,-2.000000000000000444e+00,1.500000000000000444e+00,5.000000000000001110e-01,2.250000000000000444e+00,-2.750000000000000444e+00,-1.500000000000000444e+00,1.750000000000000444e+00,2.500000000000000555e-01,2.500000000000000555e-01,-2.500000000000000444e+00,1.750000000000000444e+00,1.000000000000000222e+00,-1.500000000000000444e+00,-5.000000000000000000e-01,1.250000000000000222e+00,-1.250000000000000222e+00,5.000000000000000888e+00,-4.500000000000000888e+00,-1.250000000000000222e+00,3.000000000000000888e+00,-2.000000000000000444e+00,5.000000000000001110e-01,1.500000000000000444e+00,-2.250000000000000444e+00,5.000000000000000000e-01,5.000000000000002220e-01,1.750000000000000444e+00,-1.250000000000000444e+00,-1.250000000000000222e+00,2.750000000000000888e+00,-3.000000000000000888e+00,-2.500000000000002220e-01,2.750000000000000888e+00,-8.750000000000001776e+00
