-4.322874999999956280e+00,-4.338499999999956280e+00,-4.400999999999956280e+00,-4.369749999999956280e+00,-4.354124999999956280e+00,-4.307249999999956280e+00,-4.291624999999956280e+00,-4.291624999999956280e+00,-4.260374999999956280e+00,-4.275999999999956280e+00,-4.260374999999956280e+00,-4.354124999999956280e+00,-4.447874999999956280e+00,-4.494749999999956280e+00,-4.510374999999956280e+00,-4.463499999999956280e+00,-4.479124999999956280e+00,-4.525999999999956280e+00,-4.604124999999956280e+00,-4.682249999999956280e+00,-4.807249999999956280e+00,-5.088499999999956280e+00,-5.479124999999957168e+00,-6.010374999999958057e+00,-6.604124999999958945e+00,-7.213499999999958945e+00,-7.885374999999958945e+00,-8.525999999999958945e+00,-9.166624999999958945e+00,-9.760374999999958945e+00,-1.022912499999995894e+01,-1.055724999999995894e+01,-1.069787499999995894e+01,-1.083849999999995894e+01,-1.086974999999995894e+01,-1.083849999999995894e+01,-1.080724999999995894e+01,-1.069787499999995894e+01,-1.057287499999995894e+01,-1.046349999999995894e+01,-1.044787499999995894e+01,-1.027599999999995894e+01,-1.007287499999995894e+01,-9.947874999999958945e+00,-9.635374999999958945e+00,-9.213499999999958945e+00,-8.744749999999958945e+00,-8.213499999999958945e+00,-7.510374999999958945e+00,-6.713499999999958945e+00,-5.729124999999958057e+00,-4.463499999999957168e+00,-3.150999999999955392e+00,-1.744749999999954504e+00,-1.666249999999536713e-01,1.599000000000047272e+00,3.411500000000048161e+00,5.161500000000049937e+00,6.833375000000051713e+00,8.427125000000051713e+00,1.009900000000005349e+01,1.172400000000005704e+01,1.322400000000005704e+01,1.458337500000005704e+01,1.581775000000005704e+01,1.694275000000005704e+01,1.800525000000005704e+01,1.894275000000005704e+01,1.959900000000005704e+01,2.013025000000005704e+01,2.058337500000005704e+01,2.100525000000005704e+01,2.152087500000005704e+01,2.214587500000005704e+01,2.277087500000005704e+01,2.345837500000006060e+01,2.431775000000006770e+01,2.520837500000006770e+01,2.617712500000006770e+01,2.705212500000006770e+01,2.780212500000006770e+01,2.850525000000006770e+01,2.920837500000006770e+01,2.991150000000006770e+01,3.044275000000006770e+01,3.098962500000006770e+01,3.145837500000006770e+01,3.203650000000006770e+01,3.261462500000006770e+01,3.314587500000006770e+01,3.359900000000006770e+01,3.394275000000006770e+01,3.434900000000006770e+01,3.411462500000006770e+01,3.331775000000006770e+01,3.178650000000006770e+01,2.956775000000006770e+01,2.667712500000006770e+01,2.317712500000006060e+01,1.905212500000006060e+01
-3.906250000000002776e-01,-3.125000000000002220e-01,-3.125000000000002220e-01,-9.375000000000006939e-02,7.812500000000004163e-02,3.125000000000002776e-02,1.562500000000001388e-02,1.562500000000001388e-02,1.093750000000000833e-01,2.500000000000001665e-01,3.593750000000002776e-01,2.031250000000001665e-01,-1.562500000000001735e-02,-2.812500000000001665e-01,-4.531250000000003331e-01,-3.750000000000002220e-01,-2.343750000000001388e-01,1.250000000000001110e-01,3.906250000000003331e-01,6.562500000000004441e-01,7.812500000000004441e-01,5.625000000000003331e-01,4.531250000000003331e-01,1.718750000000001110e-01,1.406250000000001110e-01,3.125000000000002220e-01,2.343750000000001110e-01,1.875000000000001110e-01,-2.968750000000002220e-01,-7.656250000000004441e-01,-9.843750000000005551e-01,-1.031250000000000666e+00,-5.781250000000003331e-01,-2.500000000000001665e-01,3.125000000000001388e-02,1.250000000000000833e-01,3.125000000000003469e-02,4.687500000000004163e-02,-1.562500000000001041e-02,1.250000000000000833e-01,4.687500000000002776e-02,-1.250000000000000555e-01,-2.031250000000001110e-01,-5.156250000000003331e-01,-5.781250000000004441e-01,-4.375000000000003331e-01,-4.062500000000003331e-01,-3.125000000000002220e-01,-2.031250000000001665e-01,-4.375000000000003331e-01,-6.718750000000004441e-01,-8.750000000000004441e-01,-1.250000000000000666e+00,-1.156250000000000444e+00,-7.968750000000004441e-01,-2.500000000000001110e-01,5.000000000000003331e-01,8.125000000000005551e-01,8.281250000000006661e-01,6.093750000000004441e-01,1.250000000000001110e-01,-1.250000000000001110e-01,-2.500000000000003331e-01,-2.968750000000003331e-01,2.187500000000001110e-01,7.812500000000005551e-01,1.281250000000000888e+00,1.781250000000001332e+00,1.375000000000000888e+00,5.937500000000004441e-01,-1.093750000000000278e-01,-9.687500000000006661e-01,-1.109375000000000666e+00,-7.968750000000006661e-01,-6.718750000000004441e-01,-2.343750000000001388e-01,-3.125000000000002776e-02,-4.687500000000002776e-02,2.343750000000001388e-01,2.968750000000002220e-01,4.843750000000003331e-01,6.562500000000004441e-01,5.781250000000003331e-01,3.750000000000002220e-01,-9.375000000000006939e-02,-4.531250000000003331e-01,-6.093750000000004441e-01,-3.125000000000001665e-01,1.718750000000001110e-01,5.781250000000004441e-01,7.500000000000005551e-01,4.687500000000003331e-01,1.875000000000001110e-01,4.843750000000003331e-01,1.531250000000000888e+00,3.437500000000001776e+00,5.968750000000003553e+00,6.859375000000005329e+00,6.046875000000003553e+00,3.234375000000001776e+00
-5.625000000000003331e-01,-1.250000000000000833e-01,-6.250000000000002776e-02,-6.250000000000002776e-02,2.500000000000001110e-01,2.500000000000001110e-01,0.000000000000000000e+00,-2.500000000000001110e-01,-3.750000000000002220e-01,0.000000000000000000e+00,6.250000000000003331e-01,6.250000000000003331e-01,-6.250000000000000000e-02,-7.500000000000003331e-01,-5.625000000000002220e-01,3.125000000000002220e-01,4.375000000000002220e-01,-3.750000000000002220e-01,-5.625000000000002220e-01,5.000000000000002220e-01,1.000000000000000444e+00,2.500000000000002220e-01,-2.500000000000001110e-01,-1.875000000000001110e-01,-6.250000000000004163e-02,-1.250000000000000555e-01,1.250000000000001110e-01,8.125000000000004441e-01,4.375000000000001110e-01,-7.500000000000003331e-01,-1.062500000000000444e+00,-4.375000000000002220e-01,0.000000000000000000e+00,6.250000000000002776e-02,5.625000000000002220e-01,4.375000000000002220e-01,-7.500000000000003331e-01,-6.250000000000003331e-01,8.125000000000004441e-01,5.625000000000003331e-01,-8.750000000000004441e-01,-1.250000000000000000e-01,1.000000000000000444e+00,-3.125000000000002220e-01,-1.062500000000000666e+00,-1.250000000000000555e-01,1.250000000000001110e-01,2.500000000000001665e-01,4.375000000000002220e-01,-6.250000000000002220e-01,-8.750000000000004441e-01,5.625000000000002220e-01,6.250000000000002220e-01,-1.125000000000000444e+00,-1.812500000000000888e+00,-1.250000000000002220e-01,1.562500000000000666e+00,1.000000000000000444e+00,-1.875000000000001110e-01,-3.125000000000002220e-01,0.000000000000000000e+00,1.250000000000001388e-01,0.000000000000000000e+00,-6.250000000000006939e-02,-3.125000000000000555e-01,-7.500000000000003331e-01,4.375000000000001665e-01,2.000000000000000888e+00,1.000000000000000666e+00,-2.500000000000001665e-01,-2.500000000000001110e-01,-8.125000000000004441e-01,-9.375000000000004441e-01,-1.250000000000000278e-01,3.750000000000002220e-01,5.000000000000002220e-01,-3.125000000000001110e-01,-9.375000000000004441e-01,3.125000000000000000e-01,1.125000000000000444e+00,-6.250000000000000000e-02,-9.375000000000004441e-01,1.875000000000001110e-01,1.437500000000000888e+00,6.250000000000003331e-01,-1.062500000000000444e+00,-1.375000000000000666e+00,-2.500000000000001110e-01,6.875000000000003331e-01,7.500000000000003331e-01,3.750000000000001110e-01,6.250000000000002776e-02,-6.250000000000002776e-02,-3.750000000000001110e-01,-3.750000000000001110e-01,2.500000000000001110e-01,4.375000000000001665e-01,2.187500000000000888e+00,6.500000000000002665e+00,4.937500000000001776e+00
-2.250000000000000444e+00,2.250000000000000444e+00,-1.750000000000000444e+00,1.000000000000000222e+00,-5.000000000000001110e-01,5.000000000000001110e-01,-2.500000000000000555e-01,0.000000000000000000e+00,0.000000000000000000e+00,-5.000000000000001110e-01,7.500000000000002220e-01,0.000000000000000000e+00,0.000000000000000000e+00,0.000000000000000000e+00,-1.000000000000000222e+00,1.000000000000000222e+00,-2.500000000000000555e-01,2.500000000000000555e-01,-7.500000000000002220e-01,0.000000000000000000e+00,1.500000000000000444e+00,-1.250000000000000222e+00,7.500000000000002220e-01,-5.000000000000001110e-01,0.000000000000000000e+00,5.000000000000001110e-01,-1.000000000000000222e+00,1.000000000000000222e+00,5.000000000000001110e-01,-1.250000000000000222e+00,7.500000000000002220e-01,-1.500000000000000444e+00,1.750000000000000444e+00,-1.500000000000000444e+00,7.500000000000002220e-01,7.500000000000002220e-01,-1.000000000000000222e+00,-2.500000000000000555e-01,2.500000000000000555e-01,1.250000000000000222e+00,-1.250000000000000222e+00,-1.000000000000000222e+00,2.750000000000000888e+00,-1.750000000000000444e+00,-2.500000000000000555e-01,2.500000000000000555e-01,5.000000000000001110e-01,-1.250000000000000222e+00,1.750000000000000444e+00,-7.500000000000002220e-01,-1.250000000000000222e+00,1.250000000000000222e+00,2.500000000000000555e-01,-5.000000000000001110e-01,-7.500000000000002220e-01,-7.500000000000002220e-01,2.000000000000000444e+00,-5.000000000000001110e-01,0.000000000000000000e+00,-2.500000000000000555e-01,2.500000000000000555e-01,-2.500000000000000555e-01,5.000000000000001110e-01,-7.500000000000002220e-01,7.500000000000002220e-01,-5.000000000000001110e-01,-1.250000000000000444e+00,2.750000000000000888e+00,-5.000000000000001110e-01,-1.000000000000000222e+00,1.250000000000000444e+00,-7.500000000000002220e-01,-1.000000000000000222e+00,1.250000000000000222e+00,-1.000000000000000222e+00,7.500000000000002220e-01,5.000000000000001110e-01,-1.750000000000000444e+00,7.500000000000001110e-01,1.000000000000000222e+00,-7.500000000000002220e-01,2.500000000000000555e-01,-1.500000000000000444e+00,2.750000000000000888e+00,-1.500000000000000222e+00,1.000000000000000222e+00,-2.000000000000000444e+00,1.000000000000000222e+00,0.000000000000000000e+00,0.000000000000000000e+00,7.500000000000002220e-01,-1.000000000000000222e+00,1.000000000000000222e+00,-7.500000000000002220e-01,0.000000000000000000e+00,0.000000000000000000e+00,5.000000000000001110e-01,-2.500000000000000555e-01,-2.500000000000000555e-01,9.250000000000001776e+00
