-1.120550000000003443e+01,-1.129925000000003443e+01,-1.168987500000003621e+01,-1.190862500000003621e+01,-1.187737500000003621e+01,-1.176800000000003621e+01,-1.172112500000003621e+01,-1.179925000000003621e+01,-1.212737500000003799e+01,-1.245550000000003976e+01,-1.256487500000003976e+01,-1.281487500000003976e+01,-1.331487500000003976e+01,-1.383050000000003976e+01,-1.425237500000003976e+01,-1.456487500000003976e+01,-1.475237500000003976e+01,-1.493987500000003976e+01,-1.515862500000003976e+01,-1.518987500000003976e+01,-1.511175000000003976e+01,-1.504925000000003976e+01,-1.493987500000003976e+01,-1.478362500000003976e+01,-1.440862500000003976e+01,-1.398675000000003976e+01,-1.354925000000003976e+01,-1.328362500000003976e+01,-1.304925000000003976e+01,-1.272112500000003976e+01,-1.251800000000003976e+01,-1.243987500000003976e+01,-1.265862500000003976e+01,-1.281487500000003976e+01,-1.281487500000003976e+01,-1.259612500000003976e+01,-1.218987500000003976e+01,-1.172112500000003799e+01,-1.104925000000003621e+01,-1.012737500000003443e+01,-9.049250000000034433e+00,-8.002375000000034433e+00,-7.236750000000034433e+00,-6.611750000000034433e+00,-6.143000000000033545e+00,-5.689875000000032657e+00,-5.283625000000031768e+00,-5.096125000000031768e+00,-4.908625000000031768e+00,-4.674250000000031768e+00,-4.221125000000031768e+00,-3.643000000000031768e+00,-2.924250000000030880e+00,-2.361750000000030880e+00,-1.924250000000030436e+00,-1.518000000000029992e+00,-1.189875000000029770e+00,-9.711250000000297700e-01,-8.148750000000296589e-01,-8.461250000000296589e-01,-1.064875000000029770e+00,-1.221125000000029770e+00,-1.268000000000029770e+00,-1.080500000000029770e+00,-6.742500000000295479e-01,-1.898750000000292704e-01,1.851249999999709794e-01,6.382499999999712292e-01,1.153874999999971340e+00,1.575749999999971784e+00,1.794499999999972006e+00,1.622624999999971784e+00,9.976249999999713403e-01,3.413749999999711182e-01,-4.925000000002911771e-02,-4.398750000000293259e-01,-1.189875000000029992e+00,-2.049250000000030436e+00,-2.799250000000030880e+00,-3.361750000000031768e+00,-3.705500000000031768e+00,-4.252375000000032657e+00,-5.346125000000032657e+00,-6.580500000000034433e+00,-7.205500000000034433e+00,-7.502375000000034433e+00,-7.705500000000034433e+00,-7.924250000000034433e+00,-8.174250000000034433e+00,-8.299250000000034433e+00,-8.033625000000034433e+00,-7.611750000000034433e+00,-7.564875000000034433e+00,-7.893000000000034433e+00,-8.533625000000034433e+00,-9.268000000000034433e+00,-9.939875000000036209e+00,-1.059612500000003621e+01,-1.129925000000003621e+01,-1.198675000000003976e+01
-1.875000000000001665e-01,4.062500000000002220e-01,2.343750000000001110e-01,-1.718750000000001110e-01,-3.906250000000002220e-01,-5.625000000000003331e-01,-2.968750000000001665e-01,1.562500000000001388e-01,5.468750000000003331e-01,9.375000000000005551e-01,1.171875000000000666e+00,9.843750000000005551e-01,2.343750000000000833e-01,-6.250000000000004441e-01,-1.203125000000000888e+00,-1.390625000000000888e+00,-7.656250000000004441e-01,4.687500000000002776e-02,4.531250000000002776e-01,6.718750000000004441e-01,2.187500000000000833e-01,-4.687500000000003331e-01,-8.281250000000006661e-01,-9.843750000000006661e-01,-7.343750000000005551e-01,-2.812500000000001665e-01,3.125000000000003469e-02,2.031250000000001388e-01,5.937500000000004441e-01,8.281250000000006661e-01,1.125000000000000888e+00,1.234375000000000888e+00,5.156250000000003331e-01,-1.562500000000003469e-02,-9.531250000000006661e-01,-1.671875000000001332e+00,-1.703125000000001332e+00,-1.984375000000001332e+00,-1.281250000000000888e+00,-5.156250000000003331e-01,2.187500000000001665e-01,1.359375000000000888e+00,1.468750000000000888e+00,1.656250000000001110e+00,1.500000000000000888e+00,6.718750000000004441e-01,2.031250000000001665e-01,-7.968750000000006661e-01,-1.546875000000001332e+00,-1.406250000000000888e+00,-9.843750000000006661e-01,1.110223024625156540e-16,8.437500000000006661e-01,8.437500000000005551e-01,5.312500000000004441e-01,1.250000000000001110e-01,1.093750000000000139e-01,6.406250000000004441e-01,1.109375000000000666e+00,1.203125000000000666e+00,5.468750000000003331e-01,-4.843750000000003331e-01,-1.187500000000000888e+00,-1.625000000000000888e+00,-1.468750000000000888e+00,-9.531250000000005551e-01,-6.406250000000004441e-01,9.375000000000005551e-02,9.531250000000005551e-01,1.656250000000000888e+00,2.312500000000001332e+00,2.171875000000001332e+00,1.546875000000001110e+00,6.406250000000004441e-01,-5.312500000000003331e-01,-1.390625000000000888e+00,-2.015625000000001332e+00,-1.781250000000000888e+00,-3.437500000000001665e-01,1.468750000000000888e+00,2.812500000000001776e+00,2.734375000000001776e+00,1.015625000000000666e+00,-1.250000000000000666e+00,-2.625000000000001332e+00,-2.640625000000001332e+00,-1.875000000000000888e+00,-8.437500000000004441e-01,-9.375000000000005551e-02,9.375000000000006939e-02,7.031250000000003331e-01,1.281250000000000666e+00,1.234375000000000666e+00,1.250000000000000888e+00,6.406250000000004441e-01,2.500000000000002220e-01,6.093750000000004441e-01,5.156250000000004441e-01,2.812500000000002220e-01,-7.187500000000005551e-01
1.250000000000000666e+00,3.000000000000001332e+00,3.125000000000000000e-01,-1.812500000000000888e+00,-1.125000000000000666e+00,-3.125000000000001665e-01,8.750000000000004441e-01,1.500000000000000666e+00,-8.125000000000004441e-01,-2.125000000000000888e+00,1.000000000000000444e+00,3.187500000000001776e+00,6.875000000000002220e-01,-1.937500000000000888e+00,-1.687500000000000666e+00,-4.375000000000001665e-01,3.750000000000001665e-01,2.500000000000000555e-01,6.250000000000001388e-02,6.250000000000002220e-01,5.000000000000002220e-01,-1.250000000000000278e-01,-3.750000000000001110e-01,-1.125000000000000444e+00,-1.250000000000000666e+00,6.250000000000002220e-01,1.875000000000000888e+00,1.875000000000001110e-01,-1.937500000000000888e+00,-1.000000000000000444e+00,2.000000000000000888e+00,2.312500000000000888e+00,-2.500000000000002220e-01,-1.312500000000000666e+00,-6.250000000000002220e-01,1.250000000000000555e-01,0.000000000000000000e+00,-9.375000000000004441e-01,-1.062500000000000444e+00,-7.500000000000004441e-01,1.875000000000000000e-01,1.500000000000000666e+00,1.125000000000000444e+00,6.250000000000005551e-02,-5.000000000000002220e-01,1.250000000000000555e-01,1.437500000000000666e+00,5.000000000000002220e-01,-1.437500000000000666e+00,-1.812500000000000888e+00,-1.187500000000000666e+00,5.000000000000002220e-01,1.937500000000000888e+00,1.125000000000000444e+00,-2.500000000000001110e-01,-7.500000000000003331e-01,-1.062500000000000444e+00,-5.625000000000002220e-01,1.312500000000000444e+00,2.250000000000000888e+00,6.250000000000002220e-01,-1.187500000000000666e+00,-1.437500000000000888e+00,-9.375000000000004441e-01,0.000000000000000000e+00,5.000000000000002220e-01,6.250000000000002776e-02,-3.750000000000002220e-01,-1.000000000000000444e+00,-3.750000000000002220e-01,2.500000000000000888e+00,3.062500000000001332e+00,-4.375000000000000000e-01,-2.375000000000000888e+00,-6.250000000000000000e-02,1.687500000000000888e+00,6.250000000000000000e-02,-1.812500000000000888e+00,-2.750000000000001332e+00,-2.000000000000000888e+00,3.250000000000001776e+00,7.375000000000003553e+00,1.937500000000000888e+00,-6.062500000000002665e+00,-5.062500000000001776e+00,7.500000000000002220e-01,2.437500000000000888e+00,8.750000000000004441e-01,-8.750000000000004441e-01,-1.687500000000000888e+00,-3.125000000000002220e-01,1.187500000000000444e+00,1.437500000000000444e+00,1.500000000000000888e+00,1.110223024625156540e-16,-2.125000000000000888e+00,-1.562500000000000888e+00,1.437500000000000888e+00,3.375000000000001776e+00,8.125000000000004441e-01
-1.250000000000000222e+00,4.500000000000000888e+00,-2.250000000000000444e+00,-5.000000000000001110e-01,0.000000000000000000e+00,2.500000000000000555e-01,-1.250000000000000222e+00,2.750000000000000888e+00,-1.000000000000000444e+00,-1.750000000000000444e+00,0.000000000000000000e+00,3.250000000000000888e+00,-1.000000000000000222e+00,-1.000000000000000222e+00,-2.500000000000000555e-01,0.000000000000000000e+00,-2.500000000000000555e-01,1.250000000000000444e+00,-1.750000000000000444e+00,1.500000000000000444e+00,0.000000000000000000e+00,-7.500000000000002220e-01,7.500000000000002220e-01,-5.000000000000001110e-01,-1.000000000000000222e+00,2.500000000000000000e-01,1.250000000000000444e+00,5.000000000000001110e-01,-2.000000000000000444e+00,5.000000000000001110e-01,-1.000000000000000444e+00,4.500000000000001776e+00,-4.000000000000000888e+00,1.750000000000000444e+00,-1.000000000000000222e+00,-2.500000000000000555e-01,1.500000000000000444e+00,-1.750000000000000444e+00,0.000000000000000000e+00,1.000000000000000222e+00,-2.750000000000000444e+00,3.750000000000000888e+00,-1.750000000000000444e+00,5.000000000000001110e-01,7.500000000000002220e-01,-2.500000000000000888e+00,3.250000000000000888e+00,-1.000000000000000444e+00,-5.000000000000001110e-01,-5.000000000000001110e-01,0.000000000000000000e+00,-1.250000000000000444e+00,2.750000000000000888e+00,-1.000000000000000222e+00,2.500000000000000555e-01,-2.500000000000000555e-01,-2.500000000000000555e-01,-5.000000000000002220e-01,0.000000000000000000e+00,2.000000000000000444e+00,-5.000000000000000000e-01,-5.000000000000002220e-01,-5.000000000000001110e-01,2.500000000000000555e-01,-1.250000000000000222e+00,2.250000000000000444e+00,-2.000000000000000444e+00,1.250000000000000222e+00,-5.000000000000001110e-01,-1.250000000000000444e+00,1.000000000000000444e+00,2.750000000000000444e+00,-1.500000000000000222e+00,-1.000000000000000222e+00,-7.500000000000002220e-01,2.750000000000000888e+00,-1.250000000000000444e+00,-7.500000000000002220e-01,5.000000000000001110e-01,-2.500000000000000444e+00,2.500000000000000000e-01,4.750000000000000888e+00,2.000000000000000444e+00,-5.500000000000000888e+00,-1.500000000000000222e+00,2.000000000000000444e+00,7.500000000000002220e-01,-5.000000000000001110e-01,7.500000000000002220e-01,-1.500000000000000444e+00,-7.500000000000002220e-01,2.750000000000000888e+00,-2.500000000000000444e+00,2.750000000000000888e+00,-5.000000000000002220e-01,-1.250000000000000222e+00,-5.000000000000002220e-01,2.500000000000001110e-01,1.250000000000000444e+00,2.500000000000000888e+00
