-4.749625000000040842e+00,-3.562125000000039954e+00,-2.421500000000039066e+00,-1.249625000000038177e+00,-4.996250000000376223e-01,1.097499999999627940e-01,6.097499999999631548e-01,9.847499999999632658e-01,1.109749999999963377e+00,1.062874999999963377e+00,1.047249999999963377e+00,8.753749999999633769e-01,8.753749999999633769e-01,1.000374999999963377e+00,1.078499999999963377e+00,1.078499999999963377e+00,1.437874999999963599e+00,1.937874999999964043e+00,2.265999999999964043e+00,2.781624999999964487e+00,3.140999999999965375e+00,3.250374999999965375e+00,3.359749999999965375e+00,3.469124999999965375e+00,3.265999999999965375e+00,2.984749999999965375e+00,2.844124999999964487e+00,2.515999999999964043e+00,2.281624999999964043e+00,2.344124999999964043e+00,2.547249999999964487e+00,2.969124999999964931e+00,3.484749999999965375e+00,4.109749999999965375e+00,4.609749999999965375e+00,5.094124999999966263e+00,5.547249999999966263e+00,5.672249999999966263e+00,5.531624999999966263e+00,5.140999999999966263e+00,4.765999999999965375e+00,4.328499999999965375e+00,3.859749999999965375e+00,3.422249999999965375e+00,3.094124999999964931e+00,2.984749999999964487e+00,3.125374999999964931e+00,3.250374999999965375e+00,3.312874999999965375e+00,3.328499999999965375e+00,3.453499999999965375e+00,3.578499999999965375e+00,3.625374999999965375e+00,3.609749999999965375e+00,3.359749999999965375e+00,3.281624999999965375e+00,3.312874999999965375e+00,3.422249999999965375e+00,3.469124999999965375e+00,3.656624999999965375e+00,3.812874999999965375e+00,3.937874999999965375e+00,4.328499999999965375e+00,4.609749999999965375e+00,4.812874999999965375e+00,4.937874999999965375e+00,5.187874999999965375e+00,5.344124999999965375e+00,5.562874999999965375e+00,5.765999999999966263e+00,5.687874999999966263e+00,5.672249999999966263e+00,5.734749999999966263e+00,5.750374999999966263e+00,5.719124999999966263e+00,5.625374999999966263e+00,5.515999999999965375e+00,5.453499999999965375e+00,5.594124999999965375e+00,5.625374999999965375e+00,5.609749999999965375e+00,5.797249999999966263e+00,5.875374999999966263e+00,6.031624999999967152e+00,6.156624999999968040e+00,6.344124999999968040e+00,6.734749999999968040e+00,7.265999999999968040e+00,7.781624999999968040e+00,8.094124999999968040e+00,8.515999999999968040e+00,9.015999999999968040e+00,9.531624999999968040e+00,9.640999999999968040e+00,9.062874999999968040e+00,8.109749999999968040e+00,6.828499999999968040e+00,5.328499999999966263e+00,3.594124999999964487e+00,1.406624999999963377e+00
1.265625000000000888e+00,7.656250000000005551e-01,8.750000000000005551e-01,6.406250000000004441e-01,1.562500000000002776e-02,7.187500000000003331e-01,7.187500000000004441e-01,9.062500000000006661e-01,1.343750000000000888e+00,5.156250000000003331e-01,2.812500000000001665e-01,-1.093750000000001110e-01,-8.593750000000006661e-01,-7.343750000000004441e-01,-8.750000000000006661e-01,-1.000000000000000888e+00,-4.218750000000003331e-01,-4.687500000000001388e-02,3.125000000000001665e-01,6.093750000000004441e-01,5.625000000000004441e-01,4.531250000000003331e-01,3.437500000000002220e-01,7.968750000000004441e-01,8.750000000000004441e-01,7.187500000000004441e-01,6.093750000000004441e-01,-5.625000000000003331e-01,-1.203125000000000888e+00,-1.515625000000000888e+00,-1.781250000000001332e+00,-1.078125000000000666e+00,-6.562500000000003331e-01,-9.375000000000000000e-02,5.937500000000004441e-01,1.046875000000000666e+00,1.656250000000001110e+00,1.906250000000001332e+00,1.734375000000001332e+00,1.062500000000000888e+00,1.875000000000001943e-01,-8.125000000000003331e-01,-1.468750000000000888e+00,-1.406250000000000888e+00,-1.140625000000000666e+00,-2.812500000000001665e-01,2.656250000000002220e-01,2.031250000000001665e-01,2.031250000000001665e-01,-3.125000000000002776e-01,-1.250000000000001665e-01,5.000000000000003331e-01,6.406250000000004441e-01,9.687500000000006661e-01,4.062500000000002220e-01,-5.781250000000003331e-01,-8.593750000000006661e-01,-1.156250000000000888e+00,-8.906250000000006661e-01,-1.562500000000011102e-02,2.656250000000001110e-01,6.406250000000004441e-01,6.250000000000004441e-01,3.125000000000005551e-02,-1.718750000000001110e-01,-6.093750000000004441e-01,-3.593750000000002220e-01,1.718750000000001110e-01,3.281250000000002220e-01,7.500000000000005551e-01,4.531250000000003331e-01,3.125000000000004163e-02,9.375000000000006939e-02,-4.687500000000002776e-02,-7.812500000000005551e-02,1.406250000000000833e-01,-1.250000000000000833e-01,-3.750000000000002220e-01,-1.406250000000001110e-01,-3.593750000000003331e-01,-1.562500000000001388e-01,1.562500000000001110e-01,-4.687500000000005551e-02,1.718750000000001388e-01,-1.562500000000000000e-02,-1.406250000000001110e-01,-3.437500000000002220e-01,-8.125000000000006661e-01,-8.906250000000006661e-01,-1.078125000000000888e+00,-1.875000000000002220e-01,9.375000000000005551e-01,1.671875000000000888e+00,2.500000000000001776e+00,1.953125000000001332e+00,1.593750000000000888e+00,2.000000000000001332e+00,1.937500000000001332e+00,2.296875000000001776e+00,1.671875000000001110e+00
1.625000000000000888e+00,-1.062500000000000444e+00,-3.125000000000000000e-01,1.500000000000000666e+00,-1.250000000000002220e-01,-1.187500000000000666e+00,-1.875000000000000555e-01,1.250000000000000666e+00,1.187500000000000444e+00,6.250000000000008327e-02,6.250000000000008327e-02,-8.750000000000003331e-01,-1.125000000000000444e+00,1.375000000000000666e+00,6.875000000000002220e-01,-2.187500000000000888e+00,-8.750000000000004441e-01,1.000000000000000444e+00,3.125000000000001110e-01,5.000000000000002220e-01,6.875000000000003331e-01,-8.125000000000004441e-01,-5.625000000000003331e-01,8.750000000000003331e-01,0.000000000000000000e+00,1.875000000000002220e-01,1.687500000000000888e+00,-6.250000000000000000e-02,-1.687500000000000666e+00,-6.875000000000002220e-01,-3.750000000000002220e-01,-7.500000000000004441e-01,6.250000000000005551e-02,1.125000000000000444e+00,-6.250000000000022204e-02,-1.500000000000000888e+00,4.375000000000003331e-01,2.562500000000001332e+00,1.125000000000000444e+00,-8.125000000000004441e-01,-3.125000000000002220e-01,3.750000000000001110e-01,-2.500000000000002220e-01,-1.125000000000000666e+00,-1.312500000000000666e+00,-3.125000000000001110e-01,1.000000000000000444e+00,1.687500000000000888e+00,6.250000000000003331e-01,-1.875000000000000888e+00,-1.937500000000001110e+00,5.625000000000002220e-01,2.125000000000000888e+00,1.312500000000000666e+00,-8.750000000000004441e-01,-8.125000000000003331e-01,4.375000000000002220e-01,-1.125000000000000444e+00,-1.437500000000000666e+00,1.250000000000000666e+00,1.062500000000000444e+00,-9.375000000000004441e-01,-6.250000000000011102e-02,1.500000000000000666e+00,2.500000000000002220e-01,-1.687500000000000666e+00,-9.375000000000004441e-01,3.750000000000001110e-01,7.500000000000003331e-01,1.125000000000000444e+00,2.500000000000001665e-01,-8.125000000000004441e-01,-6.875000000000003331e-01,-3.125000000000001110e-01,1.000000000000000444e+00,1.375000000000000666e+00,-1.250000000000000666e+00,-1.687500000000000888e+00,1.187500000000000666e+00,1.125000000000000444e+00,-1.062500000000000444e+00,-1.062500000000000444e+00,5.625000000000003331e-01,1.437500000000000888e+00,0.000000000000000000e+00,-1.562500000000000888e+00,-5.000000000000002220e-01,1.437500000000000666e+00,7.500000000000003331e-01,-1.625000000000000888e+00,-1.937500000000000888e+00,-5.625000000000002220e-01,1.687500000000001110e+00,3.500000000000001776e+00,1.625000000000000666e+00,-1.812500000000001110e+00,-2.937500000000001776e+00,1.250000000000002220e-01,5.000000000000002665e+00,3.312500000000001776e+00
3.250000000000000888e+00,-2.750000000000000888e+00,-1.750000000000000222e+00,5.500000000000001776e+00,-5.000000000000001776e+00,2.750000000000000888e+00,-1.750000000000000444e+00,2.500000000000000000e-01,2.750000000000000888e+00,-3.250000000000000888e+00,2.000000000000000444e+00,5.000000000000000000e-01,-3.500000000000000888e+00,2.750000000000000444e+00,1.500000000000000444e+00,-3.500000000000000888e+00,2.500000000000002220e-01,2.500000000000000444e+00,-2.500000000000000444e+00,1.500000000000000222e+00,0.000000000000000000e+00,5.000000000000002220e-01,-2.750000000000000888e+00,3.250000000000000888e+00,-7.500000000000001110e-01,-2.500000000000000444e+00,4.250000000000000888e+00,-1.500000000000000222e+00,-2.000000000000000444e+00,2.250000000000000444e+00,-2.000000000000000444e+00,1.250000000000000222e+00,-1.500000000000000222e+00,1.250000000000000222e+00,1.250000000000000222e+00,-3.250000000000000888e+00,1.750000000000000444e+00,2.500000000000000555e-01,2.000000000000000444e+00,-3.000000000000000888e+00,1.750000000000000444e+00,-5.000000000000002220e-01,2.500000000000000555e-01,-5.000000000000001110e-01,-2.500000000000000555e-01,-1.000000000000000222e+00,2.000000000000000444e+00,-1.750000000000000444e+00,3.250000000000000888e+00,-2.750000000000000444e+00,-1.000000000000000444e+00,1.750000000000000444e+00,-1.000000000000000222e+00,2.500000000000000888e+00,-1.500000000000000444e+00,-1.500000000000000222e+00,2.500000000000000444e+00,-7.500000000000001110e-01,-2.750000000000000444e+00,2.500000000000000444e+00,1.250000000000000444e+00,-3.250000000000000888e+00,2.500000000000000888e+00,-1.750000000000000444e+00,3.500000000000000888e+00,-4.250000000000000888e+00,1.500000000000000444e+00,5.000000000000001110e-01,-1.250000000000000222e+00,1.750000000000000444e+00,0.000000000000000000e+00,-1.500000000000000444e+00,1.250000000000000444e+00,-1.000000000000000222e+00,-2.500000000000001110e-01,2.250000000000000888e+00,-7.500000000000002220e-01,-3.000000000000000888e+00,2.750000000000000444e+00,1.000000000000000444e+00,-3.000000000000000888e+00,2.500000000000000888e+00,-3.000000000000000888e+00,3.750000000000000888e+00,-1.750000000000000444e+00,-2.500000000000000555e-01,-5.000000000000002220e-01,5.000000000000002220e-01,1.750000000000000444e+00,-2.000000000000000444e+00,-1.000000000000000444e+00,2.000000000000000444e+00,-3.500000000000000888e+00,5.750000000000001776e+00,-2.250000000000000444e+00,5.000000000000001110e-01,-1.500000000000000444e+00,-1.000000000000000444e+00,1.500000000000000444e+00,6.000000000000001776e+00
