-1.774675000000003067e+01,-1.793425000000003067e+01,-1.799675000000003067e+01,-1.815300000000003067e+01,-1.848112500000003067e+01,-1.851237500000003067e+01,-1.844987500000003067e+01,-1.841862500000003067e+01,-1.844987500000003067e+01,-1.844987500000003067e+01,-1.832487500000003067e+01,-1.802800000000003067e+01,-1.743425000000003067e+01,-1.704362500000003067e+01,-1.665300000000003067e+01,-1.623112500000003067e+01,-1.596550000000003067e+01,-1.566862500000003067e+01,-1.543425000000003067e+01,-1.535612500000003067e+01,-1.554362500000003067e+01,-1.577800000000003067e+01,-1.596550000000003067e+01,-1.627800000000003067e+01,-1.641862500000003067e+01,-1.655925000000003067e+01,-1.677800000000003067e+01,-1.702800000000003067e+01,-1.724675000000003067e+01,-1.729362500000003067e+01,-1.735612500000003067e+01,-1.735612500000003067e+01,-1.748112500000003067e+01,-1.760612500000003067e+01,-1.779362500000003067e+01,-1.794987500000003067e+01,-1.793425000000003067e+01,-1.816862500000003067e+01,-1.848112500000003067e+01,-1.871550000000003067e+01,-1.885612500000003067e+01,-1.909050000000003067e+01,-1.918425000000003067e+01,-1.921550000000003067e+01,-1.951237500000003067e+01,-1.960612500000003067e+01,-1.963737500000003067e+01,-1.979362500000003067e+01,-2.002800000000003067e+01,-2.016862500000003067e+01,-2.046550000000003067e+01,-2.080925000000003067e+01,-2.091862500000003067e+01,-2.094987500000003067e+01,-2.101237500000003067e+01,-2.094987500000003067e+01,-2.074675000000003067e+01,-2.051237500000003067e+01,-2.002800000000003067e+01,-1.951237500000003067e+01,-1.902800000000003067e+01,-1.877800000000003067e+01,-1.852800000000003067e+01,-1.821550000000003067e+01,-1.791862500000003067e+01,-1.754362500000003067e+01,-1.726237500000003067e+01,-1.699675000000003067e+01,-1.673112500000003067e+01,-1.616862500000003067e+01,-1.552800000000003067e+01,-1.501237500000003067e+01,-1.444987500000003067e+01,-1.409050000000003067e+01,-1.371550000000003067e+01,-1.327800000000003067e+01,-1.279362500000003067e+01,-1.255925000000003067e+01,-1.240300000000003067e+01,-1.212175000000003067e+01,-1.190300000000002889e+01,-1.146550000000002711e+01,-1.115300000000002534e+01,-1.084050000000002534e+01,-1.065300000000002534e+01,-1.032487500000002534e+01,-9.793625000000025338e+00,-9.387375000000025338e+00,-9.043625000000025338e+00,-8.871750000000025338e+00,-8.528000000000025338e+00,-8.199875000000025338e+00,-7.887375000000025338e+00,-6.949875000000025338e+00,-5.590500000000023562e+00,-3.403000000000021785e+00,-4.342500000000203420e-01,3.300124999999981767e+00,7.675124999999983544e+00,1.276887499999998710e+01
-9.375000000000002776e-02,-4.687500000000002776e-01,-3.437500000000002220e-01,-1.250000000000000833e-01,-2.343750000000001665e-01,2.968750000000001665e-01,4.218750000000002220e-01,2.656250000000001665e-01,-2.031250000000001388e-01,-7.656250000000004441e-01,-1.078125000000000666e+00,-1.062500000000000666e+00,-3.437500000000002776e-01,-1.093750000000000971e-01,1.875000000000000555e-01,4.531250000000002220e-01,4.375000000000002220e-01,1.015625000000000444e+00,1.156250000000000666e+00,1.078125000000000666e+00,5.156250000000002220e-01,-4.375000000000003331e-01,-7.500000000000005551e-01,-8.125000000000006661e-01,-1.718750000000001665e-01,5.312500000000003331e-01,6.250000000000004441e-01,3.750000000000002220e-01,-2.187500000000001665e-01,-6.718750000000004441e-01,-7.343750000000004441e-01,-3.593750000000002220e-01,1.562500000000000694e-02,3.906250000000003331e-01,7.031250000000004441e-01,6.093750000000004441e-01,4.062500000000002220e-01,1.406250000000000833e-01,-4.218750000000003331e-01,-6.875000000000004441e-01,-3.593750000000002220e-01,-3.125000000000002776e-01,1.562500000000001388e-01,5.000000000000004441e-01,4.687500000000001388e-02,7.812500000000004163e-02,-1.406250000000000833e-01,-2.343750000000001110e-01,1.250000000000000833e-01,2.031250000000001110e-01,5.000000000000003331e-01,4.062500000000002776e-01,7.812500000000002776e-02,-2.656250000000001665e-01,-1.140625000000000888e+00,-1.453125000000000888e+00,-1.343750000000000888e+00,-8.906250000000004441e-01,2.500000000000002776e-01,9.218750000000006661e-01,1.062500000000000666e+00,7.500000000000004441e-01,1.250000000000000555e-01,-2.500000000000002220e-01,-1.718750000000001110e-01,-1.093750000000000555e-01,-2.656250000000001110e-01,-3.437500000000002220e-01,-7.968750000000004441e-01,-6.718750000000004441e-01,-6.250000000000008327e-02,1.718750000000000833e-01,6.718750000000004441e-01,7.500000000000004441e-01,3.125000000000002220e-01,2.500000000000001665e-01,7.812500000000002776e-02,-2.812500000000002220e-01,-6.250000000000005551e-02,-9.375000000000008327e-02,-6.250000000000005551e-02,2.500000000000002220e-01,-1.250000000000000555e-01,-1.875000000000001110e-01,-3.125000000000001665e-01,-2.656250000000001665e-01,2.031250000000001665e-01,2.968750000000002220e-01,3.281250000000002220e-01,-3.125000000000002776e-02,-1.875000000000001388e-01,-1.406250000000000555e-01,1.093750000000000833e-01,-1.406250000000001110e-01,-1.500000000000000888e+00,-3.625000000000001776e+00,-6.843750000000003553e+00,-8.015625000000005329e+00,-7.140625000000005329e+00,-3.984375000000003109e+00
-5.625000000000003331e-01,-2.500000000000001665e-01,1.187500000000000666e+00,8.750000000000005551e-01,-1.937500000000000888e+00,-1.437500000000000888e+00,1.625000000000000888e+00,2.000000000000000888e+00,0.000000000000000000e+00,-1.437500000000000666e+00,-1.500000000000000666e+00,-3.125000000000000555e-01,6.250000000000002220e-01,2.500000000000001110e-01,5.625000000000003331e-01,3.750000000000001665e-01,-1.375000000000000888e+00,-7.500000000000004441e-01,1.875000000000001110e+00,1.875000000000001110e+00,-3.750000000000002220e-01,-6.875000000000004441e-01,-1.875000000000001110e-01,-1.562500000000000888e+00,-1.062500000000000444e+00,1.875000000000000888e+00,2.000000000000000888e+00,-5.000000000000002220e-01,-1.187500000000000666e+00,-1.875000000000001110e-01,-3.125000000000001665e-01,-6.875000000000003331e-01,5.625000000000003331e-01,1.312500000000000666e+00,-5.625000000000002220e-01,-1.312500000000000444e+00,1.375000000000000888e+00,1.875000000000000888e+00,-1.250000000000000888e+00,-1.750000000000000888e+00,6.250000000000000000e-02,2.500000000000001110e-01,6.250000000000003331e-01,5.625000000000002220e-01,-6.875000000000003331e-01,1.250000000000001110e-01,6.250000000000003331e-01,-1.125000000000000444e+00,-7.500000000000002220e-01,1.562500000000000666e+00,8.125000000000002220e-01,-1.500000000000000666e+00,-6.250000000000000000e-02,1.812500000000000888e+00,-2.500000000000000000e-01,-1.750000000000000888e+00,-8.125000000000004441e-01,-5.000000000000002220e-01,-3.750000000000001665e-01,9.375000000000004441e-01,2.062500000000000888e+00,8.750000000000003331e-01,-1.500000000000000444e+00,-1.687500000000000666e+00,1.875000000000000000e-01,1.250000000000000444e+00,8.750000000000004441e-01,-3.125000000000001110e-01,-1.375000000000000666e+00,-8.125000000000004441e-01,-6.250000000000001388e-02,4.375000000000002220e-01,1.625000000000000666e+00,4.375000000000001110e-01,-1.750000000000000888e+00,-1.250000000000000000e-01,1.562500000000000666e+00,-6.250000000000011102e-02,-9.375000000000004441e-01,-1.875000000000001110e-01,6.250000000000001388e-02,6.250000000000004163e-02,6.250000000000002220e-01,8.750000000000004441e-01,-9.375000000000004441e-01,-2.062500000000000888e+00,1.875000000000000000e-01,2.187500000000000888e+00,1.062500000000000444e+00,-1.000000000000000444e+00,-1.437500000000000666e+00,-5.625000000000002220e-01,8.750000000000004441e-01,1.437500000000000666e+00,-6.250000000000011102e-02,-1.125000000000000444e+00,1.250000000000001110e-01,-1.437500000000000444e+00,-8.187500000000003553e+00,-7.187500000000003553e+00
2.500000000000000444e+00,-2.250000000000000444e+00,2.500000000000000000e-01,3.500000000000000888e+00,-4.250000000000000888e+00,7.500000000000002220e-01,5.000000000000002220e-01,1.250000000000000222e+00,-2.500000000000000000e-01,-1.250000000000000444e+00,1.000000000000000222e+00,-2.500000000000000444e+00,3.250000000000000888e+00,-2.000000000000000444e+00,0.000000000000000000e+00,2.500000000000000888e+00,-3.000000000000000888e+00,5.000000000000000000e-01,5.000000000000002220e-01,1.500000000000000222e+00,-5.000000000000000000e-01,-2.000000000000000444e+00,3.000000000000000888e+00,-2.250000000000000444e+00,-1.250000000000000444e+00,2.250000000000000444e+00,2.500000000000001110e-01,2.500000000000000000e-01,-2.250000000000000444e+00,2.250000000000000444e+00,-1.500000000000000444e+00,5.000000000000001110e-01,-1.000000000000000222e+00,2.000000000000000444e+00,-2.500000000000000000e-01,-2.250000000000000888e+00,1.250000000000000444e+00,2.250000000000000444e+00,-1.750000000000000444e+00,-1.750000000000000444e+00,2.250000000000000888e+00,-7.500000000000002220e-01,-1.500000000000000444e+00,4.250000000000000888e+00,-4.750000000000000888e+00,2.500000000000000444e+00,2.500000000000001110e-01,-7.500000000000002220e-01,-1.250000000000000222e+00,1.500000000000000222e+00,1.250000000000000444e+00,-2.000000000000000444e+00,-1.000000000000000444e+00,3.500000000000000888e+00,-1.500000000000000444e+00,-1.750000000000000444e+00,2.000000000000000444e+00,-2.000000000000000444e+00,1.250000000000000222e+00,-1.250000000000000222e+00,2.000000000000000444e+00,2.500000000000000000e-01,-1.000000000000000222e+00,-7.500000000000002220e-01,0.000000000000000000e+00,1.500000000000000444e+00,-1.250000000000000444e+00,1.750000000000000444e+00,-2.000000000000000444e+00,-2.500000000000000000e-01,1.750000000000000444e+00,-2.500000000000000888e+00,2.250000000000000444e+00,1.000000000000000444e+00,-2.750000000000000888e+00,2.500000000000000000e-01,2.250000000000000444e+00,-1.000000000000000222e+00,-1.500000000000000222e+00,2.500000000000000444e+00,-3.000000000000000888e+00,3.250000000000000888e+00,-3.250000000000000888e+00,3.250000000000000888e+00,-1.000000000000000444e+00,-2.250000000000000444e+00,1.500000000000000444e+00,0.000000000000000000e+00,1.750000000000000444e+00,-2.000000000000000444e+00,2.500000000000000555e-01,0.000000000000000000e+00,-1.000000000000000222e+00,2.750000000000000888e+00,-1.750000000000000444e+00,2.500000000000000555e-01,-7.500000000000002220e-01,1.250000000000000444e+00,7.500000000000001110e-01,-1.350000000000000355e+01
