-6.441000000000034476e+00,-7.847250000000036252e+00,-6.175375000000034476e+00,-4.753500000000034476e+00,-4.128500000000033587e+00,-1.612875000000032033e+00,8.246249999999697433e-01,1.355874999999969965e+00,3.871499999999971742e+00,3.590249999999971742e+00,2.246499999999970409e+00,1.855874999999970187e+00,3.887124999999971298e+00,5.355874999999972630e+00,5.230874999999972630e+00,6.058999999999972630e+00,4.808999999999971742e+00,1.030899999999997618e+01,1.485587499999997974e+01,1.627774999999997974e+01,1.094962499999997618e+01,7.637124999999972630e+00,5.777749999999972630e+00,1.980874999999970631e+00,1.340249999999970187e+00,-5.050375000000033587e+00,-1.131600000000003803e+01,-1.334725000000004158e+01,-9.941000000000038028e+00,-6.644125000000036252e+00,-4.753500000000034476e+00,-1.269125000000032255e+00,-3.394125000000034031e+00,-5.487875000000035364e+00,-3.441000000000033587e+00,-2.441000000000032699e+00,-4.097250000000034476e+00,-5.003500000000035364e+00,-4.628500000000034476e+00,-4.644125000000034476e+00,-1.691000000000032477e+00,1.949624999999970409e+00,7.462499999996907718e-02,-3.097250000000033143e+00,-2.081625000000032255e+00,-4.769125000000033587e+00,-9.378500000000038028e+00,-1.406600000000003980e+01,-1.461287500000003980e+01,-1.037850000000003803e+01,-6.659750000000036252e+00,-4.659750000000033587e+00,-6.894125000000034476e+00,-5.269125000000033587e+00,-4.566250000000305898e-01,6.574624999999973518e+00,5.808999999999971742e+00,-2.675375000000032699e+00,-5.050375000000034476e+00,-2.237875000000033143e+00,1.652749999999969965e+00,2.683999999999969965e+00,2.340249999999969965e+00,-6.597500000000313669e-01,3.089999999999692992e-01,4.512124999999971742e+00,3.918374999999971742e+00,-2.691250000000311449e-01,-1.909750000000032255e+00,-1.081625000000031811e+00,1.246499999999970187e+00,6.262124999999973518e+00,1.019962499999997618e+01,1.143399999999997618e+01,1.252774999999997618e+01,1.515274999999997974e+01,1.584024999999997974e+01,1.549649999999997974e+01,1.030899999999997441e+01,1.871499999999969965e+00,-4.862875000000034476e+00,-6.534750000000034476e+00,-5.941000000000034476e+00,-6.753500000000036252e+00,-8.597250000000038028e+00,-1.034725000000003803e+01,-9.378500000000038028e+00,-7.769125000000036252e+00,-6.112875000000034476e+00,-6.847250000000034476e+00,-7.941000000000036252e+00,-8.066000000000036252e+00,-7.253500000000036252e+00,-6.503500000000035364e+00,-5.253500000000034476e+00,-3.019125000000032699e+00,-1.519125000000031811e+00,9.024999999996918820e-02,4.964999999999694658e-01,5.121249999999695213e-01
-3.200000000000002132e+01,-2.403125000000001421e+01,-1.276562500000000711e+01,2.250000000000002665e+00,1.862500000000001421e+01,1.892187500000001421e+01,1.460937500000001066e+01,1.765625000000002665e+00,-1.093750000000000711e+01,-1.278125000000000888e+01,-1.087500000000000711e+01,-1.718750000000000000e-01,1.123437500000000711e+01,1.007812500000000711e+01,5.578125000000003553e+00,-5.125000000000003553e+00,-1.243750000000000888e+01,-1.056250000000000711e+01,-6.921875000000004441e+00,4.406250000000002665e+00,8.421875000000005329e+00,1.867187500000001066e+01,2.696875000000001421e+01,2.082812500000001066e+01,1.134375000000000533e+01,-1.676562500000001066e+01,-3.900000000000002842e+01,-4.503125000000002842e+01,-2.943750000000002132e+01,3.765625000000000888e+00,2.737500000000001421e+01,4.182812500000002842e+01,2.970312500000002132e+01,6.484375000000005329e+00,-1.050000000000000711e+01,-2.537500000000001776e+01,-2.271875000000001421e+01,-1.606250000000001066e+01,-3.875000000000002665e+00,9.953125000000007105e+00,1.262500000000001066e+01,1.917187500000001421e+01,1.235937500000000888e+01,1.718750000000000222e+00,2.656249999999993339e-01,-8.609375000000007105e+00,-6.687500000000005329e+00,-8.750000000000003331e-01,-1.015625000000000444e+00,-3.062500000000002220e+00,-1.115625000000000711e+01,-2.034375000000001421e+01,-1.848437500000001421e+01,4.015625000000001776e+00,2.551562500000001421e+01,3.973437500000002842e+01,3.300000000000002132e+01,-2.453125000000000000e+00,-2.907812500000002132e+01,-3.907812500000002842e+01,-3.065625000000001776e+01,-1.875000000000003553e+00,2.065625000000001421e+01,2.803125000000001776e+01,2.550000000000001421e+01,9.734375000000005329e+00,-6.421875000000004441e+00,-1.579687500000001066e+01,-1.946875000000001066e+01,-1.017187500000000711e+01,-3.562500000000002665e+00,-2.578125000000000888e+00,-8.906250000000002220e-01,-7.500000000000004441e+00,-4.062499999999982236e-01,1.859375000000001421e+01,2.771875000000002132e+01,3.362500000000002132e+01,1.787500000000001066e+01,-1.243750000000000888e+01,-2.820312500000002132e+01,-3.365625000000002132e+01,-2.131250000000001421e+01,1.625000000000000888e+00,1.171875000000000711e+01,1.546875000000001066e+01,1.193750000000000711e+01,1.578125000000000888e+00,-1.453125000000000444e+00,-4.593750000000002665e+00,-7.437500000000005329e+00,-5.500000000000003553e+00,-5.187500000000003553e+00,-3.125000000000001776e+00,1.687500000000001776e+00,4.078125000000003553e+00,4.953125000000003553e+00,4.593750000000003553e+00,1.000000000000000888e+00,-1.140625000000000888e+00
-2.537500000000001421e+01,-3.868750000000001421e+01,3.875000000000003553e+00,2.218750000000001066e+01,3.687500000000001776e+00,3.875000000000001776e+00,2.125000000000001066e+01,4.062500000000003553e+00,-2.275000000000001066e+01,-1.387500000000000711e+01,3.312500000000001776e+00,5.000000000000004441e-01,-9.187500000000005329e+00,1.000000000000000355e+01,4.312500000000002132e+01,7.750000000000007105e+00,-6.293750000000002132e+01,-3.881250000000001421e+01,4.875000000000001421e+01,4.775000000000001421e+01,-3.043750000000001421e+01,-4.137500000000001421e+01,1.018750000000000355e+01,4.412500000000002132e+01,4.350000000000002132e+01,-5.750000000000000000e+00,-5.425000000000002132e+01,-4.068750000000001421e+01,-8.937500000000003553e+00,-4.937500000000002665e+00,2.106250000000001066e+01,6.262500000000002842e+01,2.512500000000000711e+01,-3.731250000000001421e+01,-2.737500000000001066e+01,1.250000000000000888e+00,2.250000000000001332e+00,-7.500000000000003331e-01,-8.312500000000003553e+00,-1.937500000000000711e+01,1.325000000000001066e+01,5.006250000000002842e+01,-2.500000000000000000e-01,-4.243750000000002132e+01,3.000000000000000000e+00,2.431250000000000711e+01,-5.750000000000001776e+00,-1.662500000000000711e+01,-6.187500000000003553e+00,5.875000000000003553e+00,2.075000000000001066e+01,1.793750000000000711e+01,-2.993750000000001421e+01,-7.706250000000002842e+01,-1.887500000000000355e+01,1.123750000000000568e+02,1.043750000000000568e+02,-4.868750000000002132e+01,-1.031875000000000426e+02,-3.025000000000001066e+01,2.393750000000001066e+01,3.087500000000001421e+01,8.437500000000005329e+00,-1.593750000000000533e+01,8.375000000000003553e+00,4.068750000000001421e+01,5.937500000000000000e+00,-4.825000000000002132e+01,-2.968750000000001421e+01,2.068750000000000711e+01,1.550000000000000533e+01,-3.250000000000001776e+00,6.125000000000002665e+00,5.000000000000000000e-01,-1.893750000000000711e+01,-2.731250000000001421e+01,3.125000000000000000e+00,6.856250000000002842e+01,5.950000000000002842e+01,-3.475000000000001421e+01,-7.625000000000002842e+01,-2.912500000000001421e+01,2.593750000000000711e+01,2.831250000000001066e+01,-1.874999999999991118e-01,-2.687500000000000888e+00,5.375000000000002665e+00,-1.375000000000001110e+00,-1.000000000000000888e+00,-6.250000000000004441e-01,-5.687500000000003553e+00,-5.000000000000004441e-01,1.625000000000000888e+00,-4.437500000000001776e+00,-3.500000000000001776e+00,2.625000000000000888e+00,7.250000000000002665e+00,6.250000000000002665e+00,-2.062500000000000888e+00,-6.187500000000003553e+00
-2.875000000000000711e+01,-3.300000000000000711e+01,3.250000000000000711e+01,-1.125000000000000178e+01,2.625000000000000711e+01,-4.575000000000001421e+01,5.275000000000001421e+01,-1.475000000000000533e+01,-1.575000000000000355e+01,2.500000000000000888e+00,-2.500000000000000000e-01,8.250000000000001776e+00,-1.250000000000000355e+01,1.000000000000000000e+00,1.500000000000000888e+00,6.975000000000001421e+01,-1.070000000000000284e+02,3.350000000000000711e+01,-2.425000000000000711e+01,9.900000000000002842e+01,-8.250000000000001421e+01,-9.500000000000003553e+00,3.950000000000001421e+01,-3.550000000000000711e+01,6.625000000000001421e+01,-2.400000000000000355e+01,-2.500000000000000355e+01,-8.500000000000003553e+00,-3.250000000000000000e+00,2.525000000000000711e+01,-5.825000000000001421e+01,8.325000000000002842e+01,3.000000000000000000e+00,-5.325000000000001421e+01,2.075000000000000355e+01,-8.000000000000001776e+00,8.000000000000001776e+00,-8.750000000000001776e+00,7.250000000000001776e+00,-3.500000000000000888e+00,-3.575000000000000711e+01,6.625000000000001421e+01,9.250000000000000000e+00,-8.775000000000002842e+01,6.525000000000001421e+01,-7.500000000000001776e+00,-7.750000000000001776e+00,0.000000000000000000e+00,-1.175000000000000178e+01,1.900000000000000355e+01,-2.250000000000000711e+01,4.650000000000001421e+01,-3.225000000000000711e+01,-7.250000000000001776e+00,-6.075000000000001421e+01,6.075000000000001421e+01,1.072500000000000284e+02,-9.375000000000002842e+01,-3.325000000000000711e+01,1.100000000000000355e+01,1.050000000000000178e+01,-2.250000000000000000e+00,3.100000000000000711e+01,-4.000000000000000711e+01,6.250000000000001776e+00,2.950000000000000711e+01,7.000000000000003553e+00,-2.725000000000000711e+01,-3.350000000000000711e+01,4.700000000000000711e+01,-3.750000000000000000e+00,-2.300000000000000711e+01,2.200000000000000711e+01,5.000000000000001776e+00,-3.175000000000000711e+01,3.400000000000000711e+01,-6.325000000000001421e+01,6.175000000000001421e+01,4.075000000000001421e+01,-4.025000000000001421e+01,-2.925000000000000711e+01,-5.250000000000000000e+00,1.175000000000000178e+01,2.525000000000000711e+01,-1.750000000000000355e+01,-1.000000000000000178e+01,3.150000000000000711e+01,-3.200000000000000711e+01,1.800000000000000355e+01,-1.500000000000000000e+00,-9.500000000000001776e+00,4.500000000000000888e+00,4.250000000000000888e+00,-6.500000000000001776e+00,-1.500000000000000000e+00,5.750000000000000888e+00,-6.250000000000000888e+00,1.350000000000000355e+01,-9.000000000000001776e+00,-7.500000000000001110e-01
