-6.638000000000038980e+00,-5.903625000000038980e+00,-5.184875000000037204e+00,-4.388000000000036316e+00,-3.716125000000036316e+00,-3.169250000000036316e+00,-2.825500000000035428e+00,-2.356750000000035428e+00,-1.966125000000034984e+00,-1.716125000000034984e+00,-1.622375000000034984e+00,-1.684875000000034984e+00,-1.747375000000034984e+00,-1.950500000000034984e+00,-2.184875000000034984e+00,-2.591125000000035428e+00,-2.872375000000035428e+00,-3.013000000000035872e+00,-3.013000000000035872e+00,-2.763000000000035428e+00,-2.606750000000035428e+00,-2.388000000000035428e+00,-2.184875000000034984e+00,-1.809875000000034762e+00,-1.559875000000034762e+00,-1.356750000000034539e+00,-1.169250000000034317e+00,-1.184875000000034317e+00,-1.059875000000034317e+00,-9.192500000000343174e-01,-7.005000000000340954e-01,-6.223750000000339844e-01,-5.442500000000339844e-01,-4.348750000000339289e-01,-3.411250000000338733e-01,-2.862500000003369294e-02,2.369999999999665152e-01,5.963749999999667928e-01,9.713749999999670148e-01,1.455749999999967237e+00,2.127624999999967681e+00,2.815124999999968125e+00,3.549499999999969013e+00,4.174499999999969013e+00,4.893249999999969901e+00,5.580749999999969901e+00,6.205749999999971678e+00,6.627624999999971678e+00,6.877624999999971678e+00,7.111999999999971678e+00,7.283874999999971678e+00,7.330749999999971678e+00,7.299499999999971678e+00,7.143249999999971678e+00,7.049499999999971678e+00,7.268249999999971678e+00,7.471374999999971678e+00,7.549499999999971678e+00,7.643249999999971678e+00,7.736999999999971678e+00,7.705749999999971678e+00,7.690124999999971678e+00,7.518249999999971678e+00,7.049499999999971678e+00,6.611999999999971678e+00,6.080749999999971678e+00,5.283874999999969901e+00,4.299499999999969013e+00,3.002624999999968125e+00,1.221374999999967015e+00,-1.013000000000034539e+00,-3.888000000000035872e+00,-7.669250000000038980e+00,-1.252862500000004076e+01,-1.843487500000004431e+01,-2.548175000000004786e+01,-3.337237500000005497e+01,-4.209112500000006207e+01,-5.154425000000006918e+01,-6.143487500000007628e+01,-7.134112500000007628e+01,-8.035675000000009049e+01,-8.838800000000009049e+01,-9.501300000000011892e+01,-1.002786250000001189e+02,-1.039036250000001189e+02,-1.056380000000001189e+02,-1.054817500000001189e+02,-1.037005000000001189e+02,-1.007786250000001189e+02,-9.676300000000011892e+01,-9.202862500000009049e+01,-8.662237500000007628e+01,-7.999737500000007628e+01,-7.273175000000007628e+01,-6.499737500000007628e+01,-5.688800000000007628e+01,-4.868487500000006918e+01,-4.020050000000006207e+01,-3.148175000000005497e+01
1.000000000000000444e+00,5.156250000000002220e-01,1.718750000000000555e-01,1.875000000000001388e-01,1.562500000000000694e-02,4.687500000000003886e-01,4.375000000000003331e-01,1.562500000000001110e-01,1.406250000000001110e-01,-1.718750000000000833e-01,1.093750000000000833e-01,8.593750000000004441e-01,1.234375000000000666e+00,1.562500000000000888e+00,1.109375000000000666e+00,-2.968750000000003331e-01,-1.265625000000000888e+00,-2.125000000000001332e+00,-2.062500000000001332e+00,-1.000000000000000444e+00,-9.375000000000005551e-02,1.000000000000000666e+00,1.359375000000000888e+00,1.171875000000000666e+00,6.718750000000003331e-01,-2.812500000000001665e-01,-8.437500000000005551e-01,-1.015625000000000666e+00,-7.031250000000004441e-01,1.562500000000000555e-01,8.750000000000005551e-01,9.218750000000006661e-01,7.187500000000006661e-01,-7.812500000000005551e-02,-7.968750000000005551e-01,-8.593750000000006661e-01,-1.000000000000000666e+00,-5.468750000000003331e-01,-2.343750000000001943e-01,-9.375000000000011102e-02,1.718750000000001110e-01,-1.562500000000002776e-02,0.000000000000000000e+00,-1.875000000000001110e-01,-2.187500000000001665e-01,3.125000000000001388e-02,1.562500000000001110e-01,7.343750000000004441e-01,1.046875000000000666e+00,1.187500000000000888e+00,1.265625000000000888e+00,4.687500000000003331e-01,-3.125000000000001665e-01,-9.062500000000006661e-01,-1.375000000000000888e+00,-9.062500000000006661e-01,-1.718750000000001665e-01,2.500000000000001665e-01,6.562500000000004441e-01,8.125000000000005551e-01,5.937500000000004441e-01,6.718750000000004441e-01,7.812500000000004441e-01,4.375000000000002220e-01,3.125000000000002220e-01,1.562500000000001388e-01,-1.093750000000000555e-01,3.750000000000003331e-01,1.296875000000001110e+00,2.265625000000001776e+00,3.500000000000002220e+00,4.250000000000002665e+00,4.156250000000002665e+00,4.203125000000002665e+00,4.234375000000002665e+00,4.531250000000002665e+00,5.421875000000003553e+00,5.140625000000003553e+00,3.718750000000003109e+00,1.046875000000001332e+00,-2.734375000000001776e+00,-5.781250000000004441e+00,-7.937500000000005329e+00,-9.000000000000005329e+00,-8.984375000000005329e+00,-8.296875000000005329e+00,-7.437500000000005329e+00,-6.156250000000003553e+00,-4.812500000000003553e+00,-4.296875000000002665e+00,-3.312500000000002665e+00,-2.609375000000001776e+00,-1.890625000000001332e+00,-7.656250000000007772e-01,-1.093750000000000888e+00,-2.203125000000001332e+00,-4.062500000000001776e+00,-4.703125000000002665e+00,-3.000000000000002220e+00,5.312500000000008882e-01
1.125000000000000444e+00,-1.375000000000000444e+00,-1.500000000000000444e+00,4.375000000000001110e-01,1.187500000000000444e+00,1.875000000000001110e-01,-8.750000000000004441e-01,1.875000000000001110e-01,1.312500000000000888e+00,-3.750000000000001110e-01,-1.500000000000000888e+00,-1.875000000000001110e-01,1.000000000000000444e+00,1.375000000000000666e+00,1.062500000000000444e+00,3.750000000000001110e-01,-6.250000000000002220e-01,-2.375000000000000888e+00,-1.937500000000001110e+00,7.500000000000002220e-01,1.187500000000000444e+00,-1.250000000000000000e-01,6.250000000000011102e-02,1.125000000000000666e+00,6.250000000000003331e-01,-3.750000000000002220e-01,-2.500000000000001110e-01,-8.125000000000004441e-01,-1.500000000000000666e+00,0.000000000000000000e+00,1.562500000000000666e+00,1.187500000000000666e+00,3.125000000000001665e-01,-5.000000000000002220e-01,-8.750000000000004441e-01,-6.250000000000004441e-01,-2.500000000000001665e-01,4.375000000000002220e-01,2.500000000000001110e-01,-6.250000000000003331e-01,-3.125000000000002220e-01,6.875000000000003331e-01,6.875000000000004441e-01,-5.000000000000002220e-01,-9.375000000000004441e-01,-1.250000000000000555e-01,6.250000000000003331e-01,6.250000000000003331e-01,-1.875000000000000555e-01,-3.125000000000001110e-01,6.875000000000002220e-01,1.437500000000000666e+00,1.000000000000000444e+00,-1.500000000000000888e+00,-2.937500000000001776e+00,-1.250000000000002220e-01,1.937500000000000888e+00,4.375000000000002220e-01,-3.125000000000002220e-01,-6.250000000000002776e-02,-3.125000000000001665e-01,6.250000000000003331e-01,9.375000000000004441e-01,-5.000000000000002220e-01,-1.875000000000000000e-01,7.500000000000003331e-01,-1.875000000000001110e-01,-6.875000000000003331e-01,-3.125000000000001665e-01,2.500000000000001665e-01,1.750000000000000666e+00,2.125000000000000888e+00,1.000000000000000666e+00,1.062500000000000666e+00,9.375000000000004441e-01,-3.125000000000001110e-01,1.875000000000000000e-01,2.937500000000000888e+00,4.812500000000001776e+00,1.875000000000000888e+00,-3.437500000000000888e+00,-4.375000000000001776e+00,-1.937500000000000888e+00,-1.000000000000000444e+00,-2.000000000000000888e+00,-3.312500000000001776e+00,-3.187500000000001332e+00,-1.125000000000000444e+00,0.000000000000000000e+00,-4.375000000000001110e-01,-6.875000000000004441e-01,-1.875000000000000888e+00,-1.750000000000000666e+00,7.500000000000002220e-01,1.062500000000000222e+00,6.875000000000003331e-01,1.437500000000000888e+00,-2.375000000000001332e+00,-8.812500000000003553e+00,-4.562500000000002665e+00
2.250000000000000888e+00,-1.500000000000000444e+00,-1.750000000000000444e+00,2.500000000000000888e+00,-1.750000000000000444e+00,2.250000000000000444e+00,-2.000000000000000444e+00,-2.500000000000000000e-01,2.250000000000000444e+00,-1.000000000000000222e+00,-1.250000000000000222e+00,7.500000000000002220e-01,2.500000000000000555e-01,-2.500000000000000555e-01,1.750000000000000444e+00,-1.750000000000000444e+00,1.500000000000000222e+00,-7.500000000000001110e-01,-3.250000000000000444e+00,3.750000000000000888e+00,-1.750000000000000444e+00,1.250000000000000444e+00,-1.500000000000000444e+00,1.250000000000000222e+00,1.000000000000000222e+00,-2.250000000000000444e+00,2.000000000000000444e+00,-1.250000000000000222e+00,0.000000000000000000e+00,-1.500000000000000444e+00,3.000000000000000888e+00,-1.750000000000000444e+00,1.250000000000000444e+00,-2.500000000000001110e-01,-1.250000000000000444e+00,1.250000000000000444e+00,-1.250000000000000444e+00,2.500000000000001110e-01,1.750000000000000444e+00,-3.000000000000000888e+00,2.750000000000000888e+00,-2.750000000000000888e+00,3.500000000000000888e+00,-2.750000000000000888e+00,1.000000000000000222e+00,-7.500000000000002220e-01,7.500000000000002220e-01,-2.500000000000000555e-01,1.000000000000000222e+00,-2.250000000000000888e+00,2.500000000000000888e+00,-1.500000000000000444e+00,1.750000000000000444e+00,0.000000000000000000e+00,-3.000000000000000888e+00,5.000000000000002220e-01,2.500000000000000444e+00,-1.500000000000000222e+00,-2.500000000000000555e-01,1.250000000000000444e+00,-1.250000000000000444e+00,-2.500000000000001110e-01,2.500000000000000888e+00,-2.250000000000000444e+00,0.000000000000000000e+00,1.750000000000000444e+00,-1.250000000000000222e+00,-2.500000000000000555e-01,7.500000000000002220e-01,-1.000000000000000222e+00,5.000000000000001110e-01,2.250000000000000444e+00,-1.750000000000000444e+00,1.000000000000000444e+00,1.000000000000000000e+00,-1.000000000000000000e+00,-5.000000000000002220e-01,1.750000000000000222e+00,-2.500000000000000000e-01,5.250000000000001776e+00,-6.750000000000001776e+00,2.250000000000000888e+00,-3.000000000000000888e+00,2.750000000000000888e+00,-3.000000000000000888e+00,1.250000000000000222e+00,-3.000000000000000888e+00,5.000000000000002220e-01,1.250000000000000222e+00,-1.750000000000000444e+00,5.000000000000002220e-01,1.250000000000000222e+00,-5.000000000000000888e+00,4.750000000000000888e+00,-1.500000000000000444e+00,-7.500000000000000000e-01,2.250000000000000444e+00,-5.000000000000002220e-01,-1.250000000000000222e+00,-9.750000000000001776e+00
