7.426000000000049894e+00,6.926000000000049894e+00,6.426000000000049894e+00,5.816625000000049894e+00,5.363500000000048118e+00,4.972875000000047230e+00,4.457250000000047230e+00,3.863500000000047230e+00,3.191625000000046342e+00,2.410375000000046342e+00,1.754125000000045675e+00,1.144750000000045453e+00,3.635000000000448983e-01,-5.583749999999557678e-01,-1.370874999999956323e+00,-2.073999999999956767e+00,-2.636499999999957211e+00,-3.152124999999957211e+00,-3.698999999999958099e+00,-4.089624999999958099e+00,-4.277124999999958099e+00,-4.323999999999958099e+00,-4.214624999999958099e+00,-4.152124999999958099e+00,-3.995874999999958099e+00,-3.730249999999958099e+00,-3.448999999999958099e+00,-3.198999999999958099e+00,-3.136499999999958099e+00,-3.261499999999958099e+00,-3.714624999999958099e+00,-3.995874999999958099e+00,-4.511499999999958099e+00,-5.198999999999958987e+00,-5.964624999999959876e+00,-6.948999999999960764e+00,-7.792749999999960764e+00,-8.323999999999960764e+00,-8.511499999999960764e+00,-8.839624999999960764e+00,-8.995874999999960764e+00,-9.058374999999960764e+00,-9.027124999999960764e+00,-8.855249999999960764e+00,-8.698999999999960764e+00,-8.698999999999960764e+00,-8.777124999999960764e+00,-8.714624999999960764e+00,-8.714624999999960764e+00,-8.823999999999960764e+00,-9.089624999999960764e+00,-9.370874999999960764e+00,-9.589624999999960764e+00,-9.870874999999960764e+00,-1.030837499999996076e+01,-1.094899999999996254e+01,-1.146462499999996254e+01,-1.180837499999996432e+01,-1.201149999999996609e+01,-1.221462499999996609e+01,-1.249587499999996609e+01,-1.262087499999996609e+01,-1.252712499999996609e+01,-1.216774999999996609e+01,-1.201149999999996609e+01,-1.185524999999996432e+01,-1.168337499999996254e+01,-1.146462499999996254e+01,-1.126149999999996076e+01,-1.123024999999996076e+01,-1.130837499999996076e+01,-1.166774999999996254e+01,-1.179274999999996254e+01,-1.196462499999996432e+01,-1.191774999999996432e+01,-1.165212499999996254e+01,-1.112087499999996254e+01,-1.052712499999996254e+01,-9.995874999999962540e+00,-9.339624999999960764e+00,-8.745874999999960764e+00,-8.120874999999960764e+00,-8.120874999999960764e+00,-8.683374999999960764e+00,-9.667749999999960764e+00,-1.068337499999996254e+01,-1.163649999999996432e+01,-1.255837499999996609e+01,-1.369899999999996609e+01,-1.496462499999996609e+01,-1.569899999999996609e+01,-1.588649999999996609e+01,-1.593337499999996609e+01,-1.548024999999996609e+01,-1.463649999999996609e+01,-1.346462499999996609e+01,-1.182399999999996432e+01,-9.886499999999962540e+00,-7.855249999999960764e+00,-5.870874999999958987e+00
-1.875000000000001665e-01,-5.000000000000004441e-01,-6.250000000000004441e-01,-3.281250000000002220e-01,1.387778780781445676e-17,4.531250000000003886e-01,5.937500000000004441e-01,3.125000000000001665e-01,2.968750000000001665e-01,2.031250000000000555e-01,1.718750000000000833e-01,4.687500000000003331e-01,6.250000000000005551e-02,-4.531250000000002220e-01,-5.156250000000003331e-01,-7.500000000000004441e-01,-2.500000000000001665e-01,3.281250000000002220e-01,6.250000000000006939e-02,-1.718750000000000555e-01,-9.218750000000005551e-01,-1.625000000000001110e+00,-1.421875000000000888e+00,-8.593750000000004441e-01,1.718750000000001665e-01,1.156250000000000888e+00,1.500000000000000888e+00,8.750000000000005551e-01,-1.110223024625156540e-16,-5.625000000000004441e-01,-5.468750000000004441e-01,8.593750000000005551e-01,2.062500000000001332e+00,2.375000000000001332e+00,1.578125000000000888e+00,-4.375000000000003886e-01,-2.218750000000001332e+00,-3.000000000000001776e+00,-2.312500000000001776e+00,-1.046875000000000666e+00,2.968750000000002776e-01,1.234375000000000888e+00,1.015625000000000666e+00,6.562500000000004441e-01,1.250000000000000555e-01,-5.625000000000004441e-01,-4.843750000000003886e-01,-4.218750000000002776e-01,-2.343750000000001110e-01,3.750000000000002776e-01,5.156250000000004441e-01,9.843750000000008882e-01,1.203125000000000888e+00,7.343750000000004441e-01,3.593750000000001665e-01,-6.250000000000004441e-01,-1.171875000000000888e+00,-9.531250000000006661e-01,-7.500000000000004441e-01,-4.687500000000000000e-02,2.968750000000002220e-01,4.687500000000001388e-02,-4.687500000000006939e-02,-5.937500000000003331e-01,-9.375000000000006661e-01,-7.187500000000004441e-01,-5.156250000000003331e-01,5.781250000000004441e-01,1.312500000000000888e+00,1.531250000000000888e+00,1.546875000000000888e+00,3.437500000000001665e-01,-4.062500000000002220e-01,-9.843750000000007772e-01,-1.593750000000001332e+00,-1.484375000000001110e+00,-1.703125000000001332e+00,-1.734375000000001332e+00,-8.906250000000006661e-01,3.281250000000002220e-01,2.109375000000001332e+00,3.484375000000002220e+00,3.421875000000002220e+00,2.484375000000001332e+00,7.812500000000004441e-01,-2.656250000000002220e-01,-5.625000000000004441e-01,-7.656250000000004441e-01,-5.625000000000003331e-01,-1.234375000000000888e+00,-1.750000000000001332e+00,-1.500000000000001110e+00,-1.453125000000000888e+00,-1.031250000000000666e+00,-1.062500000000000666e+00,-1.984375000000001332e+00,-2.875000000000001776e+00,-2.812500000000001776e+00,-1.843750000000000888e+00,2.968750000000003331e-01
-1.562500000000000666e+00,-2.500000000000001110e-01,8.750000000000004441e-01,-5.625000000000002220e-01,-1.187500000000000666e+00,5.000000000000002220e-01,1.375000000000000666e+00,7.500000000000002220e-01,-3.125000000000001665e-01,-1.687500000000000666e+00,-7.500000000000002220e-01,2.062500000000000888e+00,1.750000000000000888e+00,-8.125000000000004441e-01,-1.937500000000000888e+00,-1.250000000000000444e+00,8.125000000000003331e-01,1.500000000000000666e+00,6.250000000000005551e-02,-3.125000000000001665e-01,-1.250000000000001110e-01,-6.250000000000003331e-01,-9.375000000000004441e-01,-1.062500000000000444e+00,-2.500000000000001110e-01,1.250000000000000444e+00,1.375000000000000666e+00,7.500000000000003331e-01,5.625000000000002220e-01,-1.000000000000000444e+00,-2.562500000000000888e+00,-9.375000000000004441e-01,1.625000000000000888e+00,3.250000000000001776e+00,3.062500000000001776e+00,-6.875000000000002220e-01,-4.062500000000001776e+00,-2.500000000000001332e+00,2.500000000000001110e-01,3.125000000000001110e-01,6.250000000000003331e-01,1.250000000000000666e+00,-6.250000000000011102e-02,-3.750000000000002220e-01,7.500000000000004441e-01,1.875000000000001665e-01,-1.312500000000000666e+00,-1.187500000000000444e+00,8.750000000000003331e-01,1.625000000000000666e+00,-5.000000000000002220e-01,-1.437500000000000666e+00,3.125000000000002220e-01,2.062500000000000888e+00,1.625000000000000444e+00,-1.000000000000000444e+00,-2.437500000000000888e+00,-1.312500000000000444e+00,6.875000000000003331e-01,1.937500000000000888e+00,3.750000000000001110e-01,-1.750000000000000888e+00,-5.000000000000002220e-01,1.437500000000000666e+00,6.250000000000003331e-01,-1.500000000000000888e+00,-1.875000000000000888e+00,6.250000000000011102e-02,1.625000000000000888e+00,1.875000000000000888e+00,6.875000000000003331e-01,-1.000000000000000444e+00,-3.750000000000002220e-01,1.250000000000001110e-01,-1.062500000000000444e+00,-6.875000000000003331e-01,5.000000000000003331e-01,1.875000000000001110e-01,-1.187500000000000444e+00,-2.062500000000000888e+00,-4.375000000000002220e-01,2.812500000000000888e+00,4.375000000000001776e+00,2.375000000000000888e+00,-2.187500000000000888e+00,-4.375000000000001776e+00,-8.750000000000004441e-01,4.000000000000001776e+00,2.687500000000001332e+00,-3.125000000000001332e+00,-3.375000000000001776e+00,5.625000000000002220e-01,8.125000000000003331e-01,-6.250000000000005551e-02,1.250000000000000555e-01,-6.250000000000002220e-01,-3.750000000000001110e-01,-3.750000000000001110e-01,-3.375000000000000888e+00,-3.000000000000000888e+00
-2.500000000000000888e+00,1.000000000000000222e+00,5.000000000000001110e-01,2.500000000000001110e-01,-2.000000000000000444e+00,1.250000000000000222e+00,7.500000000000002220e-01,-7.500000000000002220e-01,1.000000000000000222e+00,-7.500000000000002220e-01,-2.000000000000000444e+00,2.500000000000000888e+00,1.000000000000000222e+00,-2.000000000000000444e+00,1.000000000000000222e+00,-1.750000000000000444e+00,2.500000000000000000e-01,2.500000000000000888e+00,-2.250000000000000444e+00,7.500000000000002220e-01,5.000000000000002220e-01,-1.250000000000000444e+00,7.500000000000002220e-01,-7.500000000000002220e-01,-7.500000000000001110e-01,1.500000000000000222e+00,-2.500000000000000555e-01,7.500000000000002220e-01,-1.250000000000000444e+00,3.000000000000000444e+00,-5.000000000000000888e+00,2.250000000000000444e+00,0.000000000000000000e+00,-2.500000000000000555e-01,3.500000000000000888e+00,-1.750000000000000666e+00,-7.500000000000001110e-01,-3.000000000000000444e+00,3.750000000000000888e+00,-2.250000000000000444e+00,2.500000000000000000e-01,1.750000000000000444e+00,-7.500000000000002220e-01,-1.250000000000000222e+00,2.000000000000000444e+00,-7.500000000000002220e-01,-2.500000000000000555e-01,-5.000000000000001110e-01,-7.500000000000001110e-01,3.000000000000000888e+00,-1.750000000000000444e+00,-1.000000000000000222e+00,1.250000000000000222e+00,-7.500000000000002220e-01,2.500000000000000444e+00,-1.250000000000000222e+00,-1.750000000000000444e+00,1.250000000000000222e+00,-1.750000000000000444e+00,2.500000000000000888e+00,0.000000000000000000e+00,-1.500000000000000444e+00,-7.500000000000001110e-01,2.500000000000000444e+00,-1.500000000000000222e+00,1.250000000000000222e+00,-2.750000000000000888e+00,1.000000000000000222e+00,1.500000000000000444e+00,-2.000000000000000444e+00,4.250000000000000888e+00,-4.500000000000001776e+00,1.750000000000000444e+00,1.000000000000000222e+00,-2.250000000000000444e+00,1.000000000000000222e+00,-5.000000000000001110e-01,1.250000000000000444e+00,-1.750000000000000444e+00,1.250000000000000222e+00,-3.750000000000000888e+00,5.000000000000001776e+00,-2.500000000000000888e+00,5.000000000000000888e+00,-3.750000000000000888e+00,-5.000000000000001110e-01,-1.750000000000000444e+00,2.500000000000000444e+00,2.750000000000000888e+00,-2.500000000000000888e+00,-4.000000000000000888e+00,5.000000000000001776e+00,-2.250000000000000444e+00,-2.500000000000001110e-01,1.750000000000000444e+00,-1.750000000000000444e+00,2.500000000000001110e-01,2.500000000000000555e-01,1.250000000000000222e+00,-7.250000000000001776e+00
