7.099675000000006264e+01,6.215300000000006264e+01,5.323112500000006264e+01,4.377800000000004843e+01,3.338737500000004133e+01,2.282487500000003422e+01,1.227800000000002711e+01,1.699875000000020453e+00,-1.003449999999998710e+01,-2.178449999999999420e+01,-3.317512500000000131e+01,-4.390950000000000841e+01,-5.353450000000002262e+01,-6.298762500000002262e+01,-7.044075000000002262e+01,-7.609700000000002262e+01,-7.956575000000002262e+01,-8.065950000000002262e+01,-8.103450000000002262e+01,-8.039387500000002262e+01,-7.906575000000002262e+01,-7.645637500000002262e+01,-7.511262500000002262e+01,-7.548762500000002262e+01,-7.619075000000002262e+01,-7.901887500000002262e+01,-8.272200000000002262e+01,-8.719075000000003683e+01,-9.325325000000006526e+01,-9.944075000000006526e+01,-1.050501250000000653e+02,-1.083938750000000653e+02,-1.120657500000000653e+02,-1.137376250000000653e+02,-1.132845000000000653e+02,-1.117220000000000653e+02,-1.077532500000000653e+02,-1.030345000000000653e+02,-9.606575000000006526e+01,-8.940950000000003683e+01,-8.165950000000002262e+01,-7.395637500000002262e+01,-6.706575000000002262e+01,-6.140950000000002262e+01,-5.667512500000002262e+01,-5.242512500000002262e+01,-5.050325000000002262e+01,-4.965950000000002262e+01,-4.914387500000002262e+01,-4.994075000000002262e+01,-5.194075000000002262e+01,-5.308137500000002262e+01,-5.483137500000002262e+01,-5.720637500000002262e+01,-5.897200000000002262e+01,-6.005012500000002262e+01,-6.201887500000002262e+01,-6.294075000000002262e+01,-6.262825000000002262e+01,-6.205012500000002262e+01,-6.056575000000002262e+01,-5.840950000000002262e+01,-5.605012500000002262e+01,-5.248762500000002262e+01,-4.647200000000001552e+01,-3.961262500000000841e+01,-3.162825000000000131e+01,-2.356574999999999420e+01,-1.390949999999998710e+01,-2.581374999999980879e+00,9.465500000000025338e+00,2.113737500000003422e+01,3.185612500000004133e+01,4.137175000000004843e+01,4.966862500000005554e+01,5.746550000000006264e+01,6.337175000000006264e+01,6.698112500000006264e+01,6.919987500000006264e+01,6.969987500000006264e+01,6.754362500000006264e+01,6.434050000000006264e+01,5.976237500000006264e+01,5.401237500000006264e+01,4.702800000000005554e+01,3.901237500000004843e+01,3.012175000000004133e+01,2.121550000000003422e+01,1.413737500000002711e+01,7.387375000000024450e+00,7.623750000000211191e-01,-5.706374999999983544e+00,-1.181574999999998710e+01,-1.769074999999999065e+01,-2.255012499999999420e+01,-2.783137500000000131e+01,-3.526887500000000841e+01,-4.325325000000000841e+01,-5.106575000000002262e+01,-5.922200000000002262e+01,-6.798762500000002262e+01,-7.539387500000002262e+01,-8.175325000000002262e+01,-8.519075000000002262e+01,-8.350325000000002262e+01,-7.778450000000002262e+01,-6.908137500000002262e+01,-5.650325000000002262e+01,-4.144075000000000841e+01,-2.670637499999999420e+01,-1.450324999999998887e+01,-6.831374999999985320e+00,-5.487624999999983544e+00,-1.034699999999998710e+01,-2.044074999999999420e+01,-3.565950000000000131e+01,-5.350325000000000841e+01,-7.131575000000002262e+01,-8.692512500000003683e+01,-9.865950000000005105e+01,-1.056126250000000653e+02,-1.084720000000000653e+02,-1.081438750000000653e+02,-1.065813750000000653e+02,-1.046595000000000653e+02,-1.057532500000000653e+02,-1.125813750000000653e+02,-1.260657500000000653e+02,-1.475032500000000653e+02,-1.755032500000000937e+02,-2.082063750000001505e+02,-2.417688750000001505e+02,-2.742688750000001505e+02,-3.007220000000001505e+02,-3.128470000000001505e+02,-3.089876250000001505e+02,-2.870345000000001505e+02,-2.464407500000001505e+02,-1.885188750000000937e+02,-1.197376250000000368e+02,-4.489387500000000131e+01,3.044987500000004488e+01,9.521550000000007685e+01,1.466842500000001337e+02,1.826530000000001621e+02,2.000905000000001905e+02,1.992467500000001905e+02,1.866998750000001621e+02,1.662155000000001337e+02,1.405592500000001053e+02,1.148405000000001053e+02,9.159050000000007685e+01,7.151237500000007685e+01,5.615300000000006264e+01,4.543425000000005554e+01,3.596550000000004843e+01,2.694987500000003777e+01,1.868425000000003067e+01,1.185612500000002711e+01,4.356125000000022673e+00,-3.721999999999982656e+00,-1.036262499999998710e+01,-1.617512499999999065e+01,-1.911262499999999065e+01,-1.901887499999999065e+01,-1.640949999999999065e+01,-1.301887499999998887e+01,-6.878249999999984432e+00,2.465500000000020897e+00,1.218425000000002711e+01,2.263737500000003422e+01,3.188737500000004133e+01,3.959050000000004843e+01,4.574675000000005554e+01,5.079362500000006264e+01,5.388737500000006264e+01,5.373112500000006264e+01,5.171550000000006264e+01,4.905925000000006264e+01,4.613737500000004843e+01,4.205925000000004843e+01,3.755925000000004133e+01,3.371550000000004133e+01,2.916862500000004133e+01,2.627800000000004133e+01,2.444987500000003777e+01,2.243425000000003422e+01,2.065300000000003067e+01,2.029362500000003067e+01,1.998112500000003067e+01,1.866862500000003067e+01,1.830925000000003067e+01,1.743425000000003067e+01,1.619987500000003067e+01,1.479362500000003067e+01,1.296550000000002889e+01,1.040300000000002711e+01,8.043625000000025338e+00,6.871750000000025338e+00,6.371750000000025338e+00,5.231125000000023562e+00,4.309250000000023562e+00,3.309250000000021785e+00,2.246750000000021341e+00,2.418625000000021785e+00,2.543625000000021785e+00,2.121750000000021341e+00,1.043625000000020675e+00,7.467500000000204530e-01,1.043625000000020675e+00,1.153000000000020675e+00,2.309250000000021785e+00,2.028000000000021341e+00,2.262375000000021785e+00,2.684250000000021785e+00,2.293625000000021341e+00,1.668625000000020897e+00,3.248750000000202309e-01,5.925000000002007827e-02,-1.596999999999980879e+00,-2.737624999999981767e+00,-5.128249999999983544e+00,-8.128249999999985320e+00,-9.862624999999985320e+00,-1.170637499999998710e+01,-1.415949999999999065e+01,-1.720637499999999065e+01,-1.955012499999999420e+01,-2.142512499999999420e+01,-2.198762499999999420e+01,-2.164387499999999420e+01,-2.219074999999999420e+01,-2.189387499999999420e+01,-2.086262499999999065e+01,-2.023762499999999065e+01,-1.942512499999999065e+01,-1.950324999999999065e+01,-2.012824999999999065e+01,-2.183137499999999420e+01,-2.286262499999999775e+01,-2.420637500000000131e+01,-2.542512500000000131e+01,-2.581575000000000131e+01,-2.570637500000000131e+01,-2.508137500000000131e+01,-2.394074999999999775e+01,-2.208137499999999420e+01,-2.012824999999999065e+01,-1.836262499999999065e+01,-1.645637499999999065e+01,-1.506574999999999065e+01,-1.401887499999999065e+01,-1.233137499999998887e+01,-1.048762499999998710e+01,-7.768874999999985320e+00,-5.284499999999983544e+00,-2.987624999999982212e+00,-9.094999999999807683e-01,1.606125000000021341e+00,3.121750000000022229e+00,4.074875000000022673e+00,4.559250000000023562e+00,3.699875000000022673e+00,2.278000000000021785e+00,1.403000000000020897e+00,1.387375000000020897e+00,6.530000000000204530e-01,1.324875000000020897e+00,2.371750000000021785e+00,2.824875000000021785e+00,3.918625000000022673e+00,4.668625000000022673e+00,4.074875000000021785e+00,1.496750000000020675e+00,-1.362624999999980879e+00,-5.690749999999984432e+00,-1.089387499999998710e+01,-1.544074999999999065e+01,-1.944074999999999065e+01,-2.130012499999999420e+01,-2.131574999999999420e+01,-1.839387499999999065e+01,-1.295637499999998887e+01,-5.534499999999984432e+00,3.215500000000021785e+00,1.307487500000002711e+01,2.202800000000003422e+01,3.077800000000004133e+01,3.890300000000004843e+01,4.521550000000005554e+01,5.010612500000006264e+01,5.405925000000006264e+01,5.712175000000006264e+01,5.899675000000006264e+01,6.059050000000006264e+01,6.059050000000006264e+01,6.019987500000006264e+01,5.869987500000006264e+01,5.596550000000006264e+01,5.190300000000006264e+01,4.659050000000005554e+01,3.921550000000004843e+01,3.151237500000004133e+01,2.094987500000003422e+01,7.824875000000024450e+00,-6.550124999999985320e+00,-2.364387499999999775e+01,-4.258137500000000841e+01,-6.290950000000002262e+01,-8.400325000000003683e+01,-1.077376250000000510e+02,-1.299095000000000653e+02,-1.517688750000000653e+02,-1.739251250000000937e+02,-1.938938750000001505e+02,-2.127688750000001505e+02,-2.309407500000001505e+02,-2.471751250000001505e+02,-2.613313750000001505e+02,-2.751282500000001505e+02,-2.878782500000001505e+02,-2.978001250000001505e+02,-3.069563750000001505e+02,-3.143001250000001505e+02,-3.191438750000001505e+02,-3.235345000000001505e+02,-3.267376250000001505e+02,-3.276751250000001505e+02,-3.261595000000001505e+02,-3.244251250000001505e+02,-3.208470000000001505e+02,-3.164407500000001505e+02,-3.121751250000001505e+02,-3.059251250000001505e+02,-2.981126250000001505e+02,-2.902220000000001505e+02,-2.820970000000001505e+02,-2.739095000000001505e+02,-2.670345000000001505e+02,-2.606595000000001505e+02,-2.549095000000001505e+02,-2.510970000000001505e+02,-2.489720000000001505e+02,-2.476907500000001505e+02,-2.485345000000001505e+02,-2.491907500000001505e+02,-2.496438750000001505e+02,-2.489720000000001505e+02,-2.463001250000001505e+02,-2.418001250000001505e+02,-2.351751250000001505e+02,-2.280501250000001505e+02,-2.183001250000001505e+02,-2.086438750000001505e+02,-1.975345000000001505e+02,-1.881126250000001221e+02,-1.802220000000000937e+02,-1.740970000000000653e+02,-1.687063750000000653e+02,-1.625188750000000653e+02,-1.567063750000000653e+02,-1.495657500000000653e+02,-1.420813750000000653e+02,-1.318157500000000653e+02,-1.201126250000000653e+02,-1.052688750000000653e+02,-9.069075000000003683e+01,-7.603450000000003683e+01,-6.176887500000002262e+01,-4.870637500000000841e+01,-3.686262500000000841e+01,-2.703449999999999775e+01,-1.725324999999999065e+01,-9.659499999999987097e+00,-1.378249999999981323e+00,6.028000000000023562e+00,1.229362500000002711e+01,1.927800000000003422e+01,2.577800000000003422e+01,3.252800000000004133e+01,3.754362500000004133e+01,4.227800000000004843e+01,4.585612500000005554e+01,4.918425000000006264e+01,5.337175000000006264e+01,5.659050000000006264e+01,5.998112500000006264e+01,6.280925000000006264e+01,6.657487500000006264e+01,7.002800000000006264e+01,7.240300000000006264e+01,7.507487500000006264e+01,7.696550000000006264e+01,7.880925000000006264e+01,8.059050000000006264e+01,8.268425000000006264e+01,8.457487500000006264e+01,8.696550000000006264e+01,9.090300000000007685e+01,9.471550000000009106e+01,9.918425000000010527e+01,1.031998750000001053e+02,1.073561250000001053e+02,1.108092500000001053e+02,1.124811250000001053e+02,1.124030000000001053e+02,1.105748750000001053e+02,1.070592500000001053e+02,1.011217500000001053e+02,9.402800000000010527e+01,8.496550000000007685e+01,7.509050000000006264e+01,6.557487500000006264e+01,5.729362500000006264e+01,4.968425000000005554e+01,4.269987500000004843e+01,3.779362500000004133e+01,3.391862500000004133e+01,3.224675000000004133e+01,3.216862500000004133e+01,3.377800000000004133e+01,3.562175000000004133e+01,3.771550000000004133e+01,4.130925000000004843e+01,4.499675000000004843e+01,4.898112500000006264e+01,5.179362500000006264e+01,5.427800000000006264e+01,5.551237500000006264e+01,5.696550000000006264e+01,5.899675000000006264e+01,5.998112500000006264e+01,5.991862500000006264e+01,5.943425000000006264e+01,5.821550000000006264e+01,5.551237500000006264e+01,5.215300000000006264e+01,4.601237500000005554e+01,3.779362500000004843e+01,2.771550000000003422e+01,1.659050000000002711e+01,4.996750000000021785e+00,-6.753249999999985320e+00,-1.873762499999999420e+01,-3.158137500000000131e+01,-4.350325000000000841e+01,-5.648762500000002262e+01,-6.895637500000002262e+01,-8.125325000000003683e+01,-9.537825000000005105e+01,-1.093938750000000653e+02,-1.241751250000000653e+02,-1.389563750000000653e+02,-1.536126250000000653e+02,-1.676282500000000653e+02,-1.828470000000000937e+02,-1.985501250000001505e+02,-2.145345000000001505e+02,-2.330813750000001505e+02,-2.524876250000001505e+02,-2.727532500000001505e+02,-2.948938750000001505e+02,-3.172532500000001505e+02,-3.388001250000001505e+02,-3.605970000000002074e+02,-3.801282500000003211e+02,-3.958782500000003211e+02,-4.085188750000003211e+02,-4.184251250000003211e+02,-4.252220000000003211e+02,-4.298938750000003211e+02,-4.327376250000003211e+02,-4.333782500000003211e+02,-4.333938750000003211e+02,-4.333938750000003211e+02,-4.334095000000003211e+02,-4.334407500000003211e+02,-4.334720000000003211e+02,-4.335345000000003211e+02,-4.335970000000003211e+02,-4.336595000000003211e+02,-4.337063750000003211e+02,-4.337376250000003211e+02,-4.337845000000003211e+02,-4.338157500000003211e+02,-4.338313750000003211e+02,-4.338313750000003211e+02,-4.338313750000003211e+02,-4.338313750000003211e+02,-4.338313750000003211e+02,-4.338313750000003211e+02,-4.338157500000003211e+02,-4.338001250000003211e+02,-4.337532500000003211e+02,-4.320501250000003211e+02,-4.288313750000003211e+02,-4.228313750000003211e+02,-4.140970000000003211e+02,-4.019251250000003211e+02,-3.863626250000003211e+02,-3.660501250000002074e+02,-3.403470000000002074e+02,-3.127063750000001505e+02,-2.818157500000001505e+02,-2.503626250000001505e+02,-2.185032500000001505e+02,-1.867532500000001221e+02,-1.552063750000000937e+02,-1.259095000000000653e+02,-1.000813750000000368e+02,-7.475325000000002262e+01,-5.234700000000000841e+01,-3.062825000000000131e+01,-9.096999999999985320e+00,1.071550000000002534e+01,2.968425000000003422e+01,4.838737500000004843e+01,6.759050000000006264e+01,8.466862500000007685e+01,1.018092500000000911e+02,1.176686250000001053e+02,1.314655000000001053e+02,1.453405000000001053e+02,1.583405000000001053e+02,1.704967500000001053e+02,1.813561250000001337e+02,1.924811250000001905e+02,2.027311250000001905e+02,2.126530000000001905e+02,2.224811250000001905e+02,2.312155000000001905e+02,2.386842500000001905e+02,2.451998750000001905e+02,2.508873750000001905e+02,2.555280000000001905e+02,2.596061250000001905e+02,2.628405000000001905e+02,2.656061250000001905e+02,2.686373750000001905e+02,2.721061250000001905e+02,2.747936250000001905e+02,2.774498750000001905e+02,2.806217500000001905e+02,2.838248750000001905e+02,2.874811250000001905e+02,2.916061250000001905e+02,2.954498750000001905e+02,2.993717500000001905e+02,3.054342500000001905e+02,3.126217500000001905e+02,3.206061250000001905e+02,3.294967500000001905e+02,3.388873750000001905e+02,3.492155000000001905e+02,3.608248750000001905e+02,3.738248750000002474e+02,3.856842500000003611e+02,3.969186250000003611e+02,4.074498750000003611e+02,4.176217500000003611e+02,4.280123750000003611e+02,4.373405000000003611e+02,4.445123750000003611e+02,4.498873750000003611e+02,4.550748750000003611e+02,4.598092500000003611e+02,4.648717500000003611e+02,4.687623750000003611e+02,4.712936250000003611e+02,4.731061250000003611e+02,4.762623750000003611e+02,4.795123750000003611e+02,4.825436250000003611e+02,4.852623750000003611e+02,4.867936250000003611e+02,4.879498750000003611e+02,4.889811250000003611e+02,4.907623750000003611e+02,4.912780000000003611e+02,4.909030000000003611e+02,4.902936250000003611e+02,4.899342500000003611e+02,4.885280000000003611e+02,4.873248750000003611e+02,4.858405000000003611e+02,4.830280000000003611e+02,4.794811250000003611e+02,4.758561250000003611e+02,4.711998750000003611e+02,4.653092500000003611e+02,4.602936250000003611e+02,4.545748750000003611e+02,4.481842500000003611e+02,4.413561250000003611e+02,4.340748750000003611e+02,4.260905000000003611e+02,4.185280000000003611e+02,4.105592500000003611e+02,4.011217500000003611e+02,3.913561250000003611e+02,3.805123750000003611e+02,3.681998750000002474e+02,3.556686250000001905e+02,3.417936250000001905e+02,3.257311250000001905e+02,3.083405000000001905e+02,2.907936250000001905e+02,2.730123750000001905e+02,2.558717500000001905e+02,2.395748750000001905e+02,2.227155000000001905e+02,2.069342500000001905e+02,1.922467500000001905e+02,1.783092500000001337e+02,1.636998750000001053e+02,1.487311250000001053e+02,1.329186250000001053e+02,1.169967500000001053e+02,1.018873750000001053e+02,8.671550000000007685e+01,7.105925000000006264e+01,5.519987500000005554e+01,3.965300000000004843e+01,2.412175000000003422e+01,9.231125000000027114e+00,-6.112624999999983544e+00,-2.205012499999999420e+01,-3.853450000000000131e+01,-5.498762500000000841e+01,-7.086262500000002262e+01,-8.506575000000003683e+01,-9.953450000000005105e+01,-1.139720000000000653e+02,-1.269407500000000653e+02,-1.391438750000000653e+02,-1.494407500000000653e+02,-1.568470000000000653e+02,-1.625657500000000653e+02,-1.676907500000000653e+02,-1.696438750000000653e+02,-1.693313750000000653e+02,-1.679876250000000653e+02,-1.648157500000000653e+02,-1.611907500000000653e+02,-1.584251250000000653e+02,-1.548782500000000653e+02,-1.513313750000000653e+02,-1.491126250000000653e+02,-1.467376250000000653e+02,-1.444095000000000653e+02,-1.421438750000000653e+02,-1.399876250000000653e+02,-1.371595000000000653e+02,-1.350032500000000653e+02,-1.327220000000000653e+02,-1.288470000000000653e+02,-1.254407500000000653e+02,-1.207063750000000653e+02,-1.163782500000000653e+02,-1.112063750000000653e+02,-1.058626250000000653e+02,-1.001907500000000653e+02,-9.305012500000005105e+01,-8.644075000000003683e+01,-7.961262500000002262e+01,-7.353450000000002262e+01,-6.692512500000002262e+01,-6.089387500000002262e+01,-5.473762500000002262e+01,-4.795637500000002262e+01,-4.309700000000000841e+01,-3.850325000000000131e+01,-3.322200000000000131e+01,-2.898762500000000131e+01,-2.431574999999999775e+01,-1.942512499999999420e+01,-1.519074999999999065e+01,-1.173762499999998710e+01,-6.846999999999985320e+00,-2.300124999999981767e+00,1.746750000000020897e+00,7.324875000000025338e+00,1.162175000000002711e+01,1.599675000000003067e+01,2.073112500000003422e+01,2.537175000000003777e+01,2.896550000000004133e+01,3.384050000000004133e+01,3.860612500000004133e+01,4.235612500000004843e+01,4.752800000000006264e+01,5.266862500000006264e+01,5.768425000000006264e+01,6.302800000000006264e+01,6.940300000000006264e+01,7.396550000000006264e+01,7.824675000000006264e+01,8.215300000000006264e+01,8.416862500000006264e+01,8.624675000000006264e+01,8.848112500000006264e+01,8.960612500000006264e+01,8.968425000000006264e+01,9.060612500000006264e+01,9.052800000000006264e+01,9.135612500000006264e+01,9.302800000000006264e+01,9.335612500000006264e+01,9.357487500000007685e+01,9.487175000000007685e+01,9.535612500000009106e+01,9.569987500000010527e+01,9.694987500000010527e+01,9.729362500000010527e+01,9.821550000000010527e+01,1.001842500000001053e+02,1.017623750000001053e+02,1.028717500000001053e+02,1.057623750000001053e+02,1.086061250000001053e+02,1.118405000000001053e+02,1.149655000000001053e+02,1.171061250000001053e+02,1.195436250000001053e+02,1.221217500000001053e+02,1.243873750000001053e+02,1.254186250000001053e+02,1.256686250000001053e+02,1.252623750000001053e+02,1.250905000000001053e+02,1.250748750000001053e+02,1.242467500000001053e+02,1.224030000000001053e+02,1.213717500000001053e+02,1.203405000000001053e+02,1.203717500000001053e+02,1.207623750000001053e+02,1.214498750000001053e+02,1.214498750000001053e+02,1.211061250000001053e+02,1.219967500000001053e+02,1.216373750000001053e+02,1.206998750000001053e+02,1.182936250000001053e+02,1.146998750000001053e+02,1.105592500000001053e+02,1.078561250000001053e+02,1.050748750000001053e+02,1.007780000000001053e+02,9.691862500000009106e+01,9.357487500000007685e+01,9.124675000000007685e+01,8.963737500000006264e+01,8.840300000000006264e+01,8.559050000000006264e+01,8.380925000000006264e+01,8.384050000000006264e+01,8.407487500000006264e+01,8.540300000000006264e+01,8.666862500000006264e+01,8.787175000000006264e+01,8.874675000000006264e+01,9.046550000000006264e+01,9.065300000000006264e+01,8.973112500000006264e+01,8.796550000000006264e+01,8.499675000000006264e+01,8.123112500000006264e+01,7.824675000000006264e+01,7.490300000000006264e+01,7.169987500000006264e+01,6.991862500000006264e+01,6.780925000000006264e+01,6.707487500000006264e+01,6.559050000000006264e+01,6.509050000000006264e+01,6.282487500000006264e+01,6.080925000000006264e+01,5.813737500000006264e+01,5.407487500000006264e+01,5.065300000000006264e+01,4.519987500000005554e+01,4.057487500000004843e+01,3.563737500000004133e+01,3.210612500000004133e+01,2.802800000000004133e+01,2.390300000000003777e+01,2.134050000000003422e+01,1.844987500000003067e+01,1.701237500000003067e+01,1.630925000000003067e+01,1.468425000000003067e+01,1.240300000000002889e+01,1.168425000000002711e+01,1.132487500000002711e+01,1.027800000000002711e+01,9.199875000000025338e+00,8.762375000000025338e+00,6.981125000000023562e+00,6.137375000000023562e+00,6.184250000000023562e+00,5.199875000000022673e+00,3.762375000000021785e+00,1.231125000000020453e+00,-6.751249999999806573e-01,-3.846999999999983100e+00,-6.784499999999984432e+00,-1.001887499999998710e+01,-1.428449999999999065e+01,-1.931574999999999420e+01,-2.370637499999999775e+01,-2.719075000000000131e+01,-3.190950000000000131e+01,-3.583137500000000131e+01,-3.908137500000000131e+01,-4.169075000000000131e+01,-4.456575000000000841e+01,-4.601887500000000841e+01,-4.797200000000001552e+01,-4.933137500000002262e+01,-4.978450000000002262e+01,-5.200325000000002262e+01,-5.461262500000002262e+01,-5.776887500000002262e+01,-6.048762500000002262e+01,-6.506575000000002262e+01,-6.945637500000002262e+01,-7.569075000000002262e+01,-8.269075000000002262e+01,-8.773762500000003683e+01,-9.314387500000003683e+01,-9.948762500000006526e+01,-1.052688750000000653e+02,-1.088938750000000653e+02,-1.122688750000000653e+02,-1.142845000000000653e+02,-1.150970000000000653e+02,-1.169876250000000653e+02,-1.187845000000000653e+02,-1.190188750000000653e+02,-1.195657500000000653e+02,-1.218001250000000653e+02,-1.249095000000000653e+02,-1.272688750000000653e+02,-1.308313750000000653e+02,-1.342376250000000653e+02,-1.362220000000000653e+02,-1.391126250000000653e+02,-1.426126250000000653e+02,-1.442532500000000653e+02,-1.440032500000000653e+02,-1.435970000000000653e+02,-1.409876250000000653e+02,-1.368782500000000653e+02,-1.335188750000000653e+02,-1.282532500000000653e+02,-1.213313750000000653e+02,-1.143626250000000653e+02,-1.078626250000000653e+02,-1.018157500000000653e+02,-9.680012500000006526e+01,-9.164387500000003683e+01,-8.639387500000002262e+01,-8.201887500000002262e+01,-7.842512500000002262e+01,-7.512825000000002262e+01,-7.175325000000002262e+01,-6.890950000000002262e+01,-6.609700000000002262e+01,-6.398762500000002262e+01,-6.150325000000002262e+01,-5.914387500000002262e+01,-5.590950000000002262e+01,-5.395637500000002262e+01,-5.237825000000002262e+01,-5.034700000000002262e+01,-4.845637500000001552e+01,-4.675325000000000841e+01,-4.481575000000000841e+01,-4.315950000000000131e+01,-4.305012500000000131e+01,-4.122200000000000131e+01,-4.012825000000000131e+01,-3.872200000000000131e+01,-3.747200000000000131e+01,-3.550325000000000131e+01,-3.340950000000000131e+01,-3.062825000000000131e+01,-2.501887499999999775e+01,-2.017512499999999420e+01,-1.337824999999999065e+01,-5.237624999999983544e+00,4.324875000000021785e+00,1.352800000000002711e+01,2.204362500000003422e+01,2.937175000000004133e+01,3.419987500000004133e+01,3.854362500000004133e+01,4.144987500000004133e+01,4.073112500000004133e+01,3.776237500000004133e+01,3.191862500000004133e+01,2.473112500000003422e+01,1.741862500000003067e+01,8.590500000000025338e+00,-2.688749999999799911e-01,-1.130012499999998710e+01,-2.122199999999999420e+01,-3.140950000000000131e+01,-4.025325000000000841e+01,-4.940950000000001552e+01,-5.895637500000002262e+01,-6.720637500000002262e+01,-7.537825000000002262e+01,-8.119075000000002262e+01,-8.562825000000002262e+01,-8.842512500000002262e+01,-8.953450000000002262e+01,-8.751887500000002262e+01,-8.409700000000002262e+01,-7.926887500000002262e+01,-7.326887500000002262e+01,-6.606575000000002262e+01,-5.837825000000002262e+01,-5.042512500000001552e+01,-4.212825000000000841e+01,-3.433137500000000131e+01,-2.483137499999999420e+01,-1.475324999999998710e+01,-5.737624999999982656e+00,2.981125000000022229e+00,1.029362500000002711e+01,1.798112500000003067e+01,2.646550000000003777e+01,3.362175000000004133e+01,3.844987500000004133e+01,4.194987500000004843e+01,4.718425000000005554e+01,5.177800000000006264e+01,5.712175000000006264e+01,6.154362500000006264e+01,6.443425000000006264e+01,6.751237500000006264e+01,7.091862500000006264e+01,7.474675000000006264e+01,7.649675000000006264e+01,7.826237500000006264e+01,7.935612500000006264e+01,7.927800000000006264e+01,7.882487500000006264e+01,7.887175000000006264e+01,7.916862500000006264e+01,7.849675000000006264e+01,7.754362500000006264e+01,7.501237500000006264e+01,7.246550000000006264e+01,7.065300000000006264e+01,6.734050000000006264e+01,6.296550000000006264e+01,5.698112500000006264e+01,5.052800000000006264e+01,4.554362500000004843e+01,4.163737500000004133e+01,3.866862500000004133e+01,3.580925000000004133e+01,3.613737500000004133e+01,3.726237500000004133e+01,4.134050000000004843e+01,4.718425000000006264e+01,5.305925000000006264e+01,6.066862500000006264e+01,6.737175000000006264e+01,7.546550000000006264e+01,8.262175000000006264e+01,8.979362500000007685e+01,9.484050000000009106e+01,9.991862500000010527e+01,1.041686250000001053e+02,1.061530000000001053e+02,1.091842500000001053e+02,1.117467500000001053e+02,1.130748750000001053e+02,1.154498750000001053e+02,1.191998750000001053e+02,1.210123750000001053e+02,1.229030000000001053e+02,1.256998750000001053e+02,1.266061250000001053e+02,1.256998750000001053e+02,1.257780000000001053e+02,1.242155000000001053e+02,1.209498750000001053e+02,1.183092500000001053e+02,1.146686250000001053e+02,1.096998750000001053e+02,1.049811250000001053e+02,1.006530000000001053e+02,9.473112500000010527e+01,8.743425000000007685e+01,7.941862500000006264e+01
-6.843750000000003553e+00,-1.043750000000000711e+01,-7.515625000000005329e+00,1.562500000000000444e+00,9.015625000000005329e+00,1.076562500000000711e+01,8.437500000000005329e+00,1.203125000000001776e+00,-5.375000000000002665e+00,-5.812500000000003553e+00,-4.859375000000002665e+00,-4.375000000000000000e-01,1.812500000000001110e+00,-2.546875000000001776e+00,-6.906250000000003553e+00,-1.375000000000000711e+01,-1.571875000000001066e+01,-1.262500000000000888e+01,-8.000000000000005329e+00,4.687499999999977796e-02,3.093750000000001776e+00,5.921875000000003553e+00,6.390625000000003553e+00,4.453125000000002665e+00,7.156250000000004441e+00,7.546875000000005329e+00,8.750000000000005329e+00,7.656250000000003553e+00,2.531250000000001776e+00,-3.156250000000001776e+00,-9.171875000000005329e+00,-1.026562500000000711e+01,-1.046875000000000711e+01,-7.359375000000004441e+00,-4.500000000000002665e+00,-5.000000000000003553e+00,-4.718750000000002665e+00,-7.125000000000003553e+00,-7.281250000000003553e+00,-5.375000000000003553e+00,-1.875000000000001332e+00,3.234375000000002220e+00,7.281250000000004441e+00,1.006250000000000533e+01,9.578125000000005329e+00,8.203125000000005329e+00,5.156250000000002665e+00,1.500000000000000888e+00,1.718750000000000833e-01,-5.937500000000004441e-01,4.062500000000003331e-01,2.109375000000001332e+00,3.296875000000001776e+00,2.734375000000001776e+00,-3.750000000000003331e-01,-2.171875000000001332e+00,-5.265625000000003553e+00,-6.406250000000003553e+00,-3.031250000000001776e+00,-2.734375000000001776e+00,-1.406250000000000888e+00,-1.875000000000002220e-01,-3.796875000000002220e+00,-3.921875000000002665e+00,-4.562500000000002665e+00,-7.484375000000005329e+00,-7.218750000000005329e+00,-8.781250000000005329e+00,-7.937500000000005329e+00,-3.078125000000001776e+00,1.562500000000000888e+00,5.703125000000003553e+00,7.234375000000005329e+00,6.718750000000005329e+00,4.984375000000003553e+00,5.750000000000003553e+00,7.718750000000005329e+00,7.984375000000005329e+00,9.140625000000007105e+00,6.890625000000005329e+00,4.671875000000003553e+00,5.562500000000003553e+00,5.703125000000003553e+00,8.390625000000007105e+00,7.625000000000006217e+00,3.578125000000002665e+00,-3.437500000000006661e-01,-6.562500000000005329e+00,-7.546875000000005329e+00,-6.421875000000005329e+00,-5.296875000000003553e+00,-1.140625000000000444e+00,5.312500000000007772e-01,2.718750000000002220e+00,4.890625000000003553e+00,4.046875000000002665e+00,3.984375000000002665e+00,1.468750000000000888e+00,7.187500000000001110e-01,2.312500000000001332e+00,7.656250000000007772e-01,9.218750000000005551e-01,-4.156250000000001776e+00,-1.409375000000000711e+01,-2.271875000000001421e+01,-3.306250000000002132e+01,-3.576562500000002132e+01,-2.878125000000002132e+01,-1.290625000000000888e+01,1.173437500000000888e+01,3.378125000000002132e+01,5.067187500000003553e+01,5.464062500000004263e+01,4.431250000000002842e+01,2.871875000000001421e+01,5.937500000000000888e+00,-1.240625000000001066e+01,-2.303125000000001776e+01,-3.067187500000002132e+01,-2.837500000000002132e+01,-2.573437500000001776e+01,-2.206250000000001421e+01,-1.264062500000000711e+01,-4.265625000000002665e+00,1.081250000000000533e+01,2.728125000000001421e+01,3.917187500000002132e+01,4.846875000000002842e+01,4.790625000000003553e+01,3.996875000000002842e+01,2.548437500000002132e+01,3.546875000000003553e+00,-2.270312500000001421e+01,-5.175000000000004263e+01,-8.112500000000005684e+01,-1.040468750000000711e+02,-1.165000000000000853e+02,-1.159687500000000853e+02,-9.220312500000007105e+01,-5.192187500000003553e+01,7.968750000000017764e-01,6.107812500000004263e+01,1.061250000000000711e+02,1.307187500000000853e+02,1.295000000000000853e+02,1.010625000000000568e+02,5.965625000000003553e+01,1.689062500000001066e+01,-1.581250000000001243e+01,-3.403125000000002132e+01,-3.700000000000002132e+01,-2.937500000000001776e+01,-1.960937500000001421e+01,-8.125000000000005329e+00,-6.562500000000004441e-01,2.375000000000001332e+00,4.890625000000002665e+00,3.343750000000001776e+00,2.484375000000001776e+00,6.093750000000006661e-01,-4.062500000000002665e+00,-6.984375000000005329e+00,-9.859375000000007105e+00,-1.173437500000000711e+01,-1.214062500000000888e+01,-1.237500000000001066e+01,-1.395312500000001066e+01,-1.284375000000000888e+01,-8.437500000000005329e+00,-2.906250000000001776e+00,5.265625000000003553e+00,1.089062500000000711e+01,1.337500000000001066e+01,1.321875000000000888e+01,1.092187500000000711e+01,7.828125000000005329e+00,4.671875000000002665e+00,4.062500000000002665e+00,2.781250000000001776e+00,3.203125000000002665e+00,3.093750000000002665e+00,-1.218750000000000444e+00,-2.875000000000001332e+00,-5.015625000000003553e+00,-6.750000000000004441e+00,-2.671875000000001776e+00,-1.093750000000000888e+00,-1.625000000000001110e+00,6.093750000000004441e-01,-2.078125000000001776e+00,-2.453125000000002665e+00,2.093750000000001332e+00,2.406250000000001776e+00,6.140625000000003553e+00,6.109375000000003553e+00,4.375000000000001110e-01,-1.250000000000001332e+00,-5.828125000000003553e+00,-5.718750000000003553e+00,-1.718750000000001110e+00,-1.765625000000001110e+00,1.093750000000000666e+00,9.687500000000006661e-01,5.312500000000000000e-01,2.421875000000001332e+00,1.671875000000001110e+00,1.406250000000000888e+00,-2.265625000000001332e+00,-4.218750000000002665e+00,-4.703125000000003553e+00,-4.000000000000002665e+00,1.531250000000000888e+00,3.062500000000001776e+00,5.015625000000003553e+00,4.093750000000002665e+00,4.843750000000003331e-01,-2.656250000000000000e-01,-2.171875000000001332e+00,-3.125000000000000000e-02,1.375000000000000888e+00,1.515625000000001110e+00,2.843750000000002220e+00,1.531250000000000888e+00,1.140625000000000888e+00,1.796875000000001332e+00,6.250000000000000000e-02,-2.140625000000001332e+00,-2.234375000000001332e+00,-4.359375000000003553e+00,-4.171875000000003553e+00,-1.890625000000001332e+00,-3.718750000000002665e+00,-2.328125000000001776e+00,-6.718750000000004441e-01,7.812500000000000000e-02,4.265625000000002665e+00,6.156250000000003553e+00,5.906250000000003553e+00,4.734375000000003553e+00,1.390625000000001110e+00,-2.890625000000001332e+00,-5.109375000000003553e+00,-7.156250000000004441e+00,-7.640625000000005329e+00,-4.203125000000002665e+00,-2.468750000000001332e+00,1.859375000000001554e+00,5.468750000000003553e+00,3.703125000000001776e+00,4.046875000000001776e+00,1.562499999999995559e-01,-3.828125000000002665e+00,-2.515625000000001776e+00,-4.109375000000002665e+00,-2.453125000000001332e+00,-4.375000000000002220e-01,-1.984375000000001332e+00,5.625000000000002220e-01,2.671875000000001776e+00,5.031250000000003553e+00,8.765625000000005329e+00,7.093750000000004441e+00,4.390625000000003553e+00,-3.750000000000000000e-01,-5.812500000000003553e+00,-6.109375000000003553e+00,-6.312500000000003553e+00,-4.171875000000003553e+00,-7.812500000000006661e-01,5.156250000000002220e-01,1.921875000000001110e+00,4.421875000000003553e+00,6.640625000000004441e+00,7.843750000000004441e+00,1.101562500000000711e+01,9.031250000000005329e+00,4.171875000000002665e+00,-5.937500000000000000e-01,-1.115625000000000711e+01,-1.723437500000001066e+01,-1.953125000000001421e+01,-2.064062500000001421e+01,-1.326562500000000711e+01,-5.937500000000003553e+00,-6.249999999999955591e-02,7.453125000000005329e+00,9.187500000000007105e+00,8.562500000000005329e+00,8.500000000000005329e+00,5.062500000000003553e+00,1.796875000000001332e+00,1.843750000000001332e+00,5.312500000000005551e-01,7.812500000000009992e-01,4.812500000000003553e+00,4.500000000000003553e+00,5.578125000000003553e+00,7.453125000000005329e+00,3.687500000000002665e+00,4.375000000000002665e+00,5.000000000000003553e+00,3.500000000000002665e+00,7.640625000000005329e+00,9.015625000000007105e+00,9.578125000000005329e+00,1.182812500000000711e+01,1.173437500000000711e+01,1.017187500000000711e+01,7.812500000000006217e+00,4.531250000000003553e+00,-2.171875000000002220e+00,-5.562500000000005329e+00,-7.078125000000005329e+00,-8.421875000000005329e+00,-5.328125000000003553e+00,-3.515625000000001776e+00,-3.343750000000001332e+00,-4.359375000000001776e+00,-5.890625000000003553e+00,-7.906250000000004441e+00,-8.468750000000005329e+00,-5.484375000000003553e+00,-4.703125000000003553e+00,-3.859375000000002665e+00,-5.390625000000003553e+00,-9.562500000000007105e+00,-1.054687500000000711e+01,-1.017187500000000711e+01,-5.000000000000002665e+00,-2.343749999999998335e-01,1.250000000000004718e-01,-4.062499999999998335e-01,-5.609375000000003553e+00,-9.359375000000007105e+00,-6.546875000000005329e+00,-4.000000000000003553e+00,1.249999999999997780e-01,5.437500000000003553e+00,4.625000000000003553e+00,5.062500000000003553e+00,8.250000000000005329e+00,7.687500000000005329e+00,1.031250000000000711e+01,1.046875000000000711e+01,4.187500000000003553e+00,9.375000000000022204e-02,-6.515625000000003553e+00,-1.175000000000000711e+01,-1.248437500000000888e+01,-1.335937500000001066e+01,-1.242187500000000888e+01,-9.171875000000007105e+00,-4.984375000000003553e+00,8.593750000000006661e-01,8.187500000000005329e+00,1.107812500000000711e+01,1.237500000000000711e+01,1.025000000000000711e+01,4.859375000000003553e+00,1.359375000000000666e+00,-5.203125000000002665e+00,-1.134375000000000711e+01,-1.570312500000001066e+01,-1.890625000000001066e+01,-1.504687500000000711e+01,-7.328125000000005329e+00,1.781249999999999556e+00,1.137500000000000711e+01,1.354687500000000711e+01,1.373437500000000711e+01,9.703125000000007105e+00,2.937500000000002665e+00,1.781250000000001776e+00,-2.625000000000001332e+00,-2.843750000000001332e+00,-1.312500000000000444e+00,-2.140625000000001332e+00,1.625000000000000888e+00,4.312500000000002665e+00,6.250000000000003553e+00,6.796875000000003553e+00,5.312500000000002665e+00,1.296875000000000222e+00,-1.343750000000001332e+00,-2.031250000000001332e+00,-3.562500000000002665e+00,-9.531250000000004441e-01,-5.312500000000000000e-01,-1.093750000000000000e-01,2.687500000000001776e+00,2.312500000000001776e+00,3.765625000000002220e+00,5.062500000000003553e+00,2.843750000000001776e+00,5.625000000000003331e-01,-2.343750000000001332e+00,-7.234375000000005329e+00,-7.750000000000005329e+00,-5.562500000000003553e+00,-3.500000000000002665e+00,2.406250000000001776e+00,4.578125000000003553e+00,4.421875000000002665e+00,5.281250000000002665e+00,3.734375000000002220e+00,5.625000000000003553e+00,9.953125000000005329e+00,1.278125000000000711e+01,1.478125000000001066e+01,1.175000000000000711e+01,4.500000000000003553e+00,-2.625000000000001776e+00,-9.109375000000007105e+00,-1.076562500000000711e+01,-9.281250000000007105e+00,-7.109375000000005329e+00,-4.328125000000002665e+00,-3.578125000000002665e+00,-3.781250000000002665e+00,-5.015625000000003553e+00,-6.000000000000004441e+00,-7.156250000000005329e+00,-6.062500000000003553e+00,-2.531250000000001776e+00,1.093750000000000888e+00,6.234375000000005329e+00,7.296875000000005329e+00,6.250000000000004441e+00,4.515625000000003553e+00,6.250000000000000000e-02,-1.656250000000001110e+00,-2.703125000000001776e+00,-4.015625000000002665e+00,-8.437500000000004441e-01,4.000000000000002665e+00,9.328125000000007105e+00,1.568750000000001066e+01,1.751562500000001066e+01,1.329687500000000711e+01,7.375000000000003553e+00,4.374999999999995559e-01,-6.593750000000005329e+00,-6.468750000000005329e+00,-5.421875000000003553e+00,-3.953125000000002665e+00,3.156250000000002665e+00,4.828125000000003553e+00,7.234375000000004441e+00,8.968750000000007105e+00,3.656250000000003109e+00,-1.562499999999955591e-02,-4.046875000000002665e+00,-5.953125000000003553e+00,-4.109375000000002665e+00,5.312500000000000000e-01,4.312500000000002665e+00,4.828125000000002665e+00,7.250000000000003553e+00,6.171875000000004441e+00,6.390625000000005329e+00,1.090625000000000711e+01,9.046875000000007105e+00,5.843750000000003553e+00,-4.218750000000026645e-01,-1.300000000000001066e+01,-2.046875000000001421e+01,-2.340625000000001776e+01,-2.214062500000001421e+01,-1.492187500000000711e+01,-8.250000000000003553e+00,-3.640625000000001776e+00,-7.968750000000004441e-01,-3.125000000000004163e-02,4.687500000000002776e-02,1.718750000000001110e-01,1.875000000000001110e-01,9.375000000000008327e-02,6.250000000000005551e-02,-6.250000000000004163e-02,-6.250000000000004163e-02,-6.938893903907228378e-18,-1.562500000000001735e-02,1.562500000000001041e-02,-6.250000000000002776e-02,-1.562500000000000833e-01,-1.406250000000000833e-01,-7.812500000000004163e-02,4.687500000000004163e-02,1.718750000000001110e-01,1.718750000000001110e-01,4.687500000000002776e-02,-9.375000000000006939e-02,-2.343750000000001665e-01,-2.812500000000002220e-01,-1.796875000000001332e+00,-4.828125000000003553e+00,-1.064062500000000711e+01,-1.918750000000001066e+01,-2.479687500000001421e+01,-2.773437500000002132e+01,-2.429687500000001776e+01,-1.543750000000001066e+01,-7.703125000000005329e+00,-1.781250000000001776e+00,3.281250000000001665e-01,1.968750000000000888e+00,3.468750000000001776e+00,9.234375000000003553e+00,1.487500000000000711e+01,1.492187500000000888e+01,1.471875000000001066e+01,7.062500000000006217e+00,-9.062499999999993339e-01,-4.375000000000002665e+00,-6.375000000000004441e+00,-2.531250000000002665e+00,3.203125000000001332e+00,8.125000000000005329e+00,9.546875000000007105e+00,7.906250000000005329e+00,4.234375000000003553e+00,9.375000000000004441e-01,5.625000000000007772e-01,2.312500000000001776e+00,4.781250000000003553e+00,3.984375000000002665e+00,2.859375000000001776e+00,-3.906250000000004441e-01,-3.125000000000002220e+00,-1.406249999999995559e-01,2.125000000000001776e+00,6.906250000000005329e+00,1.107812500000000711e+01,9.015625000000005329e+00,7.312500000000005329e+00,1.609375000000000888e+00,-4.125000000000002665e+00,-4.203125000000002665e+00,-5.546875000000003553e+00,-1.703125000000000444e+00,2.859375000000002220e+00,2.265625000000001776e+00,4.906250000000003553e+00,2.578125000000001776e+00,-2.328125000000000888e+00,-2.640625000000001776e+00,-7.109375000000003553e+00,-7.281250000000003553e+00,-3.468750000000002220e+00,-3.843750000000002220e+00,-1.015625000000000666e+00,-2.593750000000000888e+00,-6.234375000000003553e+00,-5.250000000000003553e+00,-5.921875000000003553e+00,-1.734375000000001332e+00,2.593750000000001776e+00,3.234375000000001776e+00,6.453125000000003553e+00,6.593750000000003553e+00,5.515625000000003553e+00,6.062500000000003553e+00,2.578125000000001332e+00,7.812499999999994449e-02,1.640625000000000888e+00,2.593750000000001776e+00,5.093750000000003553e+00,6.640625000000004441e+00,2.046875000000001776e+00,-2.078125000000000888e+00,-3.796875000000001776e+00,-5.234375000000002665e+00,-7.656250000000000000e-01,2.703125000000001776e+00,3.359375000000001776e+00,6.140625000000003553e+00,4.296875000000003553e+00,3.328125000000001776e+00,3.125000000000001776e+00,-1.562500000000000888e+00,-2.703125000000001776e+00,-3.031250000000001776e+00,-2.375000000000001332e+00,3.515625000000002665e+00,6.875000000000005329e+00,8.812500000000005329e+00,7.921875000000005329e+00,2.421875000000001332e+00,-8.593750000000006661e-01,-3.781250000000002665e+00,-3.328125000000001776e+00,1.453125000000000666e+00,3.218750000000001776e+00,4.984375000000003553e+00,5.765625000000003553e+00,1.875000000000001554e+00,1.062500000000000666e+00,6.562500000000002220e-01,-1.468750000000000444e+00,1.046875000000000888e+00,3.015625000000002220e+00,5.265625000000003553e+00,9.671875000000005329e+00,1.085937500000000533e+01,9.671875000000005329e+00,6.312500000000003553e+00,1.546875000000000888e+00,-3.546875000000001332e+00,-7.281250000000003553e+00,-8.984375000000003553e+00,-9.562500000000005329e+00,-6.468750000000003553e+00,-1.343750000000001332e+00,4.156250000000002665e+00,8.515625000000005329e+00,8.609375000000005329e+00,5.671875000000003553e+00,7.187500000000006661e-01,-4.671875000000002665e+00,-6.937500000000003553e+00,-7.468750000000005329e+00,-5.109375000000003553e+00,1.250000000000000222e+00,5.843750000000003553e+00,9.234375000000003553e+00,9.015625000000003553e+00,1.640625000000000888e+00,-4.687500000000003553e+00,-8.609375000000005329e+00,-9.484375000000005329e+00,-3.218750000000001776e+00,1.875000000000001776e+00,2.750000000000001776e+00,1.281250000000000666e+00,-4.140625000000003553e+00,-1.015625000000000711e+01,-1.300000000000001066e+01,-1.353125000000001066e+01,-1.403125000000001066e+01,-1.126562500000000711e+01,-7.140625000000005329e+00,-4.421875000000003553e+00,7.812500000000002220e-01,4.031250000000002665e+00,3.890625000000002665e+00,3.843750000000002665e+00,1.859375000000001332e+00,-4.218750000000002776e-01,-1.421875000000000888e+00,-6.250000000000004441e-01,-2.031250000000001665e-01,-2.343750000000001665e-01,1.062500000000000666e+00,-1.531250000000000888e+00,-1.687500000000000888e+00,-1.125000000000000888e+00,-2.843750000000002220e+00,-1.203125000000000888e+00,-3.343750000000002665e+00,-4.015625000000003553e+00,-3.234375000000001776e+00,-2.281250000000001332e+00,1.390625000000001110e+00,2.031250000000001776e+00,2.640625000000001776e+00,-3.749999999999997780e-01,-2.234375000000001332e+00,-8.281250000000002220e-01,-6.718749999999998890e-01,4.109375000000002665e+00,5.375000000000003553e+00,2.781250000000001776e+00,2.062500000000000888e+00,-1.234375000000000888e+00,-3.468750000000002665e+00,-1.421875000000000888e+00,3.124999999999988898e-02,7.812500000000013878e-02,2.875000000000001776e+00,2.015625000000000888e+00,-1.031250000000000444e+00,-7.343750000000006661e-01,-3.281250000000002665e+00,-3.781250000000003109e+00,-1.562500000000044409e-02,2.406250000000001332e+00,4.812500000000003553e+00,6.000000000000004441e+00,2.171875000000001332e+00,-3.015625000000001776e+00,-7.562500000000005329e+00,-9.203125000000007105e+00,-5.531250000000003553e+00,-6.250000000000044409e-02,7.000000000000004441e+00,9.937500000000007105e+00,7.406250000000005329e+00,4.687500000000003553e+00,6.718750000000006661e-01,-1.656250000000000888e+00,1.046875000000000888e+00,2.359375000000001776e+00,9.062500000000006661e-01,1.296875000000000888e+00,-1.312500000000000666e+00,-3.703125000000002220e+00,-3.125000000000000000e-01,6.718750000000005551e-01,5.781250000000003331e-01,3.281250000000001776e+00,7.343750000000000000e-01,-2.234375000000001776e+00,-1.718750000000002220e-01,-1.765625000000000888e+00,-1.687500000000000888e+00,1.656250000000001110e+00,-1.671875000000001110e+00,-2.906250000000002220e+00,-2.046875000000001776e+00,-5.015625000000003553e+00,-1.750000000000001776e+00,1.062500000000000444e+00,1.984375000000000888e+00,5.859375000000003553e+00,4.968750000000003553e+00,3.453125000000002220e+00,1.109375000000000888e+00,-1.890625000000000888e+00,-1.046875000000000666e+00,7.500000000000008882e-01,4.453125000000003553e+00,5.468750000000003553e+00,3.125000000000002665e+00,-5.312500000000002220e-01,-5.625000000000003553e+00,-6.593750000000004441e+00,-6.421875000000004441e+00,-3.484375000000002665e+00,9.531250000000007772e-01,3.109375000000001776e+00,6.843750000000003553e+00,7.390625000000003553e+00,5.578125000000003553e+00,3.921875000000002665e+00,1.265625000000000666e+00,-3.125000000000001388e-02,-1.562500000000001388e-02,-5.468750000000004441e-01,-2.750000000000001776e+00,-4.765625000000003553e+00,-4.109375000000002665e+00,-2.218750000000001332e+00,1.453125000000000888e+00,4.437500000000002665e+00,1.937500000000001332e+00,-1.406250000000000666e+00,-5.500000000000003553e+00,-8.296875000000005329e+00,-7.562500000000005329e+00,-5.265625000000003553e+00,-2.812500000000004441e-01,3.156250000000002220e+00,7.937500000000007105e+00,1.081250000000000888e+01,8.234375000000007105e+00,7.437500000000005329e+00,2.218750000000001776e+00,-2.953125000000002220e+00,-2.843750000000001776e+00,-5.750000000000003553e+00,-4.546875000000002665e+00,-3.015625000000001776e+00,-3.593750000000001776e+00,-1.171875000000000666e+00,-3.125000000000001110e-01,2.500000000000001332e+00,4.578125000000002665e+00,6.531250000000003553e+00,6.515625000000003553e+00,4.203125000000001776e+00,1.625000000000000444e+00,-2.546875000000002220e+00,-2.609375000000001776e+00,-3.484375000000001776e+00,-1.453125000000000444e+00,1.250000000000004441e-01,-2.187500000000001332e+00,-1.375000000000001110e+00,-3.609375000000002665e+00,-3.859375000000002665e+00,-2.093750000000000888e+00,-1.406250000000000666e+00,1.062500000000000666e+00,1.906250000000001332e+00,3.765625000000002220e+00,1.937500000000001332e+00,-1.359375000000000444e+00,-2.359375000000001332e+00,-6.078125000000003553e+00,-2.734375000000001776e+00,1.468750000000000888e+00,3.453125000000002220e+00,7.265625000000005329e+00,4.296875000000002665e+00,2.265625000000001776e+00,9.375000000000007772e-01,-1.125000000000000666e+00,4.843750000000002220e-01,7.500000000000003331e-01,1.093750000000000666e+00,1.359375000000000888e+00,6.562500000000004441e-01,2.500000000000003331e-01,-2.078125000000001332e+00,-3.140625000000001776e+00,-4.468750000000003553e+00,-6.218750000000004441e+00,-3.265625000000002220e+00,-1.562500000000000888e+00,1.421875000000001110e+00,4.750000000000003553e+00,4.406250000000002665e+00,4.015625000000001776e+00,2.421875000000001332e+00,2.203125000000001332e+00,1.531250000000001110e+00,1.734375000000001332e+00,3.218750000000001776e+00,2.343750000000001332e+00,2.140625000000001332e+00,1.359375000000000444e+00,-2.984375000000001776e+00,-6.515625000000005329e+00,-7.328125000000005329e+00,-9.015625000000005329e+00,-6.250000000000004441e+00,-2.062500000000001332e+00,-5.468750000000003331e-01,4.062500000000002665e+00,5.421875000000003553e+00,5.281250000000003553e+00,5.140625000000003553e+00,5.000000000000004441e-01,-1.078125000000000666e+00,-1.703125000000001332e+00,-2.109375000000001776e+00,1.250000000000000555e-01,3.281250000000002220e-01,-1.359375000000000666e+00,-3.343750000000001776e+00,-4.281250000000002665e+00,-6.937500000000003553e+00,-8.984375000000005329e+00,-8.593750000000005329e+00,-9.828125000000007105e+00,-6.281250000000003553e+00,1.296875000000000888e+00,5.390625000000003553e+00,8.765625000000005329e+00,8.406250000000003553e+00,1.515625000000000666e+00,-2.390625000000001332e+00,-3.515625000000001776e+00,-3.890625000000002220e+00,1.828125000000000888e+00,5.593750000000003553e+00,5.093750000000002665e+00,6.062500000000003553e+00,8.750000000000008882e-01,-3.421875000000001776e+00,-2.281250000000001332e+00,-4.890625000000003553e+00,-1.437500000000001332e+00,2.359375000000001332e+00,5.937500000000004441e-01,4.687500000000002665e+00,4.734375000000002665e+00,1.531250000000001332e+00,2.656250000000002220e+00,-2.875000000000002220e+00,-5.984375000000004441e+00,-3.750000000000002665e+00,-3.031250000000002665e+00,3.812500000000001776e+00,7.062500000000003553e+00,5.781250000000003553e+00,1.375000000000001332e+00,-8.406250000000005329e+00,-1.501562500000001066e+01,-1.742187500000001066e+01,-1.303125000000000711e+01,-4.296875000000002665e+00,6.078125000000003553e+00,1.068750000000000711e+01,9.296875000000005329e+00,7.781250000000005329e+00,2.328125000000001776e+00,4.734375000000002665e+00,1.045312500000000711e+01,1.198437500000000711e+01,1.557812500000001066e+01,1.148437500000000711e+01,5.921875000000003553e+00,2.921875000000002220e+00,-7.500000000000013323e-01,-2.140625000000002220e+00,-2.984375000000001776e+00,-2.500000000000001776e+00,-3.250000000000001776e+00,5.937500000000008882e-01,2.125000000000001776e+00,1.171875000000001554e+00,3.046875000000002220e+00,-3.906250000000002220e+00,-7.593750000000005329e+00,-1.090625000000000711e+01,-1.742187500000001066e+01,-1.375000000000000711e+01,-1.239062500000000711e+01,-7.562500000000005329e+00,1.421875000000001554e+00,9.843750000000013323e-01,4.593750000000003553e+00,1.843750000000000888e+00,-5.109375000000003553e+00,-3.093750000000002665e+00,-7.078125000000005329e+00,-3.953125000000003109e+00,1.968750000000000888e+00,-4.687500000000001388e-02,3.984375000000003109e+00,4.484375000000003553e+00,4.109375000000003553e+00,7.375000000000005329e+00,5.781250000000003553e+00,1.953125000000000888e+00,-1.421875000000001554e+00,-3.218750000000002220e+00,-3.062500000000002220e+00,1.093750000000000222e+00,3.109375000000001776e+00,2.531250000000001776e+00,2.765625000000001776e+00,7.343750000000006661e-01,1.593750000000001110e+00,3.343750000000002220e+00,2.515625000000001776e+00,2.796875000000001776e+00,2.375000000000001776e+00,5.156250000000003331e-01,2.343750000000001776e+00,2.296875000000001776e+00,-1.031250000000000444e+00,-7.656250000000001110e-01,-2.734375000000001332e+00,-8.750000000000000000e-01,6.750000000000003553e+00,9.937500000000007105e+00,1.131250000000000711e+01,8.234375000000005329e+00,-1.875000000000000000e-01,-7.515625000000004441e+00,-1.060937500000000711e+01,-1.276562500000000888e+01,-1.178125000000000711e+01,-7.296875000000005329e+00,-7.046875000000005329e+00,-3.687500000000002665e+00,-2.343750000000000888e+00,-4.218750000000001776e+00,-3.078125000000001776e+00,-3.218750000000001776e+00,-4.375000000000004441e-01,3.093750000000001776e+00,7.484375000000004441e+00,8.687500000000005329e+00,7.046875000000005329e+00,6.046875000000003553e+00,8.750000000000006661e-01,-1.031250000000000444e+00,-1.031250000000000666e+00,-2.546875000000001776e+00,-2.171875000000001776e+00,-2.296875000000001776e+00,-2.421875000000001776e+00,-1.875000000000001554e+00,2.515625000000001776e+00,8.234375000000007105e+00,1.045312500000000711e+01,1.325000000000000888e+01,8.875000000000007105e+00,-1.109375000000001332e+00,-6.406250000000005329e+00,-1.064062500000000711e+01,-7.234375000000006217e+00,4.296875000000002665e+00,1.262500000000000711e+01,1.685937500000001066e+01,1.334375000000001066e+01,2.109375000000001776e+00
-7.250000000000003553e+00,-1.256250000000000533e+01,-1.081250000000000355e+01,6.812500000000002665e+00,1.375000000000000533e+01,4.312500000000001776e+00,1.687500000000001332e+00,3.500000000000001776e+00,-2.687500000000001776e+00,-1.150000000000000533e+01,-9.812500000000003553e+00,5.750000000000002665e+00,1.337500000000000533e+01,4.437500000000001776e+00,-5.000000000000001776e+00,-1.150000000000000533e+01,-1.106250000000000533e+01,-2.312500000000001332e+00,2.937500000000000888e+00,-2.500000000000004441e-01,-1.625000000000000888e+00,5.937500000000002665e+00,6.125000000000002665e+00,-1.312500000000000666e+00,-3.062500000000001332e+00,-3.375000000000001332e+00,4.625000000000001776e+00,1.568750000000000711e+01,5.625000000000001776e+00,-1.300000000000000533e+01,-9.125000000000003553e+00,3.312500000000001332e+00,-2.562500000000000444e+00,-7.250000000000002665e+00,1.187500000000000444e+00,4.375000000000001776e+00,-3.750000000000004441e-01,-3.687500000000001776e+00,-4.250000000000001776e+00,-5.812500000000001776e+00,-1.812500000000000444e+00,6.625000000000002665e+00,3.937500000000000888e+00,-2.750000000000001776e+00,5.000000000000002665e+00,1.112500000000000533e+01,-3.000000000000001776e+00,-8.437500000000003553e+00,6.375000000000003553e+00,4.187500000000001776e+00,-1.081250000000000533e+01,-1.875000000000000888e+00,1.268750000000000711e+01,2.625000000000001776e+00,-6.750000000000003553e+00,8.750000000000004441e-01,9.375000000000008882e-01,-5.000000000000001776e+00,-4.687500000000001776e+00,-2.562500000000000888e+00,6.375000000000003553e+00,8.500000000000003553e+00,-6.500000000000002665e+00,-1.043750000000000355e+01,-6.250000000000000000e-02,5.250000000000001776e+00,3.250000000000001332e+00,-5.500000000000001776e+00,-1.125000000000000355e+01,-6.187500000000003553e+00,3.375000000000001776e+00,1.206250000000000711e+01,9.312500000000003553e+00,-6.687500000000003553e+00,-9.500000000000003553e+00,7.437500000000003553e+00,8.812500000000003553e+00,-4.812500000000001776e+00,1.062500000000000888e+00,1.231250000000000711e+01,2.437500000000001776e+00,-1.150000000000000533e+01,-5.312500000000002665e+00,1.150000000000000355e+01,1.225000000000000355e+01,8.125000000000004441e-01,-5.125000000000001776e+00,-5.000000000000001776e+00,-3.687500000000001776e+00,-5.062500000000002665e+00,4.375000000000000000e-01,9.250000000000003553e+00,-1.562500000000000888e+00,-1.312500000000000711e+01,2.312500000000000000e+00,1.768750000000000711e+01,4.187500000000001776e+00,-1.306250000000000533e+01,-5.250000000000002665e+00,5.562500000000001776e+00,4.125000000000001776e+00,4.375000000000001776e+00,-1.187500000000000444e+00,-7.062500000000002665e+00,-1.250000000000000000e-01,-3.500000000000002665e+00,-2.025000000000000711e+01,-2.306250000000001066e+01,-8.500000000000005329e+00,4.875000000000002665e+00,1.412500000000000711e+01,2.481250000000001066e+01,2.400000000000001066e+01,1.418750000000000355e+01,8.625000000000001776e+00,6.250000000000004441e-01,-7.937500000000001776e+00,-1.450000000000000355e+01,-1.525000000000000711e+01,-3.562500000000001776e+00,5.000000000000000000e-01,-7.562500000000003553e+00,-1.006250000000000533e+01,-4.500000000000002665e+00,3.250000000000002220e+00,3.875000000000002220e+00,1.006250000000000355e+01,2.825000000000001066e+01,2.325000000000000711e+01,-1.562500000000002665e+00,3.750000000000000000e-01,1.962500000000000711e+01,7.125000000000001776e+00,-2.612500000000001066e+01,-3.187500000000001066e+01,-2.106250000000000711e+01,-3.081250000000001066e+01,-4.293750000000001421e+01,-3.887500000000001421e+01,-3.318750000000001421e+01,-5.250000000000001776e+00,3.687500000000001421e+01,4.056250000000001421e+01,3.675000000000001421e+01,5.875000000000002132e+01,5.175000000000002132e+01,6.000000000000005329e+00,-1.893750000000000711e+01,-1.550000000000000711e+01,-1.437500000000000711e+01,-1.093750000000000533e+01,-5.062500000000001776e+00,-9.250000000000003553e+00,-5.625000000000003553e+00,1.062500000000000533e+01,1.181250000000000711e+01,-6.187500000000001776e+00,-1.137500000000000533e+01,6.312500000000001776e+00,1.168750000000000533e+01,-1.812500000000001332e+00,-6.750000000000003553e+00,-6.562500000000003553e+00,-7.000000000000002665e+00,1.812500000000000888e+00,5.187500000000001776e+00,-6.375000000000003553e+00,-1.037500000000000533e+01,-5.875000000000003553e+00,-4.375000000000002665e+00,5.250000000000001776e+00,1.462500000000000711e+01,4.187500000000001776e+00,-7.562500000000003553e+00,2.687500000000001776e+00,1.393750000000000711e+01,2.500000000000001776e+00,-1.162500000000000533e+01,-4.437500000000001776e+00,9.812500000000005329e+00,6.500000000000003553e+00,-1.437500000000000444e+00,-9.375000000000002220e-01,-7.750000000000003553e+00,-7.625000000000003553e+00,7.125000000000003553e+00,3.062500000000001776e+00,-6.125000000000001776e+00,3.750000000000001332e+00,3.500000000000000444e+00,-6.312500000000003553e+00,-4.500000000000001776e+00,5.625000000000003331e-01,6.062500000000003553e+00,7.750000000000003553e+00,3.250000000000000888e+00,-3.250000000000001776e+00,-1.031250000000000533e+01,-5.000000000000002665e+00,3.750000000000002220e+00,2.937500000000001776e+00,4.500000000000001776e+00,6.250000000000000000e-01,-9.375000000000005329e+00,-3.937500000000002665e+00,1.018750000000000355e+01,9.125000000000003553e+00,-4.125000000000000888e+00,-8.625000000000003553e+00,-4.937500000000002665e+00,5.000000000000002220e-01,4.062500000000001776e+00,3.125000000000000000e-01,8.750000000000000000e-01,5.125000000000001776e+00,2.125000000000000888e+00,-3.500000000000001776e+00,-5.000000000000001776e+00,-2.125000000000000888e+00,1.625000000000000888e+00,7.625000000000002665e+00,5.437500000000001776e+00,-9.000000000000003553e+00,-8.125000000000003553e+00,8.312500000000003553e+00,9.750000000000003553e+00,-1.500000000000000888e+00,-9.062500000000003553e+00,-8.312500000000003553e+00,5.062500000000001776e+00,9.437500000000003553e+00,-5.687500000000002665e+00,-7.625000000000003553e+00,2.187500000000001332e+00,1.062500000000000888e+00,-6.875000000000001110e-01,2.750000000000001332e+00,4.625000000000001776e+00,4.000000000000001776e+00,-3.750000000000002220e-01,-4.500000000000001776e+00,-2.062500000000000444e+00,8.750000000000005551e-01,-1.750000000000000666e+00,-6.812500000000002665e+00,-4.187500000000001776e+00,7.375000000000003553e+00,5.312500000000002665e+00,-4.437500000000001776e+00,3.062500000000001776e+00,7.312500000000003553e+00,-3.750000000000001776e+00,-1.050000000000000355e+01,-4.250000000000000888e+00,9.125000000000003553e+00,6.625000000000002665e+00,-8.375000000000003553e+00,-5.500000000000002665e+00,3.625000000000002220e+00,1.250000000000000888e+00,1.812500000000000444e+00,8.000000000000003553e+00,6.062500000000001776e+00,-4.000000000000001776e+00,-6.187500000000002665e+00,-3.125000000000001776e+00,-4.937500000000001776e+00,1.750000000000000444e+00,7.562500000000002665e+00,-4.687500000000002665e+00,-7.187500000000003553e+00,8.062500000000003553e+00,6.187500000000002665e+00,-5.937500000000002665e+00,7.500000000000008882e-01,1.006250000000000355e+01,7.625000000000001776e+00,-8.125000000000013323e-01,-8.500000000000003553e+00,-5.312500000000001776e+00,-4.250000000000001776e+00,-1.056250000000000355e+01,-7.875000000000003553e+00,-1.625000000000000444e+00,5.250000000000001776e+00,9.375000000000003553e+00,-1.312500000000000000e+00,-3.937500000000001332e+00,9.250000000000003553e+00,6.375000000000002665e+00,-5.500000000000002665e+00,-3.500000000000001332e+00,5.000000000000003331e-01,2.375000000000000888e+00,2.500000000000000888e+00,-2.687500000000000888e+00,1.875000000000000888e+00,7.250000000000002665e+00,2.499999999999995559e-01,-8.750000000000008882e-01,-4.375000000000004441e-01,-1.812500000000000888e+00,5.000000000000001776e+00,3.687500000000001332e+00,-2.500000000000002220e-01,6.375000000000002665e+00,3.062500000000001776e+00,-3.437500000000001776e+00,8.000000000000001776e+00,9.875000000000005329e+00,-7.437500000000000888e+00,-7.375000000000001776e+00,1.000000000000000222e+00,-4.250000000000002665e+00,-3.125000000000002665e+00,2.937500000000000888e+00,-6.249999999999955591e-02,-3.125000000000002220e-01,1.125000000000000222e+00,-6.062500000000001776e+00,-6.000000000000001776e+00,1.187500000000000444e+00,-2.937500000000001332e+00,-1.687500000000000444e+00,9.437500000000003553e+00,2.250000000000000888e+00,-1.606250000000000711e+01,-1.300000000000000355e+01,3.812500000000000888e+00,5.812500000000001776e+00,4.125000000000001776e+00,6.750000000000003553e+00,-4.562500000000001776e+00,-1.306250000000000711e+01,-5.187500000000002665e+00,-1.250000000000000000e-01,5.375000000000001776e+00,8.625000000000003553e+00,-2.437500000000000444e+00,-4.250000000000001776e+00,3.312500000000001332e+00,5.625000000000000000e-01,3.562500000000001776e+00,9.125000000000003553e+00,3.250000000000001332e+00,-7.500000000000005551e-01,-3.937500000000001776e+00,-7.875000000000003553e+00,-4.562500000000001776e+00,-6.875000000000003331e-01,-7.500000000000001110e-01,-3.125000000000000888e+00,-7.062500000000003553e+00,-4.562500000000002665e+00,5.250000000000002665e+00,1.093750000000000355e+01,9.000000000000003553e+00,2.500000000000000000e-01,-5.750000000000003553e+00,-9.375000000000004441e-01,4.562500000000001776e+00,4.062500000000001776e+00,-5.562500000000003553e+00,-1.712500000000000711e+01,-1.193750000000000533e+01,2.250000000000000444e+00,5.812500000000003553e+00,2.812500000000001776e+00,5.875000000000001776e+00,1.037500000000000355e+01,2.062500000000000000e+00,-4.750000000000002665e+00,-6.250000000000000000e-01,-1.812500000000000666e+00,-3.750000000000004441e-01,3.187500000000001776e+00,-1.750000000000000222e+00,-3.750000000000001776e+00,-1.687500000000001332e+00,2.625000000000001332e+00,1.081250000000000533e+01,7.562500000000003553e+00,-8.500000000000003553e+00,-9.187500000000003553e+00,4.812500000000001776e+00,5.875000000000001776e+00,-4.625000000000001776e+00,-6.625000000000002665e+00,4.687500000000002665e+00,6.187500000000003553e+00,-5.562500000000002665e+00,-1.437500000000000888e+00,7.375000000000003553e+00,0.000000000000000000e+00,-1.000000000000000888e+00,5.562500000000002665e+00,-2.437500000000000000e+00,-1.131250000000000355e+01,-5.937500000000003553e+00,3.937500000000001332e+00,6.062500000000002665e+00,-1.125000000000000222e+00,-1.250000000000000000e-01,6.562500000000003553e+00,-6.250000000000000000e-02,-5.625000000000002665e+00,3.750000000000000000e-01,4.812500000000001776e+00,8.250000000000003553e+00,1.187500000000000533e+01,4.937500000000003553e+00,-9.312500000000003553e+00,-1.156250000000000533e+01,-6.250000000000008882e-01,1.250000000000000000e+00,-4.437500000000001776e+00,-6.250000000000000000e-02,3.812500000000001332e+00,-3.062500000000001332e+00,-5.250000000000001776e+00,1.875000000000001332e+00,2.187500000000001332e+00,-5.250000000000001776e+00,-8.125000000000003553e+00,-1.937500000000000888e+00,7.937500000000003553e+00,1.056250000000000355e+01,3.375000000000001776e+00,-7.125000000000003553e+00,-5.875000000000003553e+00,7.312500000000003553e+00,4.625000000000002665e+00,-8.750000000000003553e+00,-4.437500000000002665e+00,2.437500000000000888e+00,-6.875000000000003331e-01,4.562500000000001776e+00,1.337500000000000711e+01,1.081250000000000533e+01,1.062500000000000444e+00,-8.875000000000005329e+00,-7.250000000000003553e+00,3.125000000000001776e+00,-6.875000000000000000e-01,-5.312500000000001776e+00,2.250000000000000888e+00,1.312500000000000222e+00,1.375000000000000222e+00,7.187500000000003553e+00,3.625000000000001776e+00,8.125000000000011102e-01,-2.125000000000000000e+00,-1.043750000000000533e+01,-6.375000000000002665e+00,6.750000000000002665e+00,6.187500000000001776e+00,1.375000000000001110e+00,1.937500000000001332e+00,-2.937500000000001776e+00,-4.440892098500626162e-16,6.250000000000002665e+00,-1.000000000000000888e+00,5.062500000000003553e+00,1.562500000000000711e+01,-3.750000000000002665e+00,-2.225000000000000711e+01,-1.406250000000000355e+01,-2.437500000000000888e+00,2.500000000000001110e-01,-1.250000000000000833e-01,-3.125000000000001665e-01,-6.250000000000002776e-02,6.250000000000002776e-02,0.000000000000000000e+00,1.250000000000000555e-01,1.250000000000000555e-01,0.000000000000000000e+00,6.250000000000002776e-02,0.000000000000000000e+00,-1.875000000000000833e-01,-1.875000000000000833e-01,1.250000000000000833e-01,3.750000000000002220e-01,0.000000000000000000e+00,-3.750000000000002220e-01,-1.250000000000000833e-01,6.250000000000002776e-02,-6.250000000000002776e-02,6.250000000000002776e-02,3.125000000000001665e-01,1.875000000000001110e-01,-1.875000000000001110e-01,-3.125000000000001665e-01,-6.250000000000002776e-02,0.000000000000000000e+00,-1.875000000000000833e-01,1.250000000000000555e-01,4.375000000000002220e-01,-6.625000000000003553e+00,-1.950000000000001066e+01,-1.650000000000000711e+01,-5.624999999999982236e-01,6.062500000000003553e+00,6.750000000000001776e+00,3.937500000000001776e+00,-7.812500000000004441e+00,-1.031250000000000533e+01,5.375000000000003553e+00,1.118750000000000533e+01,6.812500000000001776e+00,9.187500000000003553e+00,1.937500000000001332e+00,-7.062500000000003553e+00,-2.625000000000001776e+00,-2.437500000000001776e+00,-5.500000000000003553e+00,5.625000000000000000e-01,5.687500000000002665e+00,5.937500000000002665e+00,8.687500000000003553e+00,2.500000000000000444e+00,-1.175000000000000533e+01,-7.250000000000003553e+00,9.250000000000003553e+00,6.625000000000003553e+00,-3.187500000000000888e+00,3.312500000000000888e+00,4.812500000000001776e+00,-7.375000000000002665e+00,-9.437500000000003553e+00,1.812500000000000888e+00,1.081250000000000355e+01,4.625000000000001776e+00,-3.250000000000001776e+00,5.312500000000002665e+00,8.687500000000003553e+00,-4.562500000000002665e+00,-1.300000000000000711e+01,-4.687500000000001776e+00,8.500000000000003553e+00,3.750000000000002220e+00,-4.312500000000001776e+00,3.875000000000001776e+00,2.750000000000001776e+00,-3.250000000000001332e+00,2.937500000000001332e+00,-9.375000000000000000e-01,-9.187500000000003553e+00,-5.312500000000001776e+00,1.875000000000001332e+00,7.562500000000003553e+00,4.000000000000001776e+00,-5.250000000000001776e+00,-8.812500000000003553e+00,-6.250000000000003553e+00,2.562500000000002220e+00,6.625000000000003553e+00,3.750000000000001332e+00,7.499999999999998890e-01,-6.062500000000003553e+00,-2.125000000000000888e+00,1.325000000000000711e+01,9.562500000000005329e+00,-7.812500000000003553e+00,-1.306250000000000711e+01,-3.500000000000001776e+00,1.293750000000000711e+01,1.425000000000000711e+01,-2.937500000000001776e+00,-7.625000000000004441e+00,-2.812500000000001776e+00,-6.625000000000002665e+00,-1.625000000000000000e+00,1.043750000000000533e+01,7.000000000000003553e+00,-6.687500000000003553e+00,-7.125000000000003553e+00,9.062500000000003553e+00,9.250000000000003553e+00,-6.687500000000002665e+00,-3.437500000000001332e+00,2.000000000000000888e+00,-7.750000000000003553e+00,-3.687500000000001776e+00,1.093750000000000533e+01,8.312500000000003553e+00,-2.250000000000001332e+00,1.625000000000000444e+00,5.312500000000001776e+00,-8.375000000000003553e+00,-1.206250000000000355e+01,3.875000000000002665e+00,1.100000000000000533e+01,4.812500000000002665e+00,-3.937500000000001332e+00,-4.812500000000002665e+00,5.562500000000001776e+00,3.187500000000001776e+00,-7.500000000000002665e+00,5.000000000000000000e-01,5.625000000000001776e+00,-4.062500000000001776e+00,-1.687500000000000444e+00,9.500000000000005329e+00,9.500000000000005329e+00,2.250000000000001332e+00,-4.187500000000001776e+00,-6.812500000000003553e+00,-4.375000000000004441e-01,5.062500000000001776e+00,-3.250000000000002220e+00,-1.206250000000000533e+01,-6.250000000000002665e+00,6.937500000000002665e+00,1.218750000000000533e+01,5.312500000000002665e+00,-3.187500000000001332e+00,-3.062500000000001332e+00,1.937500000000000444e+00,-8.750000000000004441e-01,-8.437500000000003553e+00,-3.437500000000000888e+00,4.000000000000001776e+00,-1.812500000000000888e+00,1.875000000000004441e-01,1.400000000000000533e+01,1.206250000000000355e+01,-7.125000000000003553e+00,-2.000000000000000711e+01,-8.750000000000001776e+00,9.437500000000005329e+00,4.812500000000001776e+00,-6.250000000000000000e-01,9.812500000000005329e+00,9.375000000000000000e-01,-1.850000000000000711e+01,-6.750000000000001776e+00,9.750000000000003553e+00,-2.125000000000001776e+00,-1.268750000000000711e+01,-6.125000000000003553e+00,2.312500000000000888e+00,7.187500000000003553e+00,1.312500000000000000e+00,-5.312500000000002665e+00,4.187500000000002665e+00,7.875000000000003553e+00,-5.062500000000003553e+00,-6.687500000000003553e+00,2.937500000000001776e+00,1.000000000000000888e+00,-1.125000000000000444e+00,4.250000000000001776e+00,4.375000000000004441e-01,-4.937500000000001776e+00,-2.625000000000000888e+00,1.187500000000000444e+00,3.312500000000001776e+00,1.250000000000002220e-01,-2.625000000000001332e+00,-3.500000000000001776e+00,-4.125000000000001776e+00,6.250000000000000000e-02,5.562500000000002665e+00,6.125000000000002665e+00,5.625000000000000000e-01,-5.437500000000002665e+00,-8.375000000000003553e+00,-1.187500000000000000e+00,1.050000000000000355e+01,3.875000000000000888e+00,-2.875000000000001776e+00,4.562500000000001776e+00,-2.125000000000000888e+00,-9.812500000000003553e+00,3.250000000000001776e+00,5.812500000000003553e+00,-4.187500000000001776e+00,-3.750000000000004441e-01,2.937500000000001332e+00,1.437500000000000888e+00,2.812500000000001776e+00,-5.437500000000002665e+00,-7.312500000000003553e+00,4.687500000000001776e+00,1.875000000000000000e+00,-4.625000000000001776e+00,7.062500000000003553e+00,1.062500000000000355e+01,-3.437500000000001776e+00,-8.812500000000003553e+00,-4.812500000000002665e+00,-6.000000000000003553e+00,-2.312500000000001776e+00,8.750000000000003553e+00,8.000000000000003553e+00,3.500000000000001776e+00,4.312500000000001776e+00,-5.687500000000002665e+00,-1.143750000000000533e+01,2.375000000000000888e+00,8.937500000000003553e+00,4.562500000000001776e+00,1.000000000000000666e+00,-9.062500000000003553e+00,-6.750000000000002665e+00,8.687500000000003553e+00,1.875000000000001776e+00,-6.250000000000001776e+00,5.250000000000003553e+00,3.312500000000002220e+00,-3.562500000000001332e+00,8.750000000000007772e-01,-4.875000000000002665e+00,-4.125000000000002665e+00,9.062500000000003553e+00,3.562500000000001776e+00,-5.062500000000002665e+00,-3.062500000000001332e+00,-4.437500000000001776e+00,-1.875000000000000000e-01,5.125000000000001776e+00,8.125000000000004441e-01,-2.750000000000000888e+00,-4.375000000000002220e-01,7.312500000000003553e+00,8.625000000000003553e+00,-5.375000000000002665e+00,-1.506250000000000711e+01,-2.687500000000001776e+00,1.387500000000000533e+01,8.937500000000003553e+00,-3.375000000000001776e+00,-2.437500000000001332e+00,-3.125000000000001110e-01,-5.875000000000003553e+00,-6.437500000000003553e+00,2.937500000000000888e+00,4.750000000000001776e+00,-2.062500000000000444e+00,-1.437500000000000444e+00,2.625000000000001332e+00,7.125000000000002665e+00,8.437500000000003553e+00,-5.062500000000001776e+00,-1.462500000000000711e+01,8.125000000000000000e-01,1.512500000000000711e+01,5.125000000000001776e+00,-9.250000000000005329e+00,-1.231250000000000533e+01,-5.875000000000001776e+00,9.312500000000003553e+00,1.406250000000000711e+01,-1.124999999999999112e+00,-8.000000000000003553e+00,-1.437500000000000888e+00,-1.875000000000000888e+00,-4.687500000000001776e+00,-5.000000000000000000e-01,5.625000000000006661e-01,-2.000000000000000888e+00,2.500000000000000888e+00,5.437500000000002665e+00,5.687500000000002665e+00,6.750000000000003553e+00,-3.562500000000002220e+00,-7.875000000000004441e+00,2.500000000000000888e+00,1.000000000000000444e+00,-5.000000000000001776e+00,-1.000000000000000444e+00,2.187500000000000888e+00,-2.500000000000000000e-01,-3.375000000000001332e+00,-1.187500000000000444e+00,3.500000000000001776e+00,4.562500000000001776e+00,1.250000000000000444e+00,8.750000000000005551e-01,3.625000000000001332e+00,2.499999999999993339e-01,-6.562500000000002665e+00,-6.500000000000002665e+00,2.500000000000000888e+00,6.250000000000002665e+00,3.187500000000001776e+00,-1.812500000000001110e+00,-1.093750000000000533e+01,-4.000000000000001776e+00,1.243750000000000533e+01,2.875000000000000888e+00,-1.381250000000000711e+01,-1.937500000000000000e+00,1.281250000000000711e+01,2.687500000000001776e+00,-2.937500000000000888e+00,1.000000000000000666e+00,-7.250000000000003553e+00,-7.500000000000003553e+00,3.750000000000001776e+00,5.750000000000002665e+00,3.125000000000001332e+00,4.375000000000001776e+00,2.812500000000001776e+00,-9.187500000000003553e+00,-8.687500000000003553e+00,1.218750000000000533e+01,1.068750000000000533e+01,-1.312500000000000533e+01,-9.500000000000003553e+00,1.368750000000000711e+01,8.812500000000003553e+00,-1.118750000000000355e+01,-6.875000000000002665e+00,5.562500000000002665e+00,2.937500000000001332e+00,-5.062500000000001776e+00,-8.812500000000003553e+00,6.250000000000000000e-02,1.143750000000000533e+01,6.000000000000003553e+00,-4.000000000000001776e+00,-4.000000000000001776e+00,-1.312500000000000444e+00,2.437500000000000888e+00,8.375000000000003553e+00,-1.250000000000008882e-01,-1.225000000000000711e+01,2.000000000000000000e+00,1.493750000000000711e+01,-1.250000000000000000e-01,-9.062500000000003553e+00,-4.875000000000001776e+00,-7.312500000000003553e+00,4.375000000000000000e-01,1.006250000000000355e+01,-3.312500000000001776e+00,-1.112500000000000533e+01,5.250000000000001776e+00,1.418750000000000711e+01,-1.875000000000000000e-01,-6.687500000000003553e+00,3.750000000000001776e+00,-2.812500000000000888e+00,-1.100000000000000533e+01,7.750000000000003553e+00,1.268750000000000533e+01,-8.375000000000005329e+00,-8.000000000000005329e+00,5.437500000000002665e+00,-2.562500000000001776e+00,-5.125000000000002665e+00,5.125000000000002665e+00,-3.500000000000001776e+00,-1.356250000000000711e+01,-4.562500000000001776e+00,7.375000000000001776e+00,1.500000000000000533e+01,8.812500000000003553e+00,-8.312500000000003553e+00,-8.812500000000003553e+00,6.250000000000022204e-02,6.250000000000022204e-02,2.500000000000000000e-01,4.375000000000003331e-01,2.812500000000001776e+00,8.750000000000003553e+00,2.625000000000000888e+00,-6.687500000000002665e+00,-8.062500000000003553e+00,-3.312500000000001332e+00,8.500000000000003553e+00,4.250000000000001776e+00,-8.062500000000003553e+00,1.312500000000000888e+00,5.125000000000001776e+00,-1.375000000000000888e+00,4.312500000000001776e+00,2.687500000000000888e+00,-5.312500000000001776e+00,-5.875000000000002665e+00,-6.437500000000003553e+00,6.250000000000000000e-02,1.131250000000000533e+01,1.062500000000000533e+01,-1.812500000000000000e+00,-6.812500000000003553e+00,-1.312500000000001110e+00,-7.750000000000003553e+00,-1.718750000000000711e+01,-4.312500000000001776e+00,1.250000000000000533e+01,1.068750000000000533e+01,8.062500000000003553e+00,3.750000000000000888e+00,-1.287500000000000711e+01,-1.137500000000000533e+01,7.500000000000003553e+00,1.568750000000000711e+01,1.181250000000000533e+01,-1.250000000000000000e+00,-7.000000000000002665e+00,5.625000000000004441e-01,2.312500000000001332e+00,-1.875000000000000555e-01,1.687500000000000888e+00,-1.625000000000000888e+00,-7.437500000000003553e+00,-1.937500000000000888e+00,5.437500000000002665e+00,7.687500000000004441e+00,8.125000000000008882e-01,-1.006250000000000533e+01,6.875000000000000000e-01,8.187500000000003553e+00,-9.750000000000005329e+00,-1.681250000000000711e+01,-4.187500000000001776e+00,7.062500000000002665e+00,2.000000000000000444e+00,-5.062500000000001776e+00,5.875000000000002665e+00,6.687500000000003553e+00,-3.312500000000001332e+00,-3.875000000000001776e+00,-7.437500000000002665e+00,-4.062500000000000888e+00,3.687500000000001332e+00,5.437500000000001776e+00,8.937500000000003553e+00,-4.375000000000001776e+00,-1.693750000000000711e+01,4.812500000000004441e+00,2.275000000000001066e+01,7.250000000000001776e+00,-1.237500000000000533e+01,-1.631250000000000711e+01,-5.062500000000002665e+00,1.468750000000000711e+01,1.475000000000000888e+01,-7.562500000000001776e+00,-1.412500000000000533e+01,4.500000000000001776e+00,1.306250000000000533e+01,-4.937500000000001776e+00,-1.037500000000000355e+01,1.125000000000000711e+01,1.125000000000000711e+01,-1.243750000000000533e+01,-1.081250000000000533e+01,8.687500000000003553e+00,1.368750000000000533e+01,1.875000000000000000e+00,-1.512500000000000711e+01,-1.193750000000000533e+01,6.250000000000003553e+00,1.112500000000000533e+01,1.087500000000000533e+01,7.437500000000003553e+00,-7.187500000000003553e+00,-1.087500000000000533e+01,-1.125000000000000444e+00,-7.500000000000000000e-01,-2.875000000000000888e+00,-2.687500000000001776e+00,-6.312500000000003553e+00,2.500000000000000000e-01,7.062500000000003553e+00,-1.875000000000000000e-01,-5.937500000000003553e+00,-4.000000000000002665e+00,1.250000000000000000e-01,1.937500000000001332e+00,8.750000000000006661e-01,3.875000000000001776e+00,1.068750000000000533e+01,1.437500000000000888e+00,-1.262500000000000711e+01,2.000000000000000000e+00,1.093750000000000355e+01,-9.875000000000005329e+00,-8.125000000000003553e+00,1.375000000000000711e+01,2.562500000000001776e+00,-1.537500000000000711e+01,-1.312500000000000888e+00,7.312500000000003553e+00,1.750000000000001110e+00,1.037500000000000355e+01,8.812500000000003553e+00,-4.687500000000002665e+00,-1.250000000000000888e+00,-4.375000000000001776e+00,-1.806250000000000711e+01,-7.625000000000003553e+00,1.712500000000000711e+01,2.256250000000001066e+01,7.125000000000001776e+00,-5.125000000000003553e+00
7.250000000000001776e+00,-4.000000000000000888e+00,-1.275000000000000355e+01,8.000000000000001776e+00,1.000000000000000178e+01,-5.750000000000001776e+00,-1.250000000000000000e+00,8.750000000000001776e+00,-7.750000000000001776e+00,3.250000000000000444e+00,-1.100000000000000178e+01,7.500000000000000000e-01,1.850000000000000355e+01,-1.475000000000000355e+01,9.500000000000001776e+00,-6.500000000000001776e+00,-1.050000000000000178e+01,1.175000000000000355e+01,-1.175000000000000355e+01,1.575000000000000355e+01,-1.725000000000000355e+01,8.750000000000001776e+00,1.075000000000000178e+01,-1.850000000000000355e+01,1.625000000000000355e+01,-1.100000000000000355e+01,-2.500000000000000888e+00,1.600000000000000355e+01,-2.750000000000000000e+00,-1.250000000000000000e+00,-1.750000000000000355e+01,2.050000000000000355e+01,-5.750000000000000888e+00,-1.550000000000000355e+01,2.175000000000000711e+01,-2.050000000000000355e+01,2.400000000000000711e+01,-2.700000000000000711e+01,2.275000000000000711e+01,-1.925000000000000355e+01,7.500000000000000888e+00,-1.750000000000000000e+00,9.000000000000001776e+00,-9.750000000000001776e+00,2.500000000000000000e-01,1.225000000000000355e+01,-5.000000000000000000e-01,-1.825000000000000355e+01,1.475000000000000355e+01,6.500000000000000888e+00,-1.550000000000000355e+01,-1.000000000000000000e+00,1.300000000000000355e+01,2.000000000000000000e+00,-1.575000000000000355e+01,1.050000000000000178e+01,4.500000000000001776e+00,-1.650000000000000355e+01,1.650000000000000355e+01,-1.550000000000000355e+01,5.750000000000001776e+00,1.025000000000000178e+01,-4.500000000000000888e+00,-1.700000000000000355e+01,2.225000000000000711e+01,-2.100000000000000711e+01,2.275000000000000711e+01,-1.600000000000000355e+01,2.250000000000000000e+00,-5.000000000000000888e+00,2.750000000000000888e+00,1.250000000000000000e+00,9.750000000000001776e+00,-4.250000000000000888e+00,-1.200000000000000178e+01,6.500000000000000888e+00,1.525000000000000355e+01,-1.800000000000000355e+01,1.750000000000000888e+00,1.425000000000000355e+01,-6.500000000000001776e+00,7.500000000000004441e-01,-1.300000000000000355e+01,1.325000000000000355e+01,7.250000000000000888e+00,-1.125000000000000178e+01,1.050000000000000178e+01,-1.350000000000000355e+01,8.250000000000001776e+00,-2.750000000000000444e+00,-9.750000000000001776e+00,1.575000000000000355e+01,0.000000000000000000e+00,-1.575000000000000355e+01,3.500000000000000888e+00,1.225000000000000355e+01,2.250000000000000000e+00,-1.000000000000000178e+01,-9.250000000000001776e+00,2.350000000000000711e+01,-2.175000000000000711e+01,1.525000000000000355e+01,1.250000000000000000e+00,-1.550000000000000355e+01,1.050000000000000355e+01,2.500000000000000888e+00,-1.275000000000000355e+01,-4.500000000000000000e+00,-7.000000000000001776e+00,1.125000000000000178e+01,-6.250000000000001776e+00,9.500000000000003553e+00,1.800000000000000355e+01,-1.600000000000000355e+01,2.025000000000000355e+01,-9.750000000000001776e+00,-2.000000000000000000e+00,4.000000000000000000e+00,-1.700000000000000355e+01,3.750000000000000444e+00,1.200000000000000178e+01,-2.075000000000000355e+01,1.500000000000000355e+01,-1.750000000000000355e+01,1.075000000000000355e+01,4.750000000000000888e+00,-1.550000000000000355e+01,2.350000000000000711e+01,9.500000000000001776e+00,-8.750000000000001776e+00,-7.500000000000000888e+00,1.475000000000000355e+01,1.300000000000000355e+01,-2.325000000000000711e+01,-8.000000000000001776e+00,2.500000000000000555e-01,-5.000000000000001110e-01,-2.850000000000000711e+01,7.500000000000000000e-01,-2.000000000000000000e+00,-3.750000000000000711e+01,5.475000000000001421e+01,-7.750000000000000000e+00,2.000000000000000000e+00,1.925000000000000355e+01,3.425000000000000711e+01,-1.775000000000000355e+01,-6.500000000000001776e+00,2.500000000000000000e-01,-1.000000000000000000e+00,-1.575000000000000355e+01,1.700000000000000355e+01,-1.350000000000000178e+01,-4.250000000000001776e+00,8.750000000000001776e+00,5.000000000000001776e+00,5.000000000000000000e-01,-1.550000000000000355e+01,5.500000000000001776e+00,1.850000000000000355e+01,-2.025000000000000355e+01,1.025000000000000355e+01,-6.250000000000001776e+00,-1.000000000000000222e+00,-5.500000000000001776e+00,1.475000000000000355e+01,-8.500000000000001776e+00,-1.075000000000000178e+01,1.500000000000000355e+01,-1.775000000000000355e+01,9.000000000000003553e+00,3.750000000000000888e+00,8.000000000000001776e+00,-1.425000000000000355e+01,1.750000000000000888e+00,1.250000000000000355e+01,-7.500000000000000000e-01,-9.000000000000001776e+00,-1.250000000000000444e+00,3.000000000000000888e+00,1.450000000000000355e+01,-2.275000000000000711e+01,1.925000000000000355e+01,-7.250000000000001776e+00,-1.375000000000000178e+01,1.325000000000000178e+01,8.750000000000001776e+00,-2.375000000000000711e+01,1.550000000000000355e+01,7.750000000000001776e+00,-2.275000000000000711e+01,2.025000000000000711e+01,-1.625000000000000355e+01,8.750000000000001776e+00,6.500000000000001776e+00,-9.500000000000001776e+00,1.125000000000000178e+01,-9.750000000000001776e+00,-1.000000000000000178e+01,2.175000000000000355e+01,-1.925000000000000355e+01,1.125000000000000178e+01,5.250000000000001776e+00,-1.525000000000000355e+01,6.250000000000001776e+00,-3.250000000000000888e+00,1.550000000000000355e+01,-1.150000000000000178e+01,-3.750000000000000888e+00,8.750000000000001776e+00,-1.650000000000000355e+01,2.025000000000000355e+01,-1.125000000000000178e+01,-3.000000000000000444e+00,1.625000000000000355e+01,-1.875000000000000355e+01,2.125000000000000711e+01,-2.600000000000000711e+01,2.125000000000000711e+01,-1.525000000000000355e+01,7.750000000000001776e+00,8.000000000000001776e+00,-8.250000000000001776e+00,-9.000000000000001776e+00,9.750000000000001776e+00,7.500000000000001776e+00,-1.100000000000000178e+01,8.000000000000001776e+00,-1.175000000000000355e+01,-7.500000000000000000e-01,1.925000000000000711e+01,-1.325000000000000355e+01,-1.000000000000000178e+01,2.050000000000000355e+01,-1.875000000000000355e+01,1.400000000000000355e+01,-1.125000000000000355e+01,1.275000000000000355e+01,-9.750000000000003553e+00,1.200000000000000355e+01,-1.325000000000000355e+01,5.750000000000000888e+00,2.500000000000002220e-01,-2.750000000000000888e+00,3.250000000000000888e+00,-1.025000000000000178e+01,5.000000000000000888e+00,1.450000000000000355e+01,-2.075000000000000355e+01,7.500000000000001776e+00,1.375000000000000178e+01,-1.925000000000000355e+01,1.450000000000000355e+01,-2.000000000000000711e+01,1.425000000000000355e+01,7.250000000000001776e+00,-1.250000000000000355e+01,-4.000000000000000888e+00,1.425000000000000355e+01,-1.225000000000000355e+01,6.500000000000001776e+00,-5.000000000000001110e-01,5.000000000000000888e+00,1.250000000000000888e+00,-1.525000000000000355e+01,1.800000000000000355e+01,-1.525000000000000355e+01,2.500000000000000000e-01,1.400000000000000355e+01,-7.500000000000001776e+00,-9.500000000000001776e+00,8.000000000000001776e+00,1.225000000000000178e+01,-1.925000000000000355e+01,5.750000000000001776e+00,1.175000000000000178e+01,-1.375000000000000355e+01,2.100000000000000355e+01,-2.375000000000000711e+01,9.000000000000001776e+00,2.250000000000000444e+00,-1.025000000000000355e+01,-1.750000000000000000e+00,8.250000000000001776e+00,-1.525000000000000355e+01,2.225000000000000711e+01,-7.750000000000001776e+00,-1.225000000000000355e+01,1.650000000000000355e+01,5.000000000000000000e-01,-7.250000000000001776e+00,-2.250000000000000444e+00,1.200000000000000355e+01,-2.000000000000000711e+01,2.625000000000000711e+01,-2.125000000000000711e+01,5.500000000000001776e+00,9.750000000000001776e+00,-5.750000000000001776e+00,-7.250000000000001776e+00,2.000000000000000355e+01,-2.675000000000000711e+01,2.000000000000000711e+01,5.000000000000000000e-01,-1.500000000000000355e+01,1.850000000000000355e+01,-7.000000000000000888e+00,2.000000000000000888e+00,-1.275000000000000355e+01,3.475000000000000711e+01,-3.150000000000000711e+01,6.000000000000001776e+00,9.000000000000003553e+00,-1.025000000000000355e+01,-1.500000000000000444e+00,8.500000000000001776e+00,-5.500000000000000888e+00,-1.000000000000000444e+00,4.250000000000001776e+00,1.250000000000000000e+00,-1.650000000000000355e+01,1.825000000000000355e+01,-7.250000000000001776e+00,-1.100000000000000178e+01,1.925000000000000355e+01,-7.000000000000000888e+00,1.500000000000000000e+00,-2.100000000000000355e+01,1.950000000000000355e+01,-3.000000000000000888e+00,-7.250000000000001776e+00,1.325000000000000355e+01,-5.000000000000000000e-01,-1.850000000000000711e+01,1.300000000000000355e+01,-4.500000000000000888e+00,-6.250000000000000888e+00,1.800000000000000355e+01,-8.000000000000001776e+00,-1.200000000000000355e+01,2.050000000000000711e+01,-1.300000000000000355e+01,-1.750000000000000888e+00,1.725000000000000355e+01,-1.275000000000000178e+01,4.000000000000000888e+00,6.250000000000001776e+00,-1.825000000000000355e+01,1.650000000000000355e+01,-1.700000000000000355e+01,1.750000000000000355e+01,-1.850000000000000355e+01,1.750000000000000355e+01,-2.450000000000000711e+01,2.125000000000000355e+01,-7.750000000000001776e+00,5.000000000000000888e+00,9.750000000000001776e+00,-2.325000000000000711e+01,2.325000000000000711e+01,-2.050000000000000355e+01,2.200000000000000355e+01,-1.650000000000000355e+01,9.000000000000001776e+00,-2.675000000000000355e+01,2.850000000000000355e+01,-2.075000000000000355e+01,1.900000000000000355e+01,-1.550000000000000355e+01,1.375000000000000178e+01,6.250000000000001776e+00,-2.300000000000000711e+01,2.325000000000000711e+01,-1.275000000000000355e+01,-5.250000000000000888e+00,2.025000000000000355e+01,-2.325000000000000711e+01,1.800000000000000355e+01,-1.525000000000000355e+01,1.075000000000000178e+01,-7.000000000000001776e+00,1.700000000000000355e+01,-1.050000000000000178e+01,-1.250000000000000355e+01,1.800000000000000711e+01,-8.750000000000001776e+00,6.750000000000001776e+00,-1.050000000000000355e+01,0.000000000000000000e+00,1.825000000000000355e+01,-1.900000000000000355e+01,1.750000000000000888e+00,1.175000000000000355e+01,-5.500000000000001776e+00,-7.000000000000001776e+00,1.225000000000000355e+01,-7.500000000000008882e-01,-1.475000000000000355e+01,1.175000000000000178e+01,-1.300000000000000178e+01,1.750000000000000355e+01,-8.500000000000001776e+00,-6.500000000000001776e+00,1.550000000000000355e+01,-7.000000000000001776e+00,-4.250000000000000888e+00,3.250000000000000888e+00,2.500000000000000888e+00,-4.000000000000000888e+00,1.150000000000000178e+01,-2.250000000000000000e+00,1.000000000000000000e+00,-1.275000000000000355e+01,5.250000000000000888e+00,7.500000000000001776e+00,-1.400000000000000355e+01,7.750000000000001776e+00,0.000000000000000000e+00,1.750000000000000444e+00,-8.750000000000001776e+00,4.500000000000000888e+00,6.500000000000000888e+00,-1.225000000000000355e+01,9.500000000000003553e+00,-1.600000000000000355e+01,1.700000000000000355e+01,-5.500000000000001776e+00,6.250000000000001776e+00,-1.750000000000000000e+00,-1.200000000000000355e+01,1.050000000000000178e+01,7.250000000000001776e+00,-1.300000000000000355e+01,-3.000000000000000888e+00,1.550000000000000355e+01,-1.700000000000000355e+01,9.750000000000001776e+00,1.250000000000000222e+00,7.250000000000001776e+00,-5.000000000000000888e+00,5.000000000000000888e+00,-1.600000000000000355e+01,1.125000000000000355e+01,7.000000000000000888e+00,-2.400000000000000711e+01,2.225000000000000711e+01,-5.500000000000000888e+00,-1.350000000000000355e+01,2.725000000000000711e+01,-2.275000000000000355e+01,1.575000000000000355e+01,-7.500000000000000888e+00,2.500000000000000888e+00,-1.375000000000000355e+01,1.250000000000000355e+01,4.500000000000000888e+00,-1.350000000000000355e+01,1.550000000000000355e+01,-6.000000000000000888e+00,-1.175000000000000355e+01,2.275000000000000711e+01,-1.200000000000000355e+01,-1.050000000000000355e+01,3.075000000000000711e+01,-1.450000000000000533e+01,-1.000000000000000178e+01,-5.000000000000001110e-01,2.500000000000000555e-01,2.500000000000000555e-01,-2.500000000000000555e-01,0.000000000000000000e+00,-2.500000000000000555e-01,5.000000000000001110e-01,-5.000000000000001110e-01,2.500000000000000555e-01,2.500000000000000555e-01,-5.000000000000001110e-01,5.000000000000001110e-01,-2.500000000000000555e-01,0.000000000000000000e+00,0.000000000000000000e+00,-2.500000000000000555e-01,5.000000000000001110e-01,0.000000000000000000e+00,-5.000000000000001110e-01,2.500000000000000555e-01,0.000000000000000000e+00,0.000000000000000000e+00,-2.500000000000000555e-01,5.000000000000001110e-01,-2.500000000000000555e-01,2.500000000000000555e-01,-5.000000000000001110e-01,2.500000000000000555e-01,0.000000000000000000e+00,0.000000000000000000e+00,-5.000000000000001110e-01,1.000000000000000222e+00,-5.000000000000001110e-01,-2.500000000000000555e-01,-2.600000000000000711e+01,2.850000000000000711e+01,-2.250000000000000355e+01,2.100000000000000355e+01,-1.275000000000000355e+01,1.350000000000000355e+01,-2.325000000000000355e+01,1.075000000000000178e+01,1.400000000000000355e+01,-1.950000000000000355e+01,1.900000000000000355e+01,1.500000000000000444e+00,-1.925000000000000355e+01,1.925000000000000355e+01,-1.475000000000000355e+01,8.500000000000001776e+00,-1.300000000000000355e+01,1.875000000000000355e+01,-1.400000000000000355e+01,9.750000000000001776e+00,6.750000000000001776e+00,-1.350000000000000355e+01,-1.500000000000000000e+00,3.250000000000000888e+00,1.425000000000000355e+01,-2.000000000000000355e+01,9.500000000000001776e+00,9.000000000000001776e+00,-1.400000000000000355e+01,3.250000000000000888e+00,-4.000000000000000888e+00,5.750000000000001776e+00,9.250000000000001776e+00,-1.550000000000000355e+01,6.000000000000001776e+00,1.325000000000000178e+01,-1.500000000000000355e+01,6.750000000000001776e+00,-1.425000000000000178e+01,1.125000000000000178e+01,9.750000000000001776e+00,-2.225000000000000711e+01,1.475000000000000355e+01,7.000000000000001776e+00,-2.175000000000000711e+01,1.925000000000000711e+01,-2.250000000000000888e+00,-1.475000000000000355e+01,1.350000000000000355e+01,-1.250000000000000355e+01,9.000000000000001776e+00,7.250000000000001776e+00,-1.625000000000000355e+01,1.400000000000000355e+01,-1.750000000000000355e+01,8.500000000000003553e+00,6.250000000000001776e+00,-9.750000000000001776e+00,1.150000000000000355e+01,-6.000000000000001776e+00,-9.250000000000001776e+00,1.250000000000000178e+01,9.500000000000001776e+00,-1.700000000000000355e+01,8.500000000000001776e+00,-1.375000000000000355e+01,1.025000000000000355e+01,1.050000000000000178e+01,-5.250000000000000888e+00,-1.225000000000000355e+01,1.650000000000000355e+01,-1.250000000000000355e+01,-6.000000000000000888e+00,1.875000000000000355e+01,-1.200000000000000355e+01,1.375000000000000355e+01,-2.400000000000000711e+01,1.600000000000000355e+01,8.500000000000001776e+00,-1.150000000000000178e+01,-8.000000000000001776e+00,2.425000000000000711e+01,-2.525000000000000711e+01,7.000000000000000888e+00,3.500000000000000888e+00,6.000000000000001776e+00,-4.000000000000001776e+00,-7.750000000000001776e+00,1.850000000000000355e+01,-1.100000000000000355e+01,-1.075000000000000178e+01,9.250000000000001776e+00,4.750000000000000888e+00,-5.000000000000000888e+00,9.250000000000001776e+00,-1.600000000000000355e+01,8.000000000000001776e+00,1.275000000000000355e+01,-2.200000000000000711e+01,8.250000000000001776e+00,1.000000000000000178e+01,-1.225000000000000178e+01,5.000000000000002220e-01,7.000000000000000888e+00,1.250000000000000888e+00,1.250000000000000000e+00,-3.000000000000000888e+00,1.500000000000000888e+00,-1.100000000000000355e+01,1.850000000000000355e+01,-1.275000000000000355e+01,2.750000000000000444e+00,-1.050000000000000355e+01,9.750000000000003553e+00,7.500000000000000000e-01,5.500000000000000888e+00,-6.250000000000000888e+00,5.000000000000000000e-01,0.000000000000000000e+00,4.250000000000000888e+00,-5.000000000000000888e+00,-9.500000000000003553e+00,1.725000000000000355e+01,-1.000000000000000178e+01,-4.500000000000000888e+00,1.125000000000000355e+01,5.500000000000001776e+00,-5.500000000000001776e+00,-3.250000000000000888e+00,-1.575000000000000355e+01,1.900000000000000355e+01,2.000000000000000000e+00,-1.800000000000000355e+01,1.900000000000000355e+01,2.500000000000001776e+00,-1.475000000000000355e+01,-1.025000000000000178e+01,2.650000000000000711e+01,-1.500000000000000355e+01,-4.250000000000000888e+00,2.750000000000000444e+00,-2.750000000000000444e+00,2.000000000000000444e+00,1.100000000000000178e+01,-1.900000000000000355e+01,1.000000000000000178e+01,6.750000000000001776e+00,-5.250000000000001776e+00,-9.000000000000001776e+00,1.025000000000000178e+01,5.000000000000000000e-01,-1.050000000000000178e+01,1.100000000000000355e+01,2.250000000000000000e+00,-1.650000000000000355e+01,2.075000000000000355e+01,-2.375000000000000711e+01,2.375000000000000711e+01,-1.425000000000000355e+01,2.000000000000000444e+00,6.750000000000001776e+00,-1.625000000000000355e+01,1.675000000000000355e+01,-1.500000000000000355e+01,1.800000000000000355e+01,-1.050000000000000178e+01,1.750000000000000222e+00,1.250000000000000222e+00,-1.325000000000000355e+01,1.550000000000000355e+01,6.000000000000001776e+00,-2.325000000000000711e+01,2.375000000000000711e+01,-6.500000000000001776e+00,-1.125000000000000178e+01,3.750000000000000888e+00,1.550000000000000355e+01,-2.000000000000000355e+01,6.500000000000000888e+00,1.150000000000000355e+01,-2.200000000000000711e+01,2.475000000000000711e+01,-1.375000000000000178e+01,-5.750000000000001776e+00,6.750000000000001776e+00,8.500000000000001776e+00,-1.900000000000000711e+01,1.125000000000000355e+01,9.750000000000001776e+00,-1.075000000000000178e+01,1.000000000000000222e+00,-3.500000000000000888e+00,6.000000000000001776e+00,-1.550000000000000355e+01,1.500000000000000355e+01,3.250000000000000888e+00,-1.200000000000000355e+01,1.600000000000000355e+01,-6.000000000000001776e+00,-1.000000000000000178e+01,1.250000000000000000e+00,1.725000000000000355e+01,-2.100000000000000355e+01,2.125000000000000355e+01,-1.100000000000000178e+01,-1.275000000000000355e+01,1.675000000000000355e+01,5.250000000000000888e+00,-2.475000000000000711e+01,2.075000000000000355e+01,2.750000000000000888e+00,-2.075000000000000711e+01,2.150000000000000711e+01,-7.500000000000001776e+00,-1.525000000000000355e+01,2.125000000000000711e+01,-1.500000000000000000e+00,-1.675000000000000355e+01,2.050000000000000355e+01,-1.700000000000000355e+01,1.250000000000000000e+00,1.400000000000000355e+01,-1.675000000000000355e+01,1.550000000000000355e+01,-1.550000000000000355e+01,1.100000000000000178e+01,2.000000000000000444e+00,1.750000000000000888e+00,-1.300000000000000355e+01,1.000000000000000000e+00,4.750000000000001776e+00,1.450000000000000355e+01,-2.200000000000000711e+01,1.675000000000000355e+01,-1.125000000000000355e+01,8.250000000000001776e+00,-1.175000000000000355e+01,2.250000000000000888e+00,1.400000000000000355e+01,-1.900000000000000355e+01,1.375000000000000355e+01,-7.500000000000001776e+00,3.750000000000000888e+00,4.500000000000000888e+00,4.250000000000000888e+00,-1.775000000000000355e+01,3.500000000000000888e+00,1.250000000000000355e+01,-1.000000000000000000e+00,-6.750000000000001776e+00,0.000000000000000000e+00,-5.000000000000000888e+00,-1.250000000000000888e+00,1.825000000000000355e+01,-8.250000000000000000e+00,-1.025000000000000355e+01,1.425000000000000355e+01,-1.275000000000000355e+01,9.000000000000001776e+00,-1.375000000000000355e+01,1.900000000000000355e+01,-1.875000000000000355e+01,9.250000000000001776e+00,5.250000000000000888e+00,-1.050000000000000178e+01,1.400000000000000355e+01,-5.000000000000000000e-01,-1.825000000000000355e+01,1.625000000000000355e+01,1.000000000000000888e+00,-1.800000000000000355e+01,2.325000000000000711e+01,-2.525000000000000711e+01,2.850000000000000711e+01,-2.875000000000000711e+01,2.075000000000000711e+01,-1.275000000000000355e+01,8.250000000000001776e+00,3.250000000000001332e+00,-1.400000000000000355e+01,2.125000000000000711e+01,-1.875000000000000355e+01,1.475000000000000355e+01,-1.650000000000000355e+01,5.000000000000001776e+00,1.275000000000000178e+01,-1.975000000000000355e+01,2.400000000000000711e+01,-2.075000000000000711e+01,-2.000000000000000000e+00,1.250000000000000355e+01,5.000000000000000888e+00,-1.650000000000000355e+01,-5.000000000000000000e-01,1.325000000000000355e+01,3.250000000000000888e+00,-2.275000000000000711e+01,2.975000000000000711e+01,-2.050000000000000355e+01,-4.750000000000000888e+00,1.675000000000000355e+01,-1.625000000000000355e+01,1.900000000000000355e+01,-1.775000000000000355e+01,1.775000000000000355e+01,-6.750000000000000888e+00,-1.625000000000000355e+01,1.550000000000000355e+01,1.000000000000000355e+01,-1.250000000000000355e+01,-1.300000000000000355e+01,1.900000000000000711e+01,4.000000000000000000e+00,-1.075000000000000178e+01,-8.750000000000001776e+00,1.975000000000000355e+01,-1.500000000000000355e+01,9.500000000000001776e+00,-6.500000000000001776e+00,-1.100000000000000355e+01,2.475000000000000711e+01,-1.625000000000000355e+01,1.275000000000000355e+01,-1.750000000000000355e+01,1.775000000000000355e+01,-1.675000000000000355e+01,1.250000000000000355e+01,6.750000000000000888e+00,-1.925000000000000355e+01,2.750000000000000888e+00,1.600000000000000355e+01,-2.250000000000000000e+00,-1.900000000000000355e+01,2.225000000000000711e+01,-1.825000000000000711e+01,-1.750000000000000000e+00,1.725000000000000355e+01,-6.000000000000000888e+00,-1.400000000000000355e+01,1.150000000000000178e+01,2.500000000000000000e-01,1.300000000000000355e+01,-2.875000000000000711e+01,2.375000000000000711e+01,-1.500000000000000000e+00,-1.950000000000000711e+01,9.500000000000003553e+00,1.725000000000000355e+01,-1.550000000000000355e+01,-9.250000000000001776e+00,1.800000000000000355e+01,-3.750000000000000888e+00,-1.875000000000000355e+01,2.450000000000000711e+01,-9.000000000000001776e+00,-1.175000000000000178e+01,7.750000000000000888e+00,-3.250000000000000888e+00,4.250000000000001776e+00,1.275000000000000178e+01,-1.125000000000000178e+01,-1.000000000000000178e+01,1.900000000000000355e+01,-1.900000000000000355e+01,1.350000000000000355e+01,-5.750000000000001776e+00,0.000000000000000000e+00,1.250000000000000000e+00,1.575000000000000355e+01,-2.975000000000000711e+01,3.000000000000000711e+01,-3.250000000000000711e+01,2.100000000000000355e+01,7.500000000000000888e+00,-2.200000000000000355e+01,8.500000000000000000e+00,1.475000000000000355e+01,-2.425000000000000711e+01,1.700000000000000355e+01,4.500000000000000888e+00,-2.050000000000000355e+01,2.200000000000000355e+01,-2.125000000000000355e+01,7.000000000000000888e+00,6.250000000000001776e+00,-3.750000000000000888e+00,1.600000000000000355e+01,-3.100000000000000711e+01,2.950000000000000711e+01,-1.950000000000000711e+01,3.750000000000001332e+00,-1.600000000000000355e+01,2.125000000000000355e+01,-1.750000000000000222e+00,-1.025000000000000178e+01,2.525000000000000711e+01,-2.150000000000000355e+01,-7.750000000000002665e+00,1.775000000000000355e+01,-9.250000000000001776e+00,1.300000000000000355e+01,3.000000000000000000e+00,-2.350000000000000711e+01,2.825000000000000711e+01,-2.500000000000000711e+01,2.375000000000000711e+01,-2.525000000000000711e+01,2.950000000000000711e+01,-2.975000000000000711e+01,1.275000000000000178e+01,5.000000000000001776e+00,-1.475000000000000355e+01,2.950000000000000711e+01,-3.150000000000000711e+01,6.250000000000000888e+00,2.050000000000000355e+01,-2.025000000000000355e+01,-2.750000000000000888e+00,5.250000000000001776e+00,-1.125000000000000355e+01,2.800000000000000711e+01,-3.450000000000000711e+01,1.775000000000000355e+01,1.500000000000000355e+01,-3.300000000000000711e+01,3.225000000000000711e+01,-2.200000000000000711e+01,-4.000000000000001776e+00,2.225000000000000711e+01,-2.550000000000000711e+01,2.125000000000000355e+01,4.750000000000000888e+00,-3.100000000000000711e+01,1.850000000000000355e+01,4.000000000000000888e+00,1.150000000000000355e+01,-2.200000000000000711e+01,1.350000000000000355e+01,-2.150000000000000355e+01,1.625000000000000355e+01,1.175000000000000178e+01,-1.325000000000000178e+01,-2.000000000000000444e+00,-6.000000000000000888e+00,2.075000000000000355e+01,-7.750000000000000888e+00,-1.525000000000000355e+01,1.075000000000000355e+01,1.725000000000000355e+01,-1.975000000000000355e+01,-7.250000000000000888e+00,1.800000000000000355e+01,-1.000000000000000355e+01,1.550000000000000355e+01,-1.200000000000000355e+01,-1.550000000000000355e+01,2.150000000000000711e+01,-8.250000000000001776e+00,3.000000000000000888e+00,1.150000000000000355e+01,-9.000000000000003553e+00,-7.000000000000001776e+00,4.250000000000000888e+00,6.000000000000001776e+00,-1.700000000000000355e+01,1.900000000000000355e+01,-1.375000000000000355e+01,-7.750000000000002665e+00,2.925000000000000711e+01,-3.350000000000000711e+01,3.150000000000000711e+01,-3.500000000000000711e+01,3.200000000000000711e+01,-2.650000000000000711e+01,2.300000000000000711e+01,-1.825000000000000355e+01,1.250000000000000178e+01,9.500000000000001776e+00,-2.025000000000000355e+01,-2.000000000000000000e+00,2.850000000000000711e+01,-2.250000000000000355e+01,-9.000000000000003553e+00,1.950000000000000711e+01,5.000000000000000000e+00,-2.350000000000000711e+01,5.250000000000001776e+00,1.900000000000000355e+01,-2.375000000000000711e+01,1.275000000000000355e+01,1.725000000000000355e+01,-2.800000000000000711e+01,1.650000000000000355e+01,1.500000000000000000e+00,-1.525000000000000355e+01,-3.500000000000000000e+00,1.075000000000000178e+01,7.000000000000001776e+00,5.250000000000001776e+00,-1.225000000000000355e+01
