-7.158912500000006673e+01,-5.101100000000005252e+01,-3.238600000000004542e+01,-1.615162500000003121e+01,-2.370375000000026322e+00,6.629624999999979451e+00,1.209837499999998300e+01,1.511399999999998656e+01,1.547337499999998656e+01,1.530149999999998656e+01,1.387962499999998656e+01,1.270774999999998300e+01,1.142649999999998300e+01,1.183274999999998300e+01,1.267649999999998656e+01,1.306712499999998656e+01,1.287962499999998656e+01,1.258274999999998656e+01,1.423899999999998656e+01,1.620774999999998656e+01,1.659837499999998656e+01,1.747337499999998656e+01,1.777024999999998656e+01,1.708274999999998656e+01,1.733274999999998656e+01,1.758274999999998656e+01,1.569212499999998656e+01,1.262962499999998300e+01,1.187962499999998300e+01,1.002024999999998300e+01,9.113999999999983004e+00,1.011399999999998300e+01,9.692124999999981227e+00,8.801499999999981227e+00,9.551499999999981227e+00,1.055149999999998300e+01,9.098374999999983004e+00,8.160874999999981227e+00,5.426499999999979451e+00,1.551499999999976787e+00,-5.735000000000245457e-01,-2.964125000000026766e+00,-5.370375000000027654e+00,-6.964125000000029431e+00,-6.948500000000029431e+00,-7.026625000000029431e+00,-4.917250000000027654e+00,-2.526625000000025878e+00,-1.698500000000025434e+00,8.796249999999763425e-01,1.957749999999977231e+00,3.035874999999977675e+00,4.363999999999978563e+00,4.270249999999978563e+00,2.004624999999977231e+00,-1.516250000000240183e-01,-8.078750000000244347e-01,-2.557875000000025878e+00,-2.964125000000025878e+00,-3.886000000000025878e+00,-5.839125000000027654e+00,-6.073500000000027654e+00,-5.198500000000026766e+00,-3.948500000000026766e+00,-4.776625000000027654e+00,-5.995375000000027654e+00,-6.995375000000027654e+00,-9.354750000000029431e+00,-1.130787500000003121e+01,-1.288600000000003298e+01,-1.397975000000003476e+01,-1.621412500000003476e+01,-1.637037500000003476e+01,-1.696412500000003476e+01,-1.885475000000003476e+01,-1.919850000000003476e+01,-1.905787500000003476e+01,-1.968287500000003476e+01,-2.107350000000003831e+01,-2.169850000000003831e+01,-2.319850000000003831e+01,-2.307350000000003831e+01,-2.207350000000003831e+01,-2.005787500000003831e+01,-1.890162500000003476e+01,-1.771412500000003476e+01,-1.568287500000003476e+01,-1.351100000000003298e+01,-1.121412500000003121e+01,-9.073500000000031207e+00,-6.901625000000029431e+00,-5.620375000000027654e+00,-4.057875000000026766e+00,-3.542250000000026766e+00,-2.401625000000025878e+00,-2.453750000000243792e-01,2.051499999999977231e+00,3.957749999999978563e+00,5.254624999999979451e+00,6.285874999999980339e+00,7.942124999999981227e+00,1.192649999999998300e+01,1.453587499999998656e+01,1.514524999999998656e+01,1.545774999999998656e+01,1.489524999999998656e+01,1.572337499999998656e+01,1.578587499999998656e+01,1.534837499999998656e+01,1.373899999999998478e+01,1.180149999999998478e+01,1.195774999999998478e+01,1.227024999999998478e+01,1.317649999999998656e+01,1.270774999999998656e+01,1.420774999999998656e+01,1.550462499999998656e+01,1.580149999999998656e+01,1.734837499999998656e+01,1.795774999999998656e+01,1.794212499999998656e+01,1.780149999999998656e+01,1.845774999999998656e+01,1.653587499999998656e+01,1.522337499999998656e+01,1.458274999999998656e+01,1.397337499999998656e+01,1.216087499999998300e+01,1.177024999999998300e+01,1.206712499999998478e+01,1.222337499999998478e+01,1.448899999999998656e+01,1.712962499999998656e+01,1.975462499999998656e+01,1.978587499999998656e+01,2.050462499999999011e+01,1.881712499999999011e+01,1.755149999999998656e+01,1.612962499999998656e+01,1.375462499999998656e+01,1.084837499999998300e+01,8.426499999999981227e+00,9.238999999999981227e+00,1.173899999999998300e+01,1.664524999999998656e+01,2.078587499999998656e+01,2.556712499999999011e+01,3.170774999999999721e+01,3.752024999999999721e+01,4.422337500000000432e+01,4.927025000000001853e+01,5.323900000000001853e+01,5.833275000000001853e+01,6.205150000000001853e+01,6.319212500000001853e+01,6.148900000000001853e+01,5.802025000000001853e+01,5.230150000000001853e+01,4.689525000000000432e+01,3.872337500000000432e+01,2.409837499999999011e+01,9.426499999999981227e+00,-3.932875000000026766e+00,-1.893287500000003831e+01,-3.469850000000004542e+01,-5.357350000000005963e+01,-7.701100000000008095e+01,-1.011672500000000809e+02,-1.241516250000001094e+02,-1.487297500000001094e+02,-1.759485000000001378e+02,-2.002922500000001946e+02,-2.217297500000001946e+02,-2.388860000000001946e+02,-2.498235000000001946e+02,-2.571672500000001946e+02,-2.586203750000001946e+02,-2.558078750000001946e+02,-2.495266250000001946e+02,-2.409953750000001946e+02,-2.328547500000001946e+02,-2.252922500000001946e+02,-2.210578750000001946e+02,-2.179485000000001946e+02,-2.192766250000001946e+02,-2.227922500000001946e+02,-2.254016250000001946e+02,-2.315266250000001946e+02,-2.400735000000001946e+02,-2.494797500000001946e+02,-2.574953750000001946e+02,-2.674328750000001946e+02,-2.786203750000001946e+02,-2.897141250000001946e+02,-3.025422500000001946e+02,-3.124641250000001946e+02,-3.176828750000001946e+02,-3.190578750000001946e+02,-3.196985000000001946e+02,-3.167297500000001946e+02,-3.099328750000001946e+02,-3.044641250000001946e+02,-3.020266250000001946e+02,-3.041828750000001946e+02,-3.112610000000001946e+02,-3.229797500000001946e+02,-3.362141250000001946e+02,-3.516203750000001946e+02,-3.671828750000001946e+02,-3.807141250000003083e+02,-3.901203750000003083e+02,-3.937922500000003083e+02,-3.955578750000003083e+02,-3.970266250000003083e+02,-3.982297500000003083e+02,-3.990266250000003083e+02,-4.018703750000003083e+02,-4.052922500000003083e+02,-4.111047500000003083e+02,-4.223703750000003652e+02,-4.327766250000003652e+02,-4.413235000000003652e+02,-4.498391250000003652e+02,-4.575891250000003652e+02,-4.627766250000003652e+02,-4.672610000000003652e+02,-4.699485000000003652e+02,-4.694797500000003652e+02,-4.690266250000003652e+02,-4.685266250000003652e+02,-4.671203750000003652e+02,-4.650578750000003652e+02,-4.643391250000003652e+02,-4.606516250000003652e+02,-4.549172500000003652e+02,-4.491828750000003652e+02,-4.434172500000003652e+02,-4.363703750000003652e+02,-4.280266250000003652e+02,-4.188860000000003652e+02,-4.081672500000003083e+02,-4.011203750000003083e+02,-3.961828750000003083e+02,-3.896828750000003083e+02,-3.828703750000003083e+02,-3.786672500000001946e+02,-3.773547500000001946e+02,-3.797922500000002515e+02,-3.859328750000003083e+02,-3.935735000000003083e+02,-4.011985000000003083e+02,-4.099485000000003083e+02,-4.193391250000003083e+02,-4.276047500000003652e+02,-4.343703750000003652e+02,-4.387922500000003652e+02,-4.389797500000003652e+02,-4.357141250000003652e+02,-4.342610000000003652e+02,-4.352453750000003652e+02,-4.359328750000003652e+02,-4.364641250000003652e+02,-4.369953750000003652e+02,-4.377141250000003652e+02,-4.422453750000003652e+02,-4.499172500000003652e+02,-4.557453750000003652e+02,-4.595735000000003652e+02,-4.633860000000003652e+02,-4.672297500000003652e+02,-4.710578750000003652e+02,-4.748078750000003652e+02,-4.766516250000003652e+02,-4.766828750000003652e+02,-4.766672500000003652e+02,-4.766516250000003652e+02,-4.766516250000003652e+02,-4.766203750000003652e+02,-4.766360000000003652e+02,-4.766047500000003652e+02,-4.765891250000003652e+02,-4.766047500000003652e+02,-4.766360000000003652e+02,-4.766516250000003652e+02,-4.766203750000003652e+02,-4.766203750000003652e+02,-4.765735000000003652e+02,-4.765735000000003652e+02,-4.765422500000003652e+02,-4.764953750000003652e+02,-4.764485000000003652e+02,-4.764485000000003652e+02,-4.764797500000003652e+02,-4.764953750000003652e+02,-4.754172500000003652e+02,-4.725735000000003652e+02,-4.687922500000003652e+02,-4.614016250000003652e+02,-4.507922500000003652e+02,-4.387141250000003083e+02,-4.240578750000003083e+02,-4.067610000000003083e+02,-3.887453750000003083e+02,-3.700735000000001946e+02,-3.495735000000001946e+02,-3.327610000000001946e+02,-3.191672500000001946e+02,-3.056047500000001946e+02,-2.923235000000001946e+02,-2.790422500000001946e+02,-2.667141250000001946e+02,-2.560891250000001946e+02,-2.469953750000001946e+02,-2.352766250000001946e+02,-2.218860000000001946e+02,-2.061985000000001946e+02,-1.913391250000001946e+02,-1.785266250000001378e+02,-1.631672500000001094e+02,-1.470110000000001094e+02,-1.290891250000001094e+02,-1.121672500000001094e+02,-9.390162500000009516e+01,-7.888600000000008095e+01,-6.379225000000006673e+01,-4.691725000000005252e+01,-3.263600000000004542e+01,-1.715162500000003476e+01,-4.042250000000027654e+00,9.004624999999981227e+00,2.094212499999999011e+01,3.428587499999999721e+01,4.791087500000000432e+01,6.006712500000001853e+01,7.300462500000001853e+01,8.334837500000003274e+01,9.359837500000006116e+01,1.025515000000000612e+02,1.104421250000000612e+02,1.182858750000000612e+02,1.240515000000000612e+02,1.298483750000000612e+02,1.353483750000000612e+02,1.418327500000000612e+02,1.482390000000000612e+02,1.554265000000000612e+02,1.621921250000000612e+02,1.658483750000000612e+02,1.702858750000000612e+02,1.740827500000000612e+02,1.763327500000000612e+02,1.771452500000000612e+02,1.792233750000000612e+02,1.806608750000000612e+02,1.818015000000000612e+02,1.868952500000000896e+02,1.926140000000001180e+02,1.999265000000001464e+02,2.085358750000001464e+02,2.185983750000001464e+02,2.273483750000001464e+02,2.375515000000001464e+02,2.473171250000001464e+02,2.537390000000001464e+02,2.593483750000001464e+02,2.635358750000001464e+02,2.661452500000001464e+02,2.682390000000001464e+02,2.713952500000001464e+02,2.731452500000001464e+02,2.763327500000001464e+02,2.822233750000001464e+02,2.892702500000001464e+02,2.975046250000001464e+02,3.078483750000001464e+02,3.191296250000001464e+02,3.283015000000001464e+02,3.377233750000001464e+02,3.464733750000001464e+02,3.514265000000001464e+02,3.545515000000001464e+02,3.531452500000001464e+02,3.500827500000001464e+02,3.441608750000001464e+02,3.379108750000001464e+02,3.304265000000001464e+02,3.213015000000001464e+02,3.148796250000001464e+02,3.076296250000001464e+02,3.048796250000001464e+02,3.023171250000001464e+02,3.013483750000001464e+02,3.035358750000001464e+02,3.066765000000001464e+02,3.131765000000001464e+02,3.200046250000001464e+02,3.285827500000001464e+02,3.344108750000001464e+02,3.405046250000001464e+02,3.473015000000001464e+02,3.521140000000001464e+02,3.578483750000001464e+02,3.612858750000001464e+02,3.647077500000001464e+02,3.691140000000001464e+02,3.778015000000002033e+02,3.883171250000002601e+02,4.004421250000002601e+02,4.138640000000003170e+02,4.273015000000003738e+02,4.431765000000003738e+02,4.585202500000003738e+02,4.742390000000003738e+02,4.872702500000003738e+02,4.981921250000003738e+02,5.065515000000003738e+02,5.134108750000003738e+02,5.190046250000003738e+02,5.223171250000003738e+02,5.249265000000003738e+02,5.255827500000003738e+02,5.257858750000003738e+02,5.258640000000003738e+02,5.259108750000003738e+02,5.259421250000003738e+02,5.259421250000003738e+02,5.258952500000003738e+02,5.258327500000003738e+02,5.257546250000003738e+02,5.256452500000003738e+02,5.255358750000003738e+02,5.254421250000003738e+02,5.253327500000003738e+02,5.252390000000003738e+02,5.251608750000003738e+02,5.250983750000003738e+02,5.250515000000003738e+02,5.249890000000003738e+02,5.249265000000003738e+02,5.248327500000003738e+02,5.245671250000003738e+02,5.237233750000003738e+02,5.227546250000003738e+02,5.216608750000003738e+02,5.205358750000003738e+02,5.194421250000003738e+02,5.183952500000003738e+02,5.174265000000003738e+02,5.168483750000003738e+02,5.174108750000003738e+02,5.182233750000003738e+02,5.192858750000003738e+02,5.204265000000003738e+02,5.215671250000003738e+02,5.226608750000003738e+02,5.236765000000003738e+02,5.244733750000003738e+02,5.247077500000003738e+02,5.247858750000003738e+02,5.247546250000003738e+02,5.246921250000003738e+02,5.246608750000003738e+02,5.246765000000003738e+02,5.247546250000003738e+02,5.248483750000003738e+02,5.249577500000003738e+02,5.250983750000003738e+02,5.251921250000003738e+02,5.252546250000003738e+02,5.252702500000003738e+02,5.252546250000003738e+02,5.252233750000003738e+02,5.252077500000003738e+02,5.251921250000003738e+02,5.252233750000003738e+02,5.253171250000003738e+02,5.254421250000003738e+02,5.256140000000003738e+02,5.257702500000003738e+02,5.258796250000003738e+02,5.259265000000003738e+02,5.259421250000003738e+02,5.258483750000003738e+02,5.256765000000003738e+02,5.254265000000003738e+02,5.251140000000003738e+02,5.248171250000003738e+02,5.245671250000003738e+02,5.244108750000003738e+02,5.243015000000003738e+02,5.243483750000003738e+02,5.245046250000003738e+02,5.248015000000003738e+02,5.251765000000003738e+02,5.255827500000003738e+02,5.259890000000003738e+02,5.263483750000003738e+02,5.266608750000003738e+02,5.268483750000003738e+02,5.269577500000003738e+02,5.269733750000003738e+02,5.269421250000003738e+02,5.268796250000003738e+02,5.268171250000003738e+02,5.267546250000003738e+02,5.267233750000003738e+02,5.267390000000003738e+02,5.267858750000003738e+02,5.268640000000003738e+02,5.269421250000003738e+02,5.270046250000003738e+02,5.270515000000003738e+02,5.271140000000003738e+02,5.271765000000003738e+02,5.272233750000003738e+02,5.272546250000003738e+02,5.272702500000003738e+02,5.272858750000003738e+02,5.273483750000003738e+02,5.274108750000003738e+02,5.274890000000003738e+02,5.275515000000003738e+02,5.276140000000003738e+02,5.276765000000003738e+02,5.277233750000003738e+02,5.277702500000003738e+02,5.277702500000003738e+02,5.277702500000003738e+02,5.277077500000003738e+02,5.276296250000003738e+02,5.275358750000003738e+02,5.274265000000003738e+02,5.273327500000003738e+02,5.272233750000003738e+02,5.271140000000003738e+02,5.269733750000003738e+02,5.268327500000003738e+02,5.266921250000003738e+02,5.265515000000003738e+02,5.264108750000003738e+02,5.262390000000003738e+02,5.253952500000003738e+02,5.239733750000003738e+02,5.205827500000003738e+02,5.163483750000003738e+02,5.114108750000003738e+02,5.044108750000003738e+02,4.946452500000003738e+02,4.815202500000003738e+02,4.680671250000003738e+02,4.547702500000003738e+02,4.438327500000003738e+02,4.335983750000003738e+02,4.227390000000003738e+02,4.132858750000003738e+02,4.071452500000003170e+02,4.045046250000003170e+02,4.014577500000003170e+02,3.953015000000002601e+02,3.865515000000002601e+02,3.757077500000001464e+02,3.643327500000001464e+02,3.530515000000001464e+02,3.385046250000001464e+02,3.219577500000001464e+02,3.059265000000001464e+02,2.923327500000001464e+02,2.781921250000001464e+02,2.632858750000001464e+02,2.473640000000001464e+02,2.289421250000001464e+02,2.120046250000001464e+02,1.950202500000001464e+02,1.772390000000000896e+02,1.587233750000000612e+02,1.424890000000000612e+02,1.274421250000000612e+02,1.142858750000000612e+02,1.038640000000000612e+02,9.325462500000006116e+01,8.445775000000003274e+01,7.492650000000001853e+01,6.637962500000001853e+01,5.658275000000001853e+01,4.659837500000000432e+01,3.645774999999999721e+01,2.286399999999999011e+01,9.020249999999981227e+00,-7.964125000000029431e+00,-2.421412500000003831e+01,-4.299537500000005252e+01,-6.224537500000006673e+01,-8.108912500000008095e+01,-1.008547500000000952e+02,-1.187922500000001094e+02,-1.385578750000001094e+02,-1.563391250000001094e+02,-1.741047500000001378e+02,-1.894485000000001946e+02,-2.037141250000001946e+02,-2.168547500000001946e+02,-2.283703750000001946e+02,-2.373547500000001946e+02,-2.427922500000001946e+02,-2.487610000000001946e+02,-2.543391250000001946e+02,-2.597922500000001946e+02,-2.653391250000001946e+02,-2.706203750000001946e+02,-2.759641250000001946e+02,-2.829172500000001946e+02,-2.906203750000001946e+02,-2.961360000000001946e+02,-3.014953750000001946e+02,-3.057610000000001946e+02,-3.095735000000001946e+02,-3.142766250000001946e+02,-3.210110000000001946e+02,-3.269641250000001946e+02,-3.326672500000001946e+02,-3.395578750000001946e+02,-3.464641250000001946e+02,-3.544172500000001946e+02,-3.611828750000001946e+02,-3.687766250000001946e+02,-3.745422500000001946e+02,-3.817141250000003083e+02,-3.896672500000003083e+02,-3.984016250000003083e+02,-4.064953750000003083e+02,-4.153078750000003083e+02,-4.263078750000003652e+02,-4.353391250000003652e+02,-4.440422500000003652e+02,-4.517922500000003652e+02,-4.586672500000003652e+02,-4.639641250000003652e+02,-4.687453750000003652e+02,-4.720266250000003652e+02,-4.735266250000003652e+02,-4.750422500000003652e+02,-4.761516250000003652e+02,-4.765266250000003652e+02,-4.765266250000003652e+02,-4.765110000000003652e+02,-4.765110000000003652e+02,-4.764953750000003652e+02,-4.764797500000003652e+02,-4.764953750000003652e+02,-4.765266250000003652e+02,-4.765891250000003652e+02,-4.766516250000003652e+02,-4.766985000000003652e+02,-4.767297500000003652e+02,-4.767610000000003652e+02,-4.767922500000003652e+02,-4.767766250000003652e+02,-4.767453750000003652e+02,-4.766985000000003652e+02,-4.766672500000003652e+02,-4.766828750000003652e+02,-4.766672500000003652e+02,-4.766516250000003652e+02,-4.766360000000003652e+02,-4.766516250000003652e+02,-4.767141250000003652e+02,-4.767766250000003652e+02,-4.768078750000003652e+02,-4.767922500000003652e+02,-4.768078750000003652e+02,-4.768078750000003652e+02,-4.768078750000003652e+02,-4.767610000000003652e+02,-4.766672500000003652e+02,-4.765735000000003652e+02,-4.764953750000003652e+02,-4.764328750000003652e+02,-4.763860000000003652e+02,-4.763703750000003652e+02,-4.763547500000003652e+02,-4.764016250000003652e+02,-4.764485000000003652e+02,-4.764953750000003652e+02,-4.765422500000003652e+02,-4.765891250000003652e+02,-4.766203750000003652e+02,-4.766360000000003652e+02,-4.766516250000003652e+02,-4.766203750000003652e+02,-4.766203750000003652e+02,-4.766203750000003652e+02,-4.766203750000003652e+02,-4.766203750000003652e+02,-4.766203750000003652e+02,-4.766203750000003652e+02,-4.766203750000003652e+02,-4.766516250000003652e+02,-4.762141250000003652e+02,-4.757766250000003652e+02,-4.746828750000003652e+02,-4.719953750000003652e+02,-4.691828750000003652e+02,-4.654797500000003652e+02,-4.609641250000003652e+02,-4.535891250000003652e+02,-4.452922500000003652e+02,-4.360110000000003652e+02,-4.265578750000003652e+02,-4.184328750000003652e+02,-4.089953750000003083e+02,-3.982141250000003083e+02,-3.856985000000003083e+02,-3.757141250000001946e+02,-3.667141250000001946e+02,-3.559797500000001946e+02,-3.441360000000001946e+02,-3.298860000000001946e+02,-3.146985000000001946e+02,-2.995891250000001946e+02,-2.855891250000001946e+02,-2.704328750000001946e+02,-2.527766250000001946e+02,-2.355110000000001946e+02,-2.177610000000001946e+02,-2.018235000000001946e+02,-1.856360000000001662e+02,-1.713391250000001378e+02,-1.568547500000001094e+02,-1.420266250000001094e+02,-1.295422500000001094e+02,-1.186360000000001094e+02,-1.095266250000001094e+02,-1.008235000000001094e+02,-9.449537500000009516e+01,-8.668287500000008095e+01,-8.060475000000006673e+01,-7.635475000000006673e+01,-7.096412500000006673e+01,-6.569850000000006673e+01,-6.072975000000006673e+01,-5.437037500000006673e+01,-4.721412500000005963e+01,-4.035475000000005252e+01,-3.054225000000004542e+01,-1.865162500000003831e+01,-6.354750000000028543e+00,7.676499999999981227e+00,2.373899999999999011e+01,4.020775000000000432e+01,5.764525000000001853e+01,7.566087500000003274e+01,9.170775000000003274e+01,1.077077500000000612e+02,1.221452500000000612e+02,1.355358750000000612e+02,1.486921250000000612e+02,1.599421250000000612e+02,1.705671250000000612e+02,1.786140000000000896e+02,1.855827500000000896e+02,1.907077500000001180e+02,1.956296250000001464e+02,1.979421250000001464e+02,1.966921250000001464e+02,1.932233750000001464e+02,1.853483750000000896e+02,1.770046250000000896e+02,1.673640000000000896e+02,1.544108750000000612e+02,1.386608750000000612e+02,1.210515000000000612e+02,1.020515000000000470e+02,8.442650000000003274e+01,6.939525000000001853e+01,5.386400000000001143e+01,4.130150000000000432e+01,3.280149999999999721e+01,2.836399999999999721e+01,3.017649999999999721e+01,3.655149999999999721e+01,4.492650000000000432e+01,5.614525000000001853e+01,7.061400000000001853e+01,8.294212500000003274e+01,9.667650000000004695e+01,1.092858750000000612e+02,1.199890000000000612e+02,1.301608750000000612e+02,1.397546250000000612e+02,1.464108750000000612e+02,1.524577500000000612e+02,1.595827500000000612e+02,1.626608750000000612e+02,1.645046250000000612e+02,1.620202500000000612e+02,1.558640000000000612e+02,1.472546250000000612e+02,1.377546250000000612e+02,1.251765000000000612e+02,1.103327500000000612e+02,9.620775000000006116e+01,8.297337500000003274e+01,7.316087500000001853e+01,6.748900000000001853e+01,6.247337500000001853e+01,5.947337500000001853e+01,5.905150000000001853e+01,6.223900000000001853e+01,6.714525000000001853e+01,7.097337500000001853e+01,7.505150000000001853e+01,7.602025000000001853e+01,7.878587500000001853e+01,7.980150000000001853e+01,7.797337500000001853e+01,7.284837500000001853e+01,6.523900000000001853e+01,5.870775000000001853e+01,5.100462500000001853e+01,4.623900000000000432e+01,4.037962500000000432e+01,3.761399999999999721e+01,4.027025000000000432e+01,4.625462500000001143e+01,5.714525000000001853e+01,6.947337500000001853e+01,8.392650000000003274e+01,9.769212500000004695e+01,1.130515000000000612e+02,1.261452500000000612e+02,1.347390000000000612e+02,1.402702500000000612e+02,1.406921250000000612e+02,1.379733750000000612e+02,1.318952500000000612e+02,1.232077500000000612e+02,1.117546250000000612e+02,9.855150000000006116e+01,8.547337500000003274e+01,7.372337500000001853e+01,6.389525000000001853e+01,5.448900000000001853e+01,4.623900000000001143e+01,3.903587500000000432e+01,3.155149999999999721e+01,2.556712499999999011e+01,2.031712499999999011e+01,1.450462499999998478e+01,7.832749999999981227e+00,1.942124999999977231e+00,-2.526625000000025434e+00,-5.761000000000027654e+00,-7.276625000000029431e+00,-7.604750000000029431e+00,-7.229750000000029431e+00,-6.573500000000028543e+00,-3.307875000000026322e+00,1.582749999999976787e+00,7.676499999999980339e+00,1.417649999999998478e+01,2.209837499999999011e+01,3.050462499999999721e+01,4.017650000000000432e+01,5.231712500000000432e+01,6.316087500000001853e+01,7.358275000000001853e+01,8.222337500000003274e+01,9.122337500000004695e+01,9.917650000000006116e+01,1.070671250000000612e+02,1.143796250000000612e+02,1.188796250000000612e+02,1.224108750000000612e+02,1.258483750000000612e+02,1.294890000000000612e+02,1.312702500000000612e+02,1.334890000000000612e+02,1.345202500000000612e+02,1.347077500000000612e+02,1.366765000000000612e+02,1.399421250000000612e+02,1.429108750000000612e+02,1.456608750000000612e+02,1.487077500000000612e+02,1.503483750000000612e+02,1.528483750000000612e+02,1.543327500000000612e+02,1.536765000000000612e+02,1.517858750000000612e+02,1.491140000000000612e+02,1.464108750000000612e+02,1.442077500000000612e+02,1.425202500000000612e+02,1.401765000000000612e+02,1.388483750000000612e+02,1.379890000000000612e+02,1.389265000000000612e+02,1.398483750000000612e+02,1.410358750000000612e+02,1.424421250000000612e+02,1.435202500000000612e+02,1.443640000000000612e+02,1.455983750000000612e+02,1.479733750000000612e+02,1.478327500000000612e+02,1.487077500000000612e+02,1.479421250000000612e+02,1.467077500000000612e+02,1.453327500000000612e+02,1.427702500000000612e+02,1.390515000000000612e+02,1.330983750000000612e+02,1.278796250000000612e+02,1.200046250000000612e+02,1.126140000000000612e+02,1.027390000000000612e+02,9.236400000000004695e+01,8.173900000000003274e+01,7.067650000000001853e+01,6.069212500000001853e+01,4.959837500000001143e+01,4.030150000000000432e+01,3.028587499999999721e+01,2.269212499999999011e+01,1.589524999999998656e+01,1.019212499999998300e+01,5.051499999999980339e+00,-4.953750000000242126e-01,-5.151625000000027654e+00,-1.032350000000003121e+01,-1.349537500000003298e+01,-1.738600000000003476e+01,-2.247975000000003831e+01,-2.651100000000004542e+01,-3.137037500000004542e+01,-3.618287500000004542e+01,-3.958912500000005252e+01,-4.352662500000005252e+01,-4.862037500000006673e+01,-5.327662500000006673e+01,-5.712037500000006673e+01,-6.274537500000006673e+01,-6.757350000000006673e+01,-7.213600000000006673e+01,-7.899537500000006673e+01,-8.426100000000006673e+01,-8.999537500000008095e+01,-9.618287500000010937e+01,-1.020266250000001094e+02,-1.076047500000001094e+02,-1.124797500000001094e+02,-1.171985000000001094e+02,-1.205578750000001094e+02,-1.246672500000001094e+02,-1.278860000000001094e+02,-1.304016250000001094e+02,-1.336828750000001094e+02,-1.360735000000001094e+02,-1.397922500000001094e+02,-1.428235000000001094e+02,-1.461672500000001094e+02,-1.496047500000001094e+02,-1.532610000000001094e+02,-1.561672500000001094e+02,-1.580110000000001094e+02,-1.601985000000001094e+02,-1.607766250000001094e+02,-1.623391250000001094e+02,-1.636203750000001094e+02,-1.644328750000001094e+02,-1.646828750000001094e+02,-1.657922500000001094e+02,-1.670578750000001094e+02,-1.680266250000001094e+02,-1.696360000000001094e+02,-1.697297500000001094e+02,-1.685422500000001094e+02,-1.684328750000001094e+02,-1.681047500000001094e+02,-1.682453750000001094e+02,-1.683078750000001094e+02,-1.671828750000001094e+02,-1.660422500000001094e+02,-1.665422500000001094e+02,-1.692453750000001094e+02,-1.707453750000001094e+02,-1.724485000000001094e+02,-1.728860000000001094e+02,-1.739172500000001094e+02,-1.764328750000001094e+02,-1.785578750000001094e+02,-1.790735000000001094e+02,-1.782453750000001094e+02,-1.743547500000001094e+02,-1.682610000000001094e+02,-1.603078750000001094e+02,-1.487922500000001094e+02,-1.334641250000001094e+02,-1.150422500000001094e+02,-9.468287500000008095e+01
3.765625000000002220e+00,1.631250000000001066e+01,2.306250000000001776e+01,2.689062500000002132e+01,2.248437500000001776e+01,1.842187500000001421e+01,1.389062500000000888e+01,6.312500000000005329e+00,2.640625000000001776e+00,-4.187500000000001776e+00,-8.140625000000003553e+00,-5.843750000000003553e+00,-5.875000000000003553e+00,2.093750000000001332e+00,5.375000000000002665e+00,2.609375000000001776e+00,3.609375000000002220e+00,-4.218750000000002665e+00,-5.375000000000003553e+00,-2.156250000000001776e+00,-3.609375000000002665e+00,2.203125000000001332e+00,3.406250000000002220e+00,3.968750000000002665e+00,6.593750000000004441e+00,4.593750000000003553e+00,4.171875000000002665e+00,-4.531250000000004441e-01,-3.390625000000002665e+00,-3.718750000000002665e+00,-7.250000000000005329e+00,-5.000000000000003553e+00,-3.078125000000002220e+00,-3.500000000000002665e+00,3.312500000000001776e+00,7.500000000000005329e+00,7.953125000000005329e+00,1.014062500000000711e+01,5.187500000000003553e+00,-5.625000000000003331e-01,-3.750000000000002665e+00,-6.296875000000004441e+00,-7.015625000000005329e+00,-6.859375000000004441e+00,-3.750000000000002665e+00,-4.609375000000003553e+00,-2.406250000000001776e+00,1.328125000000000888e+00,-3.750000000000002220e-01,3.546875000000002665e+00,5.406250000000003553e+00,3.078125000000001776e+00,3.687500000000002665e+00,2.031250000000001332e+00,-1.578125000000000888e+00,1.265625000000000444e+00,4.234375000000001776e+00,2.609375000000000888e+00,2.765625000000001332e+00,-5.062500000000004441e+00,-1.229687500000000711e+01,-1.056250000000000711e+01,-6.687500000000005329e+00,5.187500000000003553e+00,1.426562500000001066e+01,1.492187500000001066e+01,1.017187500000000711e+01,3.124999999999955591e-02,-8.640625000000007105e+00,-1.231250000000000888e+01,-8.468750000000005329e+00,-3.796875000000002220e+00,1.546875000000001332e+00,6.890625000000005329e+00,4.656250000000003553e+00,3.687500000000002220e+00,3.171875000000002220e+00,-2.828125000000002220e+00,-3.500000000000002665e+00,-4.062500000000002665e+00,-6.437500000000004441e+00,-5.625000000000004441e-01,1.125000000000000444e+00,2.968750000000000000e-01,1.265625000000000888e+00,-4.796875000000003553e+00,-6.140625000000004441e+00,-1.437500000000000888e+00,5.156250000000001110e-01,6.875000000000005329e+00,8.765625000000007105e+00,1.234375000000001110e+00,-1.765625000000000444e+00,-5.843750000000002665e+00,-7.109375000000003553e+00,1.484375000000000888e+00,4.062500000000002665e+00,2.843750000000001776e+00,2.296875000000001332e+00,-5.359375000000003553e+00,-6.140625000000003553e+00,-3.125000000000003886e-01,8.906250000000004441e-01,6.906250000000005329e+00,6.593750000000005329e+00,2.781250000000001776e+00,4.015625000000003553e+00,-2.343750000000000000e-01,5.781250000000000000e-01,-1.125000000000001332e+00,-3.812500000000003109e+00,-1.968750000000001554e+00,-4.781250000000003553e+00,-1.125000000000000888e+00,-1.218750000000000888e+00,-1.906250000000001332e+00,2.671875000000001776e+00,1.874999999999997780e-01,2.515625000000001332e+00,4.281250000000002665e+00,2.343749999999998335e-01,1.375000000000000888e+00,-2.812500000000000000e-01,-1.484375000000000888e+00,2.015625000000001332e+00,2.281250000000001776e+00,3.640625000000002220e+00,1.640625000000000888e+00,-3.531250000000002665e+00,-6.640625000000004441e+00,-9.734375000000007105e+00,-8.500000000000005329e+00,-3.765625000000001776e+00,7.968750000000009992e-01,6.515625000000004441e+00,1.167187500000000711e+01,1.473437500000001066e+01,1.493750000000001066e+01,7.921875000000004441e+00,-2.078125000000002665e+00,-1.604687500000001066e+01,-2.375000000000001421e+01,-1.912500000000001066e+01,-1.225000000000000711e+01,3.593750000000002665e+00,1.107812500000000711e+01,7.109375000000003553e+00,4.593750000000002665e+00,-6.218750000000005329e+00,-9.484375000000007105e+00,-2.468750000000001332e+00,1.500000000000001332e+00,8.906250000000007105e+00,1.350000000000001066e+01,7.609375000000006217e+00,5.687500000000003553e+00,9.531250000000007105e+00,1.006250000000000711e+01,1.746875000000001066e+01,1.814062500000001421e+01,5.640625000000002665e+00,-5.000000000000009992e-01,-8.015625000000005329e+00,-7.078125000000004441e+00,4.062500000000003553e+00,1.106250000000000888e+01,2.081250000000001421e+01,2.059375000000001421e+01,1.689062500000001066e+01,1.053125000000000533e+01,-7.750000000000005329e+00,-1.721875000000001066e+01,-2.971875000000001421e+01,-3.712500000000002132e+01,-3.037500000000002132e+01,-2.840625000000001776e+01,-1.814062500000001066e+01,-9.515625000000007105e+00,-5.671875000000003553e+00,9.843750000000005551e-01,3.343750000000001776e+00,8.718750000000007105e+00,1.354687500000001066e+01,1.956250000000001421e+01,2.364062500000001421e+01,2.009375000000001066e+01,1.139062500000000711e+01,-3.484375000000002220e+00,-1.625000000000000711e+01,-1.971875000000001421e+01,-8.578125000000005329e+00,9.734375000000005329e+00,2.660937500000001421e+01,3.289062500000002132e+01,1.871875000000001066e+01,-6.859375000000006217e+00,-3.645312500000002842e+01,-5.695312500000004263e+01,-5.675000000000004263e+01,-3.678125000000002842e+01,-5.156250000000017764e-01,3.707812500000002132e+01,5.995312500000003553e+01,6.360937500000004263e+01,4.656250000000002842e+01,1.590625000000001066e+01,-1.129687500000000711e+01,-3.045312500000001776e+01,-3.801562500000002132e+01,-2.967187500000001421e+01,-1.764062500000001066e+01,-7.968750000000006217e+00,1.921875000000001554e+00,2.015625000000001776e+00,7.812500000000006661e-01,9.453125000000007105e+00,1.210937500000000711e+01,1.759375000000001066e+01,2.084375000000001421e+01,7.171875000000004441e+00,-1.546875000000001332e+00,-9.437500000000005329e+00,-1.660937500000001066e+01,-1.192187500000000711e+01,-9.921875000000007105e+00,-8.812500000000005329e+00,-6.250000000000003553e+00,-6.656250000000004441e+00,-2.359375000000001776e+00,2.390625000000001332e+00,6.171875000000003553e+00,8.921875000000005329e+00,3.703125000000002220e+00,-5.109375000000003553e+00,-1.546875000000001066e+01,-2.264062500000001421e+01,-2.128125000000001066e+01,-8.578125000000003553e+00,1.007812500000000711e+01,2.193750000000001421e+01,2.453125000000001776e+01,1.129687500000000533e+01,-9.640625000000008882e+00,-2.014062500000001421e+01,-1.782812500000001421e+01,-1.218750000000002665e+00,2.221875000000001421e+01,3.765625000000002132e+01,3.948437500000002842e+01,2.850000000000002132e+01,7.875000000000005329e+00,-1.512500000000001066e+01,-3.079687500000002132e+01,-3.665625000000002132e+01,-2.864062500000001776e+01,-8.718750000000007105e+00,8.343750000000005329e+00,1.889062500000001421e+01,1.612500000000001066e+01,1.718750000000008882e-01,-8.578125000000005329e+00,-8.484375000000005329e+00,-7.656250000000000000e-01,1.439062500000001066e+01,1.817187500000001421e+01,1.078125000000000711e+01,1.421875000000001332e+00,-9.562500000000007105e+00,-1.293750000000000888e+01,-9.218750000000007105e+00,-5.515625000000003553e+00,-1.890625000000001332e+00,-1.718750000000001110e-01,-2.031250000000001665e-01,-9.375000000000008327e-02,-4.687500000000004163e-02,1.562500000000000000e-02,1.093750000000000833e-01,6.250000000000005551e-02,9.375000000000006939e-02,7.812500000000005551e-02,3.125000000000002082e-02,0.000000000000000000e+00,-4.687500000000002776e-02,-7.812500000000005551e-02,-1.406250000000000833e-01,-1.250000000000000833e-01,-1.250000000000000833e-01,-3.125000000000000694e-02,1.093750000000000833e-01,1.875000000000001110e-01,2.500000000000001665e-01,1.562500000000001110e-01,4.687500000000004163e-02,-1.156250000000000666e+00,-4.125000000000001776e+00,-7.906250000000003553e+00,-1.529687500000000711e+01,-2.146875000000001421e+01,-2.198437500000001421e+01,-2.139062500000001421e+01,-9.000000000000007105e+00,6.671875000000003553e+00,1.331250000000000711e+01,2.093750000000001421e+01,1.393750000000001243e+01,5.937500000000018874e-01,-4.687499999999987788e-01,-3.250000000000001332e+00,1.406250000000000888e+00,9.265625000000005329e+00,2.578125000000001332e+00,-2.515625000000002220e+00,-6.796875000000005329e+00,-1.150000000000000711e+01,-5.062500000000003553e+00,-2.046875000000001776e+00,-7.968750000000006661e-01,-1.562500000000002220e-01,-1.750000000000000888e+00,1.562499999999994449e-02,-1.218750000000000666e+00,1.265625000000000222e+00,-3.750000000000004441e-01,-1.031250000000000000e+00,4.343750000000002665e+00,5.625000000000003553e+00,8.890625000000005329e+00,7.593750000000003553e+00,1.859375000000001332e+00,-4.828125000000003553e+00,-7.109375000000005329e+00,-6.359375000000004441e+00,-3.203125000000002220e+00,5.546875000000003553e+00,7.703125000000005329e+00,1.139062500000000711e+01,1.312500000000000711e+01,8.359375000000005329e+00,5.828125000000003553e+00,-1.187500000000001332e+00,-7.859375000000005329e+00,-9.734375000000005329e+00,-7.968750000000004441e+00,-2.750000000000001776e+00,4.312500000000002665e+00,9.171875000000005329e+00,9.640625000000007105e+00,8.828125000000007105e+00,6.156250000000003553e+00,4.093750000000002665e+00,1.406250000000000888e+00,-1.796875000000000888e+00,-4.546875000000002665e+00,-8.687500000000005329e+00,-1.090625000000000711e+01,-9.687500000000007105e+00,-9.750000000000007105e+00,-7.984375000000005329e+00,-1.546875000000000222e+00,-1.718750000000000000e-01,5.687500000000004441e+00,1.260937500000000711e+01,1.056250000000000533e+01,1.276562500000000711e+01,1.001562500000000711e+01,2.718750000000001776e+00,1.062500000000000888e+00,-5.406250000000003553e+00,-9.343750000000007105e+00,-9.406250000000005329e+00,-1.217187500000000711e+01,-7.781250000000006217e+00,-6.078125000000004441e+00,-5.234375000000004441e+00,3.593749999999997780e-01,-1.875000000000004441e-01,5.640625000000003553e+00,1.276562500000000888e+01,1.606250000000001066e+01,2.093750000000001421e+01,1.959375000000001421e+01,1.471875000000001066e+01,7.078125000000006217e+00,1.203125000000000666e+00,-6.687500000000005329e+00,-9.812500000000007105e+00,-8.203125000000005329e+00,-9.703125000000005329e+00,-3.390625000000001776e+00,-4.890625000000002665e+00,-6.421875000000003553e+00,-7.984375000000005329e+00,-1.387500000000001066e+01,-1.025000000000000711e+01,-1.114062500000000711e+01,-3.468750000000002665e+00,5.203125000000002665e+00,8.921875000000005329e+00,2.006250000000001421e+01,1.643750000000001066e+01,7.765625000000005329e+00,-1.046875000000000000e+00,-1.909375000000001421e+01,-2.287500000000001421e+01,-1.725000000000001421e+01,-1.307812500000001421e+01,-2.031250000000071054e-01,1.562499999999990674e+00,-2.812500000000015543e+00,-6.250000000000074385e-01,-2.843750000000001776e+00,4.125000000000008882e+00,1.240625000000002132e+01,1.417187500000001954e+01,1.593750000000001776e+01,1.139062500000001066e+01,6.234375000000003553e+00,3.171875000000001776e+00,6.250000000000003331e-01,9.375000000000005551e-02,7.812500000000005551e-02,6.250000000000004163e-02,2.031250000000001388e-01,2.343750000000001665e-01,2.343750000000001665e-01,2.187500000000001665e-01,3.125000000000003469e-02,-1.562499999999999653e-02,-9.375000000000006939e-02,-1.093750000000000833e-01,4.687500000000002082e-02,3.125000000000001388e-02,6.250000000000002776e-02,1.562500000000000000e-02,-1.718750000000001110e-01,-1.875000000000001388e-01,-1.875000000000001388e-01,-6.250000000000005551e-02,2.187500000000001388e-01,5.468750000000003331e-01,1.328125000000000888e+00,2.046875000000001332e+00,2.640625000000001776e+00,2.640625000000001776e+00,5.468750000000003331e-01,-1.843750000000001332e+00,-4.437500000000003553e+00,-6.171875000000005329e+00,-4.671875000000003553e+00,-2.546875000000002220e+00,1.406249999999998890e-01,2.437500000000001332e+00,2.609375000000001332e+00,2.328125000000001332e+00,1.625000000000000888e+00,8.281250000000004441e-01,4.687500000000002220e-01,2.031250000000001110e-01,-7.812500000000005551e-02,-2.656250000000001665e-01,-3.593750000000002220e-01,-5.000000000000003331e-01,-3.906250000000002220e-01,-2.343750000000001665e-01,-9.375000000000005551e-02,2.656250000000002220e-01,4.218750000000003331e-01,4.843750000000003331e-01,5.312500000000004441e-01,2.343750000000001943e-01,-4.687500000000001388e-02,-2.812500000000002220e-01,-5.781250000000004441e-01,-5.468750000000003331e-01,-3.906250000000003331e-01,-2.031250000000001665e-01,1.250000000000000833e-01,2.812500000000001665e-01,3.593750000000002220e-01,4.375000000000003331e-01,4.218750000000003331e-01,4.531250000000003331e-01,4.375000000000003331e-01,3.125000000000002220e-01,1.875000000000001110e-01,-7.812500000000004163e-02,-3.281250000000002220e-01,-5.468750000000003331e-01,-8.125000000000005551e-01,-8.593750000000006661e-01,-8.281250000000006661e-01,-6.250000000000004441e-01,-2.500000000000002220e-01,9.375000000000006939e-02,4.375000000000003331e-01,6.406250000000004441e-01,7.031250000000005551e-01,6.406250000000004441e-01,4.687500000000003886e-01,2.656250000000002220e-01,4.687500000000004163e-02,-1.406250000000001110e-01,-2.656250000000002220e-01,-3.281250000000002220e-01,-2.968750000000002220e-01,-1.875000000000001110e-01,-4.687500000000002776e-02,6.250000000000005551e-02,1.093750000000000833e-01,1.093750000000000833e-01,6.250000000000005551e-02,6.250000000000004163e-02,6.250000000000004163e-02,1.562500000000001041e-02,-1.562500000000001041e-02,-9.375000000000006939e-02,-1.093750000000000833e-01,-4.687500000000004163e-02,1.562500000000000347e-02,6.250000000000004163e-02,0.000000000000000000e+00,-6.250000000000004163e-02,-1.250000000000000833e-01,-4.687500000000002776e-02,1.562500000000001110e-01,2.812500000000002220e-01,4.062500000000003331e-01,2.812500000000002220e-01,4.687500000000005551e-02,-1.093750000000000694e-01,-2.500000000000001665e-01,-1.562500000000000833e-01,1.562500000000000347e-02,1.250000000000000833e-01,2.031250000000001665e-01,1.562500000000001110e-01,4.687500000000004857e-02,6.938893903907229918e-18,-4.687500000000004163e-02,-6.250000000000005551e-02,6.562500000000003331e-01,1.890625000000000888e+00,5.156250000000003553e+00,9.265625000000008882e+00,1.132812500000001421e+01,1.320312500000002132e+01,9.843750000000021316e+00,6.468750000000011546e+00,6.046875000000003553e+00,1.781249999999993561e+00,3.124999999998501199e-02,-9.109375000000015987e+00,-2.143750000000002132e+01,-2.492187500000002132e+01,-2.403125000000001421e+01,-7.078125000000002665e+00,1.278125000000000711e+01,2.456250000000001421e+01,3.193750000000002132e+01,2.296875000000001421e+01,1.171875000000000888e+01,6.250000000000177636e-02,-1.239062500000000711e+01,-1.390625000000001066e+01,-1.493750000000001066e+01,-6.218750000000003553e+00,5.109375000000002665e+00,9.765625000000005329e+00,1.831250000000001066e+01,1.504687500000001066e+01,8.046875000000007105e+00,3.968750000000005329e+00,-1.012500000000000533e+01,-1.704687500000001066e+01,-1.787500000000001066e+01,-1.839062500000001066e+01,-5.234375000000003553e+00,3.687500000000001776e+00,7.421875000000004441e+00,8.218750000000005329e+00,-3.000000000000002220e+00,-7.703125000000005329e+00,-9.531250000000007105e+00,-3.171875000000001776e+00,1.034375000000000711e+01,1.775000000000001421e+01,2.253125000000001421e+01,1.482812500000001066e+01,4.515625000000003553e+00,-5.453125000000003553e+00,-1.182812500000000888e+01,-7.921875000000007105e+00,-3.406250000000003997e+00,3.093750000000000888e+00,6.171875000000003553e+00,3.140625000000001776e+00,-1.093750000000000444e+00,-5.875000000000003553e+00,-1.167187500000000711e+01,-1.309375000000000711e+01,-1.339062500000000711e+01,-1.409375000000001066e+01,-8.906250000000007105e+00,-5.562500000000003553e+00,-4.218750000000008882e-01,8.593750000000005329e+00,1.295312500000000711e+01,1.417187500000000888e+01,9.890625000000005329e+00,-2.406250000000002220e+00,-1.426562500000000888e+01,-1.912500000000001421e+01,-1.545312500000001066e+01,-4.062500000000001776e+00,9.250000000000007105e+00,1.670312500000001066e+01,1.500000000000001066e+01,8.890625000000007105e+00,-9.375000000000044409e-02,-7.140625000000004441e+00,-8.609375000000005329e+00,-7.468750000000005329e+00,-3.640625000000002665e+00,1.515625000000001110e+00,4.843750000000003553e+00,5.890625000000003553e+00,7.343750000000004441e+00,4.515625000000002665e+00,2.796875000000001332e+00,1.984375000000001110e+00,-2.890625000000001776e+00,-3.234375000000002665e+00,-4.843750000000003553e+00,-6.968750000000004441e+00,-5.843750000000003553e+00,-6.359375000000003553e+00,-5.953125000000003553e+00,-4.296875000000002665e+00,-2.921875000000001776e+00,-1.593750000000001110e+00,-5.468750000000004441e-01,-1.718750000000001110e-01,-1.718750000000001110e-01,-6.250000000000004163e-02,0.000000000000000000e+00,1.093750000000000833e-01,2.187500000000001665e-01,2.343750000000001665e-01,2.031250000000001388e-01,7.812500000000005551e-02,-4.687500000000004163e-02,-1.875000000000001665e-01,-2.187500000000001665e-01,-1.875000000000001388e-01,-1.562500000000001110e-01,1.562500000000000694e-02,4.687500000000002776e-02,6.250000000000004163e-02,9.375000000000006939e-02,-1.562500000000001041e-02,3.125000000000002082e-02,7.812500000000005551e-02,6.250000000000005551e-02,7.812500000000006939e-02,1.562500000000001735e-02,-4.687500000000002776e-02,-1.562500000000001041e-02,3.125000000000002082e-02,-1.562500000000001041e-02,-7.812500000000005551e-02,-2.031250000000001388e-01,-3.125000000000002220e-01,-2.187500000000001110e-01,-6.250000000000004163e-02,1.093750000000000833e-01,2.968750000000002220e-01,3.125000000000002220e-01,2.343750000000001665e-01,1.562500000000001110e-01,1.562500000000001388e-02,-6.250000000000005551e-02,-7.812500000000005551e-02,-9.375000000000008327e-02,-1.093750000000000833e-01,-7.812500000000005551e-02,-6.250000000000005551e-02,-4.687500000000004163e-02,4.687500000000004163e-02,4.687500000000004163e-02,4.687500000000004163e-02,4.687500000000004163e-02,-1.562500000000001041e-02,-1.562500000000001041e-02,-1.562500000000001041e-02,-1.562500000000001041e-02,1.562500000000001041e-02,-4.218750000000003331e-01,-8.593750000000006661e-01,-1.953125000000001332e+00,-4.703125000000002665e+00,-5.765625000000003553e+00,-7.718750000000004441e+00,-7.859375000000004441e+00,-4.359375000000002665e+00,-4.906250000000003553e+00,-2.875000000000002220e+00,-3.015625000000002665e+00,-3.328125000000003109e+00,3.171875000000001332e+00,5.140625000000003553e+00,7.437500000000005329e+00,3.453125000000002665e+00,-7.421875000000003553e+00,-1.184375000000000711e+01,-1.256250000000000711e+01,-6.687500000000004441e+00,1.937500000000000888e+00,4.390625000000001776e+00,7.031249999999993339e-01,-3.703125000000003553e+00,-6.359375000000004441e+00,-4.625000000000003553e+00,1.875000000000001332e+00,4.937500000000003553e+00,5.562500000000003553e+00,4.765625000000003553e+00,2.468750000000002220e+00,2.640625000000002665e+00,6.281250000000005329e+00,6.562500000000005329e+00,6.765625000000003553e+00,8.375000000000003553e+00,2.921875000000001332e+00,2.859375000000001776e+00,2.406250000000000888e+00,-2.656250000000001776e+00,-6.093750000000000000e-01,-1.312500000000000666e+00,-2.531250000000001332e+00,-5.781250000000002220e-01,-1.921875000000001332e+00,-4.593750000000003553e+00,-7.656250000000004441e+00,-9.921875000000005329e+00,-1.265625000000000711e+01,-1.218750000000000711e+01,-6.250000000000005329e+00,-2.718750000000002665e+00,4.093750000000003553e+00,9.015625000000005329e+00,6.468750000000004441e+00,6.718750000000005329e+00,3.968750000000002665e+00,2.265625000000001332e+00,4.296875000000002665e+00,4.546875000000002665e+00,4.046875000000002665e+00,3.250000000000002220e+00,5.031250000000003553e+00,5.656250000000003553e+00,1.129687500000000711e+01,1.498437500000001066e+01,1.142187500000000711e+01,1.239062500000000711e+01,8.703125000000007105e+00,7.046875000000005329e+00,1.256250000000000888e+01,1.089062500000000711e+01,7.703125000000005329e+00,5.937500000000004441e+00,-5.625000000000008882e-01,-3.000000000000001776e+00,-1.531250000000001554e+00,-7.687500000000005329e+00,-1.600000000000000711e+01,-2.325000000000001421e+01,-3.287500000000002132e+01,-3.406250000000002132e+01,-2.343750000000001421e+01,-1.425000000000001066e+01,-1.531250000000001776e+00,1.168750000000000711e+01,1.173437500000000711e+01,1.212500000000000888e+01,1.057812500000000711e+01,1.750000000000001332e+00,-8.593750000000004441e-01,-1.328125000000001110e+00,-3.609375000000002665e+00,1.718750000000000444e+00,7.781250000000004441e+00,1.070312500000000711e+01,1.567187500000001066e+01,1.771875000000001066e+01,1.843750000000001066e+01,1.823437500000001066e+01,1.710937500000001066e+01,9.250000000000005329e+00,-2.843750000000002665e+00,-1.153125000000000888e+01,-2.185937500000001421e+01,-2.104687500000001421e+01,-1.543750000000001066e+01,-1.248437500000000711e+01,-4.671875000000002665e+00,-5.062500000000002665e+00,-3.875000000000002220e+00,-1.906250000000000888e+00,-3.796875000000002220e+00,1.062500000000000444e+00,4.156250000000002665e+00,9.328125000000005329e+00,1.493750000000001066e+01,1.601562500000001066e+01,1.251562500000000711e+01,8.437500000000007105e+00,3.843750000000003553e+00,-3.203125000000001776e+00,-5.750000000000003553e+00,-1.489062500000000888e+01,-2.262500000000001421e+01,-2.584375000000001776e+01,-2.764062500000002132e+01,-2.028125000000001421e+01,-1.154687500000000711e+01,5.000000000000008882e-01,9.609375000000007105e+00,1.631250000000000711e+01,2.090625000000001066e+01,1.768750000000001066e+01,1.728125000000001066e+01,1.592187500000001066e+01,1.457812500000001066e+01,1.778125000000001066e+01,1.546875000000000888e+01,8.421875000000005329e+00,1.187500000000000666e+00,-9.671875000000005329e+00,-1.579687500000001066e+01,-1.384375000000000888e+01,-1.231250000000000711e+01,-5.625000000000004441e+00,1.328125000000000222e+00,3.750000000000001776e+00,8.296875000000003553e+00,7.609375000000003553e+00,2.984375000000001776e+00,-2.281250000000000888e+00,-9.578125000000007105e+00,-1.267187500000000888e+01,-1.156250000000000711e+01,-7.796875000000004441e+00,-3.218750000000002665e+00,-4.062500000000003886e-01,6.875000000000004441e-01,-1.203125000000000888e+00,-2.718750000000001776e+00,-6.125000000000004441e+00,-1.137500000000000711e+01,-1.123437500000000711e+01,-1.107812500000000711e+01,-4.937500000000003553e+00,4.671875000000002665e+00,8.015625000000003553e+00,1.071875000000000711e+01,6.453125000000005329e+00,1.265625000000001332e+00,2.500000000000006661e-01,-7.656250000000001110e-01,1.921875000000001332e+00,4.046875000000002665e+00,4.265625000000002665e+00,5.515625000000003553e+00,6.750000000000005329e+00,5.906250000000003553e+00,3.375000000000001776e+00,-1.562500000000004441e-01,-5.531250000000003553e+00,-8.875000000000005329e+00,-6.390625000000003553e+00,-4.921875000000003553e+00,-1.421875000000000666e+00,5.218750000000003553e+00,5.453125000000003553e+00,8.453125000000005329e+00,1.065625000000000711e+01,5.500000000000003553e+00,4.453125000000002665e+00,1.687500000000001554e+00,-3.296875000000001776e+00,-1.781250000000000888e+00,-3.656250000000002665e+00,-6.625000000000005329e+00,-4.421875000000003553e+00,-5.187500000000003553e+00,-2.812500000000002220e+00,2.953125000000001776e+00,2.390625000000001332e+00,1.484375000000001110e+00,1.093750000000000666e+00,-4.125000000000002665e+00,-2.734375000000001776e+00,1.140625000000001110e+00,9.062500000000011102e-01,5.468750000000003553e+00,5.296875000000003553e+00,3.031250000000001776e+00,3.906250000000002665e+00,3.468750000000002665e+00,3.375000000000002665e+00,5.140625000000003553e+00,6.234375000000004441e+00,4.421875000000003553e+00,5.500000000000004441e+00,3.437500000000003109e+00,1.687500000000001332e+00,3.187500000000002220e+00,1.125000000000000444e+00,-3.281250000000005551e-01,-2.359375000000001776e+00,-7.625000000000005329e+00,-9.296875000000005329e+00,-6.828125000000004441e+00,-6.031250000000003553e+00,7.343750000000004441e-01,2.312500000000000888e+00,-8.281250000000009992e-01,1.765625000000000888e+00,-3.437500000000001776e+00,-2.015625000000000888e+00,2.187500000000001776e+00,-1.218750000000000888e+00,1.812500000000000888e+00,1.046875000000000666e+00,-1.640625000000001110e+00,4.531250000000005551e-01,6.406250000000006661e-01,-7.031250000000006661e-01,-6.093750000000004441e-01,7.343750000000006661e-01,-8.906250000000005551e-01,2.062500000000001776e+00,4.625000000000003553e+00,2.421875000000001776e+00,3.437500000000002665e+00,4.687500000000000000e-02,-3.453125000000002220e+00,-4.421875000000003553e+00,-4.156250000000003553e+00,-2.093750000000001776e+00,-7.500000000000006661e-01,1.921875000000001332e+00,-1.406250000000001110e+00,-2.937500000000002220e+00,-2.859375000000001776e+00,-4.828125000000003553e+00,1.312500000000001332e+00,4.468750000000003553e+00,5.687500000000004441e+00,7.093750000000005329e+00,9.062500000000006661e-01,-4.437500000000002665e+00,-7.593750000000005329e+00,-1.000000000000000711e+01,-6.062500000000004441e+00,-1.546875000000001332e+00,2.328125000000001332e+00,6.671875000000004441e+00,4.859375000000003553e+00,3.921875000000002665e+00,2.187500000000004441e-01,-5.515625000000003553e+00,-4.296875000000003553e+00,-5.250000000000003553e+00,-2.281250000000001776e+00,2.406250000000001776e+00,5.468750000000002220e-01,9.374999999999983347e-02,-1.078125000000000888e+00,-1.015625000000000444e+00,1.546875000000001332e+00,4.531250000000003553e+00,4.218750000000003553e+00,7.968750000000004441e-01,1.171875000000000888e+00,-6.875000000000004441e-01,6.875000000000004441e-01,3.156250000000002220e+00,-1.765625000000001332e+00,-3.453125000000002665e+00,-5.750000000000003553e+00,-7.453125000000004441e+00,-5.406250000000003553e+00,-8.812500000000005329e+00,-1.414062500000000888e+01,-2.203125000000001421e+01,-2.623437500000002132e+01,-2.184375000000001776e+01,-1.282812500000000888e+01
1.793750000000000711e+01,3.156250000000001066e+01,-1.062500000000000000e+00,-9.375000000000003553e+00,1.325000000000000711e+01,1.831250000000001066e+01,-1.875000000000000888e+00,-9.312500000000005329e+00,4.250000000000002665e+00,7.000000000000003553e+00,-2.125000000000000888e+00,-1.075000000000000533e+01,-1.218750000000000533e+01,3.187500000000001776e+00,1.381250000000000711e+01,9.687500000000005329e+00,-1.375000000000000444e+00,-1.350000000000000533e+01,-5.000000000000001776e+00,4.312500000000001776e+00,-3.750000000000001110e-01,4.937500000000002665e+00,1.687500000000000888e+00,-9.937500000000003553e+00,2.437500000000001776e+00,1.518750000000000711e+01,2.500000000000000000e-01,-9.312500000000003553e+00,4.375000000000002665e+00,-6.875000000000000000e-01,-1.375000000000000711e+01,6.000000000000003553e+00,1.175000000000000711e+01,-1.268750000000000711e+01,-1.125000000000000711e+01,6.812500000000001776e+00,1.281250000000000355e+01,1.156250000000000355e+01,-3.750000000000001776e+00,-1.237500000000000533e+01,3.187500000000001776e+00,6.125000000000003553e+00,-9.500000000000003553e+00,-5.562500000000002665e+00,6.062500000000002665e+00,-1.750000000000000000e+00,-4.312500000000001776e+00,8.125000000000003331e-01,6.875000000000003331e-01,4.937500000000001776e+00,-1.250000000000000000e+00,-6.750000000000002665e+00,1.056250000000000533e+01,1.006250000000000355e+01,-1.156250000000000711e+01,-8.000000000000003553e+00,1.937500000000000888e+00,1.812500000000000666e+00,1.431250000000000711e+01,1.231250000000000711e+01,-1.625000000000000711e+01,-2.775000000000001066e+01,-6.000000000000000888e+00,1.762500000000000711e+01,1.312500000000000355e+01,2.687500000000001332e+00,7.437500000000003553e+00,2.937500000000000888e+00,-1.118750000000000533e+01,-1.093750000000000533e+01,-5.687500000000001776e+00,-2.125000000000000444e+00,1.243750000000000533e+01,1.043750000000000533e+01,-1.218750000000000533e+01,-3.375000000000001776e+00,1.425000000000000711e+01,-2.125000000000000000e+00,-9.312500000000003553e+00,3.875000000000001776e+00,7.500000000000000000e-01,-1.100000000000000355e+01,-5.937500000000001776e+00,1.637500000000000711e+01,1.650000000000000711e+01,-1.512500000000000711e+01,-1.956250000000000711e+01,3.562500000000002220e+00,7.312500000000003553e+00,2.812500000000001332e+00,3.500000000000001776e+00,5.750000000000002665e+00,5.937500000000002665e+00,-1.150000000000000711e+01,-1.937500000000001066e+01,1.625000000000000000e+00,1.350000000000000711e+01,1.331250000000000711e+01,6.562500000000002665e+00,-1.681250000000000711e+01,-1.943750000000000711e+01,3.750000000000001776e+00,1.293750000000000711e+01,9.562500000000003553e+00,5.625000000000000000e-01,-8.062500000000003553e+00,-5.125000000000001776e+00,4.312500000000001776e+00,1.118750000000000533e+01,2.500000000000000000e-01,-1.312500000000000711e+01,-5.125000000000002665e+00,7.625000000000003553e+00,5.312500000000002665e+00,-6.625000000000003553e+00,-3.687500000000002220e+00,2.937500000000001776e+00,-1.375000000000000444e+00,5.750000000000002665e+00,3.875000000000001776e+00,-1.106250000000000533e+01,2.937500000000001776e+00,1.468750000000000711e+01,-8.687500000000005329e+00,-1.737500000000000711e+01,8.500000000000005329e+00,1.875000000000001066e+01,-3.437500000000000888e+00,-1.037500000000000355e+01,3.687500000000000888e+00,-1.625000000000001776e+00,-1.287500000000000711e+01,-3.000000000000001776e+00,8.062500000000003553e+00,5.562500000000001776e+00,-3.125000000000000000e-01,-2.437500000000000888e+00,3.875000000000001332e+00,1.606250000000000711e+01,1.368750000000000533e+01,-9.937500000000003553e+00,-2.506250000000001421e+01,-2.075000000000001066e+01,-5.375000000000001776e+00,1.662500000000000711e+01,1.825000000000000711e+01,5.187500000000001776e+00,-3.187500000000001776e+00,-1.318750000000000533e+01,-5.875000000000001776e+00,4.312500000000001776e+00,-6.625000000000003553e+00,-3.750000000000000000e-01,1.831250000000000711e+01,1.331250000000000711e+01,-8.125000000000000000e-01,-1.943750000000000711e+01,-2.025000000000000711e+01,2.550000000000001421e+01,4.200000000000002132e+01,-1.250000000000017764e-01,-2.131250000000001066e+01,-1.818750000000000711e+01,-1.237500000000000355e+01,1.350000000000000711e+01,2.762500000000001066e+01,-1.937500000000001776e+00,-2.131250000000000711e+01,1.587500000000000355e+01,3.456250000000001421e+01,-4.437500000000001776e+00,-2.612500000000001421e+01,-1.568750000000000711e+01,-3.125000000000001332e+00,-3.187500000000001332e+00,-1.656250000000000711e+01,-1.012500000000000355e+01,6.437500000000003553e+00,5.312500000000002665e+00,-1.375000000000000888e+00,-4.625000000000001776e+00,-1.812500000000000222e+00,7.625000000000004441e+00,1.025000000000000533e+01,-5.000000000000004441e-01,3.812500000000001776e+00,2.362500000000001066e+01,1.012500000000000533e+01,-2.281250000000000711e+01,-2.218750000000001066e+01,-1.056250000000000355e+01,-1.143750000000000355e+01,2.012500000000001066e+01,5.568750000000002842e+01,1.618750000000000711e+01,-3.656250000000001421e+01,-1.400000000000000178e+01,1.162500000000000711e+01,-3.618750000000002132e+01,-6.587500000000002842e+01,-1.937500000000000000e+00,5.650000000000002842e+01,3.768750000000001421e+01,1.218750000000000355e+01,1.756250000000000711e+01,1.243750000000000711e+01,-1.262500000000000533e+01,-2.856250000000001421e+01,-1.743750000000000711e+01,-2.000000000000001332e+00,-7.625000000000003553e+00,-4.375000000000001776e+00,1.600000000000000711e+01,1.262500000000000711e+01,-6.437500000000002665e+00,-1.956250000000000711e+01,-1.462500000000000533e+01,3.006250000000001421e+01,4.387500000000002132e+01,-1.118750000000000178e+01,-2.956250000000001066e+01,3.750000000000008882e-01,3.312500000000001776e+00,-6.375000000000003553e+00,-2.937500000000001776e+00,1.875000000000001110e-01,-1.875000000000001110e-01,-5.000000000000002220e-01,-5.000000000000001776e+00,-9.250000000000003553e+00,4.562500000000001776e+00,1.900000000000000711e+01,6.000000000000001776e+00,-9.125000000000003553e+00,-6.500000000000002665e+00,-4.312500000000002665e+00,-8.437500000000003553e+00,-1.518750000000000711e+01,-1.768750000000000711e+01,1.356250000000000711e+01,5.625000000000002842e+01,2.893750000000001066e+01,-3.831250000000001421e+01,-4.431250000000001421e+01,-6.937500000000002665e+00,9.750000000000003553e+00,1.175000000000000533e+01,1.700000000000000711e+01,2.031250000000000711e+01,1.693750000000000711e+01,3.187500000000003553e+00,-1.381250000000000711e+01,-1.675000000000000711e+01,-1.012500000000000533e+01,-1.362500000000000533e+01,-2.187500000000000711e+01,-1.250000000000001776e+00,3.993750000000001421e+01,3.600000000000001421e+01,-9.062500000000003553e+00,-3.187500000000001421e+01,-3.018750000000001421e+01,-5.375000000000003553e+00,3.793750000000001421e+01,3.568750000000001421e+01,-8.250000000000003553e+00,-2.206250000000001066e+01,-7.250000000000003553e+00,1.875000000000000833e-01,6.250000000000002776e-02,-6.250000000000002776e-02,6.250000000000002776e-02,-6.250000000000002776e-02,-2.500000000000001110e-01,-1.250000000000000555e-01,6.250000000000002776e-02,2.500000000000001110e-01,1.250000000000000833e-01,-3.125000000000001110e-01,-1.250000000000000555e-01,3.750000000000001665e-01,1.875000000000000833e-01,-2.500000000000001110e-01,-1.875000000000001110e-01,6.250000000000002776e-02,1.250000000000000555e-01,6.250000000000002776e-02,-1.875000000000001110e-01,-3.125000000000001665e-01,0.000000000000000000e+00,3.750000000000001665e-01,3.125000000000001110e-01,-6.250000000000002776e-02,-1.875000000000000833e-01,-6.250000000000002776e-02,6.250000000000002776e-02,6.250000000000002776e-02,-1.875000000000001110e-01,-4.625000000000001776e+00,-1.568750000000000533e+01,-1.318750000000000533e+01,2.624999999999999556e+00,-5.562500000000002665e+00,-3.625000000000000000e+00,3.425000000000001421e+01,2.568750000000001421e+01,-1.956250000000000711e+01,-2.256250000000001066e+01,-8.062500000000003553e+00,3.750000000000002665e+00,2.056250000000001066e+01,1.937500000000000711e+01,-2.875000000000001776e+00,-2.981250000000001066e+01,-2.300000000000000711e+01,2.087500000000001066e+01,2.500000000000001066e+01,-1.306250000000000711e+01,-1.706250000000000711e+01,6.625000000000003553e+00,4.937500000000001776e+00,-5.000000000000002665e+00,5.000000000000002665e+00,4.625000000000003553e+00,-6.312500000000001776e+00,-6.812500000000003553e+00,-2.375000000000001332e+00,1.137500000000000355e+01,1.831250000000000711e+01,-7.500000000000000000e-01,-1.625000000000000711e+01,-7.062500000000003553e+00,1.312500000000000222e+00,1.500000000000000666e+00,2.062500000000000888e+00,-4.375000000000005551e-01,5.125000000000001776e+00,8.937500000000003553e+00,3.125000000000004441e-01,-1.250000000000000444e+00,4.000000000000001776e+00,4.125000000000001776e+00,-7.000000000000003553e+00,-2.100000000000000711e+01,-7.125000000000002665e+00,2.387500000000001066e+01,1.525000000000000533e+01,-1.662500000000000711e+01,-5.250000000000003553e+00,2.037500000000001066e+01,1.687500000000003553e+00,-1.768750000000000711e+01,6.187500000000003553e+00,1.575000000000000711e+01,-1.275000000000000711e+01,-1.612500000000000711e+01,5.187500000000003553e+00,2.187500000000001776e+00,-5.437500000000002665e+00,-9.375000000000006661e-01,-3.312500000000001332e+00,3.750000000000004441e-01,5.937500000000001776e+00,5.312500000000001776e+00,1.200000000000000533e+01,8.125000000000000000e-01,-1.450000000000000711e+01,6.562500000000003553e+00,1.662500000000000711e+01,-1.268750000000000533e+01,-2.256250000000001066e+01,7.062500000000003553e+00,1.487500000000000711e+01,-1.656250000000000711e+01,-1.375000000000000533e+01,1.937500000000000711e+01,8.250000000000003553e+00,-1.800000000000000711e+01,-8.375000000000001776e+00,1.637500000000000711e+01,2.337500000000001066e+01,4.125000000000001776e+00,-1.143750000000000355e+01,2.125000000000001776e+00,1.450000000000000711e+01,-2.375000000000000000e+00,-1.562500000000000711e+01,-7.812500000000003553e+00,2.687500000000001332e+00,6.125000000000002665e+00,-2.812500000000001776e+00,-3.062500000000001776e+00,4.312500000000001776e+00,-4.437500000000002665e+00,-1.506250000000000711e+01,-6.250000000000001776e+00,1.100000000000000533e+01,2.250000000000000000e+00,-9.062500000000003553e+00,4.750000000000002665e+00,1.231250000000000533e+01,1.775000000000000711e+01,1.187500000000000711e+01,-2.200000000000001066e+01,-3.037500000000001421e+01,-8.687500000000003553e+00,5.875000000000002665e+00,1.462500000000000711e+01,7.437500000000002665e+00,-5.125000000000002665e+00,-7.687500000000010658e+00,-1.131250000000001954e+01,-7.500000000000000000e-01,1.493750000000002132e+01,1.100000000000001066e+01,2.625000000000000888e+00,3.125000000000001665e-01,-1.250000000000000555e-01,1.250000000000000555e-01,6.250000000000002776e-02,-6.250000000000002776e-02,0.000000000000000000e+00,-6.250000000000002776e-02,0.000000000000000000e+00,1.875000000000000833e-01,1.875000000000000833e-01,0.000000000000000000e+00,0.000000000000000000e+00,1.250000000000000555e-01,-1.875000000000000833e-01,-3.125000000000001110e-01,1.250000000000000833e-01,2.500000000000001110e-01,6.250000000000002776e-02,-6.250000000000002776e-02,-6.250000000000002776e-02,0.000000000000000000e+00,-1.875000000000001110e-01,-2.500000000000001110e-01,6.250000000000002776e-02,2.500000000000001110e-01,3.125000000000001665e-01,3.125000000000002220e-01,6.250000000000004163e-02,4.375000000000000555e-01,3.125000000000000888e+00,3.812500000000001776e+00,-3.625000000000000888e+00,-8.812500000000003553e+00,-2.625000000000000888e+00,2.937500000000001776e+00,1.937500000000001110e+00,7.500000000000003331e-01,6.875000000000002220e-01,6.250000000000002220e-01,3.125000000000001665e-01,-1.875000000000001110e-01,-6.250000000000005551e-02,3.750000000000001665e-01,1.875000000000000833e-01,-3.125000000000001110e-01,-4.375000000000002220e-01,-6.250000000000005551e-02,2.500000000000001110e-01,-2.500000000000001110e-01,-5.000000000000002220e-01,2.500000000000001110e-01,5.000000000000002220e-01,1.250000000000000555e-01,6.250000000000002776e-02,1.250000000000000555e-01,1.875000000000001110e-01,-6.250000000000002776e-02,-5.000000000000002220e-01,-3.125000000000001665e-01,-6.250000000000004163e-02,-1.250000000000000555e-01,1.250000000000000833e-01,3.125000000000001665e-01,1.250000000000000555e-01,0.000000000000000000e+00,0.000000000000000000e+00,6.250000000000002776e-02,2.500000000000001110e-01,3.750000000000002220e-01,6.250000000000002776e-02,-3.750000000000002220e-01,-1.250000000000000278e-01,2.500000000000001110e-01,-1.250000000000000555e-01,-6.250000000000003331e-01,-5.625000000000003331e-01,-6.250000000000005551e-02,1.875000000000000555e-01,-6.250000000000004163e-02,-6.250000000000001388e-02,3.750000000000001665e-01,5.000000000000002220e-01,1.250000000000000833e-01,-6.250000000000002776e-02,1.250000000000000555e-01,1.250000000000000555e-01,-1.250000000000000555e-01,-1.875000000000000833e-01,-6.250000000000002776e-02,-6.250000000000002776e-02,-1.875000000000000833e-01,-1.250000000000000555e-01,1.875000000000001110e-01,3.125000000000001665e-01,0.000000000000000000e+00,-2.500000000000001110e-01,-6.250000000000002776e-02,1.250000000000000555e-01,1.250000000000000555e-01,1.250000000000000555e-01,-6.250000000000002776e-02,-3.125000000000001665e-01,-1.875000000000001110e-01,1.875000000000001110e-01,3.125000000000001665e-01,6.250000000000002776e-02,-1.875000000000000833e-01,-1.875000000000000833e-01,-6.250000000000002776e-02,-6.250000000000002776e-02,6.250000000000002776e-02,4.375000000000002220e-01,3.750000000000002220e-01,-6.250000000000005551e-02,-3.125000000000002220e-01,-3.125000000000001665e-01,-6.250000000000002776e-02,1.250000000000000555e-01,1.250000000000000555e-01,1.875000000000000833e-01,1.250000000000000555e-01,-1.250000000000000555e-01,-1.875000000000000833e-01,0.000000000000000000e+00,1.875000000000000833e-01,6.250000000000002776e-02,-2.500000000000001110e-01,-1.250000000000000833e-01,2.500000000000001110e-01,2.875000000000000888e+00,7.500000000000009770e+00,9.625000000000017764e+00,6.375000000000003553e+00,-1.000000000000001776e+01,-1.843750000000001421e+01,1.025000000000000355e+01,3.112500000000001421e+01,1.812500000000000000e+00,-3.975000000000002132e+01,-3.825000000000001421e+01,3.187500000000003553e+00,2.537500000000001066e+01,2.000000000000000711e+01,1.437500000000000711e+01,4.375000000000008882e-01,-7.437500000000003553e+00,3.500000000000000444e+00,8.000000000000003553e+00,-7.937500000000001776e+00,-2.337500000000001066e+01,-1.075000000000000711e+01,1.131250000000000355e+01,2.056250000000000711e+01,1.068750000000000355e+01,-1.437500000000000533e+01,-4.687500000000000000e+00,2.412500000000001421e+01,6.000000000000001776e+00,-2.156250000000001421e+01,-1.775000000000001066e+01,-5.687500000000002665e+00,2.562500000000001332e+00,1.812500000000000888e+00,5.437500000000003553e+00,1.543750000000000711e+01,6.937500000000001776e+00,-1.356250000000000711e+01,-2.318750000000001066e+01,-7.062500000000003553e+00,1.481250000000000711e+01,1.525000000000000711e+01,8.562500000000003553e+00,7.500000000000002665e+00,4.062500000000000888e+00,-8.687500000000003553e+00,-1.356250000000000711e+01,-4.875000000000002665e+00,-1.125000000000000444e+00,4.562500000000002665e+00,1.375000000000000711e+01,6.562500000000001776e+00,-1.168750000000000533e+01,-1.306250000000000533e+01,7.000000000000001776e+00,1.206250000000000355e+01,-1.612500000000000711e+01,-2.418750000000001066e+01,8.812500000000003553e+00,1.768750000000000711e+01,-8.375000000000003553e+00,-1.718750000000000711e+01,2.500000000000001776e+00,2.506250000000001066e+01,1.943750000000000711e+01,-9.312500000000005329e+00,-1.625000000000001066e+01,-5.375000000000003553e+00,-1.368750000000000533e+01,-1.531250000000000711e+01,1.493750000000000533e+01,2.918750000000001421e+01,6.125000000000002665e+00,-1.031250000000000533e+01,-6.125000000000002665e+00,-4.375000000000001110e-01,1.687500000000000444e+00,-2.250000000000000888e+00,-9.812500000000005329e+00,-4.875000000000002665e+00,1.306250000000000711e+01,1.518750000000000711e+01,-8.562500000000005329e+00,-1.600000000000000711e+01,1.281250000000000533e+01,1.818750000000000711e+01,-1.293750000000000533e+01,-1.456250000000000533e+01,7.250000000000003553e+00,5.875000000000003553e+00,-5.625000000000001776e+00,-5.812500000000002665e+00,-1.437500000000000888e+00,1.875000000000000833e-01,6.250000000000002776e-02,-2.500000000000001110e-01,-1.875000000000001110e-01,6.250000000000002776e-02,6.250000000000002776e-02,-6.250000000000002776e-02,-1.250000000000000555e-01,0.000000000000000000e+00,1.250000000000000555e-01,1.250000000000000555e-01,1.875000000000000833e-01,1.250000000000000555e-01,-1.875000000000001110e-01,-2.500000000000001110e-01,6.250000000000002776e-02,6.250000000000002776e-02,-1.875000000000000833e-01,-1.250000000000000555e-01,6.250000000000002776e-02,2.500000000000001110e-01,1.875000000000001110e-01,-1.875000000000001110e-01,-2.500000000000001110e-01,-6.250000000000002776e-02,1.875000000000001110e-01,4.375000000000002220e-01,6.250000000000000000e-02,-5.625000000000003331e-01,-3.125000000000002220e-01,3.750000000000002220e-01,4.375000000000002220e-01,0.000000000000000000e+00,-3.750000000000001665e-01,-3.125000000000001110e-01,0.000000000000000000e+00,0.000000000000000000e+00,0.000000000000000000e+00,2.500000000000001110e-01,1.875000000000001110e-01,0.000000000000000000e+00,6.250000000000002776e-02,0.000000000000000000e+00,-1.250000000000000555e-01,-6.250000000000002776e-02,0.000000000000000000e+00,6.250000000000002776e-02,6.250000000000002776e-02,-1.875000000000001110e-01,-1.875000000000001110e-01,1.875000000000001110e-01,1.875000000000001110e-01,-6.250000000000002776e-02,-6.250000000000002776e-02,0.000000000000000000e+00,0.000000000000000000e+00,0.000000000000000000e+00,0.000000000000000000e+00,0.000000000000000000e+00,0.000000000000000000e+00,0.000000000000000000e+00,0.000000000000000000e+00,6.250000000000002776e-02,-1.687500000000000888e+00,-3.687500000000001776e+00,-1.062500000000000444e+00,-4.437500000000001776e+00,-8.687500000000003553e+00,8.750000000000005329e+00,1.643750000000000711e+01,-1.112500000000000533e+01,-2.731250000000001066e+01,1.937500000000003553e+00,3.437500000000001421e+01,1.512500000000000355e+01,-1.800000000000001066e+01,-1.581250000000000888e+01,-1.168750000000000711e+01,-1.031250000000000711e+01,1.487500000000000533e+01,2.631250000000001066e+01,-2.000000000000001776e+00,-2.200000000000000711e+01,-8.750000000000001776e+00,4.750000000000003553e+00,2.000000000000000888e+00,3.250000000000000888e+00,1.218750000000000533e+01,1.687500000000000000e+00,-1.625000000000000711e+01,-3.500000000000000000e+00,1.487500000000000711e+01,5.187500000000001776e+00,-2.875000000000001776e+00,8.125000000000006661e-01,1.875000000000003331e-01,4.187500000000001776e+00,3.125000000000000000e-01,-5.375000000000002665e+00,5.937500000000002665e+00,-6.250000000000000000e-01,-1.387500000000000711e+01,6.562500000000003553e+00,1.600000000000000711e+01,-1.043750000000000533e+01,-1.493750000000000711e+01,7.937500000000002665e+00,5.625000000000001776e+00,-1.312500000000000533e+01,-1.362500000000000533e+01,3.750000000000000000e-01,1.387500000000000533e+01,7.187500000000001776e+00,-6.312500000000003553e+00,2.687500000000001776e+00,7.250000000000003553e+00,-6.187500000000003553e+00,-7.125000000000003553e+00,6.375000000000003553e+00,1.225000000000000533e+01,2.750000000000000888e+00,-1.175000000000000355e+01,-9.000000000000003553e+00,1.093750000000000533e+01,1.318750000000000711e+01,5.000000000000001776e+00,6.500000000000001776e+00,-5.687500000000001776e+00,-1.193750000000000355e+01,6.437500000000002665e+00,1.456250000000000711e+01,1.225000000000000533e+01,2.375000000000000888e+00,-1.962500000000000711e+01,-1.206250000000000533e+01,1.575000000000000888e+01,1.143750000000000533e+01,-2.937500000000001776e+00,-9.437500000000003553e+00,-2.262500000000001066e+01,-1.575000000000000711e+01,7.500000000000001110e-01,-7.062500000000003553e+00,-2.750000000000000888e+00,1.281250000000000533e+01,6.187500000000001776e+00,6.562500000000003553e+00,5.250000000000002665e+00,-1.237500000000000711e+01,-9.375000000000017764e-01,1.443750000000000711e+01,-7.437500000000004441e+00,-1.556250000000000888e+01,4.750000000000001776e+00,1.325000000000000711e+01,9.687500000000003553e+00,1.875000000000000888e+00,-5.437500000000002665e+00,3.625000000000001776e+00,1.475000000000000711e+01,7.687500000000003553e+00,3.875000000000000888e+00,-3.125000000000017764e-01,-2.350000000000001066e+01,-2.425000000000000711e+01,5.812500000000003553e+00,1.837500000000000711e+01,6.250000000000000000e-02,-1.862500000000000711e+01,-6.750000000000003553e+00,1.162500000000000533e+01,8.187500000000003553e+00,-4.250000000000001776e+00,-1.381250000000000533e+01,-4.250000000000001776e+00,1.787500000000000711e+01,1.887500000000000711e+01,2.000000000000000000e+00,-7.312500000000003553e+00,-8.437500000000003553e+00,1.312500000000000888e+00,1.412500000000000711e+01,1.125000000000000000e+00,-1.637500000000000711e+01,-1.481250000000000533e+01,-1.050000000000000355e+01,-5.000000000000003553e+00,1.687500000000000444e+00,-3.124999999999991118e-01,-2.937500000000000888e+00,8.250000000000003553e+00,1.381250000000000533e+01,5.687500000000002665e+00,4.562500000000002665e+00,-7.500000000000000000e-01,-7.437500000000003553e+00,6.937500000000001776e+00,1.918750000000000711e+01,9.437500000000003553e+00,-5.875000000000003553e+00,-1.093750000000000711e+01,-4.562500000000001776e+00,-6.187500000000002665e+00,-1.106250000000000533e+01,7.000000000000003553e+00,1.275000000000000533e+01,-1.193750000000000711e+01,-9.750000000000005329e+00,1.893750000000000711e+01,1.662500000000000711e+01,-1.093750000000000533e+01,-1.475000000000000711e+01,1.312500000000000888e+00,-2.562500000000001776e+00,-1.256250000000000711e+01,3.687500000000000888e+00,1.650000000000000711e+01,-3.250000000000000000e+00,-1.612500000000000711e+01,3.000000000000000000e+00,1.281250000000000533e+01,-1.937500000000000888e+00,-1.275000000000000711e+01,-1.181250000000000711e+01,-2.375000000000001332e+00,4.625000000000002665e+00,5.937500000000003553e+00,1.281250000000000533e+01,8.937500000000003553e+00,-1.112500000000000533e+01,-1.706250000000000711e+01,3.812500000000000000e+00,1.906250000000000711e+01,6.875000000000000000e-01,-1.456250000000000711e+01,3.000000000000000000e+00,1.087500000000000533e+01,-4.062500000000001776e+00,1.750000000000000888e+00,1.375000000000000711e+01,-6.062500000000003553e+00,-1.968750000000001066e+01,-1.687500000000001776e+00,8.875000000000003553e+00,3.125000000000001776e+00,-3.812500000000001776e+00,-5.437500000000002665e+00,7.312500000000002665e+00,1.012500000000000355e+01,-1.312500000000000222e+00,3.125000000000000888e+00,1.562500000000000000e+00,-1.200000000000000533e+01,-1.812500000000000000e+00,1.200000000000000711e+01,2.562500000000000888e+00,-1.181250000000000533e+01,-1.143750000000000533e+01,5.500000000000001776e+00,9.562500000000003553e+00,-4.812500000000002665e+00,1.187500000000000888e+00,1.025000000000000533e+01,-7.125000000000001776e+00,-1.275000000000000533e+01,4.999999999999995559e-01,7.625000000000003553e+00,9.937500000000005329e+00,-1.125000000000000888e+00,-1.087500000000000533e+01,3.125000000000001776e+00,1.087500000000000533e+01,-2.312500000000000000e+00,-6.375000000000001776e+00,3.000000000000001332e+00,7.687500000000003553e+00,4.000000000000001776e+00,-4.562500000000001776e+00,-2.937500000000000888e+00,4.437500000000001776e+00,6.250000000000044409e-02,-1.000000000000000444e+00,5.125000000000001776e+00,6.875000000000004441e-01,-8.625000000000003553e+00,-1.125000000000000355e+01,-3.000000000000001776e+00,9.937500000000003553e+00,6.000000000000002665e+00,-1.312500000000000888e+00,-7.500000000000004441e-01,-7.125000000000003553e+00,-3.125000000000002220e+00,4.562500000000001776e+00,3.062500000000001776e+00,6.062500000000002665e+00,-4.562500000000001776e+00,-1.306250000000000533e+01,8.250000000000005329e+00,1.200000000000000711e+01,-1.056250000000000533e+01,-5.000000000000003553e+00,9.750000000000003553e+00,-3.250000000000001776e+00,-6.875000000000003553e+00,5.625000000000001776e+00,5.937500000000002665e+00,1.437500000000000666e+00,-2.687500000000001776e+00,-3.000000000000001776e+00,2.562500000000000888e+00,-2.125000000000000888e+00,-1.081250000000000533e+01,1.312500000000000000e+00,1.500000000000000711e+01,1.437500000000000888e+00,-1.106250000000000355e+01,-5.125000000000001776e+00,2.625000000000000888e+00,3.125000000000000888e+00,-5.062500000000002665e+00,-2.500000000000008882e-01,1.443750000000000711e+01,6.562500000000004441e+00,-8.937500000000003553e+00,-9.375000000000005329e+00,-4.875000000000002665e+00,-3.750000000000002220e-01,2.687500000000001332e+00,1.375000000000000666e+00,-1.875000000000000555e-01,3.437500000000001776e+00,6.875000000000003553e+00,-1.812500000000001332e+00,-5.562500000000002665e+00,9.375000000000005551e-01,-5.250000000000002665e+00,-7.125000000000003553e+00,5.000000000000001776e+00,9.500000000000003553e+00,5.875000000000002665e+00,-6.312500000000002665e+00,-1.731250000000000711e+01,-2.000000000000000000e+00,1.962500000000001066e+01,1.068750000000000711e+01,-7.187500000000003553e+00,-8.812500000000003553e+00,-7.500000000000003553e+00,2.312500000000001776e+00,1.512500000000000711e+01,7.562500000000002665e+00,-9.125000000000003553e+00,-1.681250000000000711e+01,-4.437500000000001776e+00,1.437500000000000711e+01,5.687500000000003553e+00,-1.218750000000000533e+01,-4.562500000000001776e+00,5.625000000000000000e-01,-2.425000000000000711e+01,-2.637500000000000711e+01
5.025000000000001421e+01,1.500000000000000444e+00,7.500000000000000000e-01,-2.200000000000000355e+01,2.300000000000000355e+01,-2.000000000000000444e+00,1.025000000000000355e+01,-2.575000000000000711e+01,1.900000000000000355e+01,2.250000000000000888e+00,-1.325000000000000355e+01,1.725000000000000355e+01,-2.600000000000000711e+01,8.250000000000001776e+00,1.850000000000000711e+01,-2.400000000000000711e+01,3.325000000000000711e+01,-3.250000000000000711e+01,2.500000000000000000e+00,2.200000000000000711e+01,-2.625000000000000711e+01,1.275000000000000355e+01,1.450000000000000355e+01,-3.175000000000000711e+01,2.200000000000000355e+01,-8.000000000000001776e+00,2.225000000000000355e+01,-3.650000000000000711e+01,2.350000000000000711e+01,6.750000000000001776e+00,-2.675000000000000711e+01,6.250000000000001776e+00,3.000000000000000711e+01,-3.325000000000000711e+01,1.750000000000000000e+00,1.550000000000000355e+01,-1.450000000000000355e+01,1.850000000000000355e+01,5.000000000000000000e-01,-2.425000000000000711e+01,1.950000000000000711e+01,-2.500000000000000888e+00,2.250000000000000000e+00,-2.325000000000000355e+01,3.200000000000000711e+01,-1.725000000000000355e+01,-8.000000000000001776e+00,2.375000000000000711e+01,-2.725000000000000711e+01,1.900000000000000355e+01,3.250000000000000888e+00,-2.200000000000000711e+01,1.475000000000000355e+01,1.400000000000000355e+01,-1.750000000000000355e+01,-1.075000000000000355e+01,3.100000000000000711e+01,-3.550000000000000711e+01,2.425000000000000711e+01,1.000000000000000178e+01,-1.725000000000000355e+01,-3.250000000000000888e+00,-1.275000000000000355e+01,1.850000000000000355e+01,8.750000000000001776e+00,-2.125000000000000355e+01,2.375000000000000711e+01,-1.025000000000000355e+01,4.500000000000001776e+00,-1.850000000000000355e+01,1.950000000000000355e+01,-1.850000000000000355e+01,3.750000000000000000e+00,2.800000000000000711e+01,-3.025000000000000711e+01,-1.750000000000000000e+00,2.400000000000000711e+01,-6.000000000000001776e+00,-2.575000000000000711e+01,3.625000000000000711e+01,-2.775000000000000711e+01,1.800000000000000355e+01,-2.175000000000000711e+01,9.750000000000003553e+00,2.350000000000000355e+01,-1.800000000000000355e+01,-2.025000000000000355e+01,2.475000000000000711e+01,-7.250000000000001776e+00,-6.250000000000001776e+00,1.900000000000000355e+01,-2.300000000000000355e+01,2.425000000000000711e+01,-5.750000000000001776e+00,-2.575000000000000711e+01,1.750000000000000355e+01,5.750000000000000888e+00,-1.275000000000000355e+01,2.625000000000000711e+01,-1.575000000000000355e+01,-2.300000000000000355e+01,2.700000000000000711e+01,-1.100000000000000355e+01,4.750000000000000888e+00,1.375000000000000355e+01,-2.825000000000000711e+01,2.475000000000000711e+01,-2.150000000000000355e+01,1.625000000000000355e+01,1.050000000000000355e+01,-3.350000000000000711e+01,2.850000000000000711e+01,-2.375000000000000711e+01,2.700000000000000711e+01,-1.550000000000000355e+01,-1.225000000000000355e+01,3.125000000000000711e+01,-3.125000000000000711e+01,1.375000000000000355e+01,1.425000000000000355e+01,-2.275000000000000711e+01,-2.750000000000000000e+00,3.250000000000000711e+01,-2.500000000000000355e+01,-2.500000000000000888e+00,-2.000000000000000000e+00,2.100000000000000711e+01,-3.000000000000001776e+00,-2.850000000000000711e+01,3.625000000000000711e+01,-2.450000000000000711e+01,1.225000000000000355e+01,-2.500000000000000355e+01,3.675000000000000711e+01,-3.350000000000000711e+01,3.350000000000000711e+01,-3.275000000000000711e+01,2.600000000000000711e+01,-1.775000000000000355e+01,2.800000000000000711e+01,-1.250000000000000178e+01,-1.825000000000000355e+01,1.400000000000000355e+01,-2.475000000000000355e+01,1.750000000000000355e+01,1.925000000000000355e+01,-3.050000000000000711e+01,3.425000000000000711e+01,-2.775000000000000711e+01,-4.500000000000001776e+00,2.525000000000000711e+01,-2.075000000000000711e+01,-5.500000000000001776e+00,2.350000000000000711e+01,-4.750000000000000888e+00,-6.000000000000000888e+00,1.725000000000000355e+01,-4.075000000000001421e+01,1.050000000000000355e+01,5.850000000000001421e+01,-4.925000000000000711e+01,1.275000000000000355e+01,-5.000000000000000000e-01,-2.125000000000000711e+01,1.350000000000000355e+01,1.325000000000000355e+01,5.500000000000000000e+00,-2.375000000000000355e+01,-1.225000000000000355e+01,7.100000000000001421e+01,-5.750000000000001421e+01,1.500000000000000355e+01,-4.500000000000000000e+00,-1.750000000000000355e+01,3.175000000000000711e+01,-3.150000000000000711e+01,-2.750000000000001776e+00,2.425000000000000711e+01,-2.675000000000000711e+01,2.975000000000000711e+01,-3.150000000000000711e+01,2.475000000000000711e+01,-2.075000000000000711e+01,2.350000000000000711e+01,-6.500000000000000888e+00,-1.575000000000000355e+01,2.675000000000000711e+01,5.250000000000000000e+00,-1.750000000000000355e+01,-1.225000000000000178e+01,1.500000000000000355e+01,-1.050000000000000355e+01,-2.375000000000000711e+01,6.450000000000001421e+01,-8.000000000000000000e+00,-2.675000000000000711e+01,-1.450000000000000355e+01,3.975000000000001421e+01,-1.300000000000000355e+01,-5.525000000000001421e+01,9.750000000000000000e+00,4.125000000000000711e+01,2.750000000000000000e+00,-1.625000000000000355e+01,2.450000000000000355e+01,-4.000000000000000000e+00,1.500000000000000000e+00,-1.400000000000000355e+01,-1.200000000000000178e+01,1.575000000000000355e+01,-6.250000000000001776e+00,-1.550000000000000355e+01,1.800000000000000355e+01,1.275000000000000355e+01,-2.675000000000000711e+01,2.450000000000000711e+01,-3.225000000000000711e+01,-2.000000000000000000e+00,7.175000000000001421e+01,-5.025000000000001421e+01,-1.375000000000000355e+01,2.675000000000000711e+01,-1.350000000000000355e+01,2.500000000000000555e-01,0.000000000000000000e+00,2.500000000000000555e-01,-2.500000000000000555e-01,0.000000000000000000e+00,-2.500000000000000555e-01,-2.500000000000000555e-01,-1.725000000000000355e+01,3.450000000000000711e+01,-1.500000000000000355e+01,-1.750000000000000444e+00,2.500000000000000555e-01,-1.500000000000000222e+00,5.000000000000000000e-01,-9.500000000000001776e+00,7.000000000000000888e+00,-3.225000000000000711e+01,5.375000000000001421e+01,1.425000000000000355e+01,-3.250000000000000711e+01,-2.250000000000000355e+01,2.100000000000000355e+01,-1.050000000000000355e+01,1.075000000000000355e+01,-2.500000000000000888e+00,1.350000000000000355e+01,-3.500000000000000000e+00,1.350000000000000178e+01,-1.675000000000000355e+01,-7.500000000000004441e-01,-2.250000000000000444e+00,0.000000000000000000e+00,-7.250000000000001776e+00,-1.575000000000000178e+01,2.125000000000000355e+01,3.350000000000000711e+01,-3.150000000000000711e+01,-2.500000000000000555e-01,-1.500000000000000444e+00,-2.750000000000000711e+01,3.075000000000000711e+01,2.675000000000000711e+01,-2.825000000000000711e+01,-2.500000000000000555e-01,-2.500000000000000555e-01,5.000000000000001110e-01,-2.500000000000000555e-01,0.000000000000000000e+00,0.000000000000000000e+00,2.500000000000000555e-01,-5.000000000000001110e-01,2.500000000000000555e-01,0.000000000000000000e+00,-2.500000000000000555e-01,7.500000000000002220e-01,-7.500000000000002220e-01,0.000000000000000000e+00,5.000000000000001110e-01,-2.500000000000000555e-01,2.500000000000000555e-01,-7.500000000000002220e-01,1.000000000000000222e+00,-1.000000000000000222e+00,1.000000000000000222e+00,-7.500000000000002220e-01,2.500000000000000555e-01,-2.500000000000000555e-01,2.500000000000000555e-01,2.500000000000000555e-01,-2.500000000000000555e-01,0.000000000000000000e+00,0.000000000000000000e+00,0.000000000000000000e+00,0.000000000000000000e+00,2.500000000000000555e-01,-7.500000000000002220e-01,7.500000000000002220e-01,-1.800000000000000355e+01,7.500000000000001776e+00,2.300000000000000711e+01,-5.525000000000001421e+01,4.875000000000000711e+01,2.250000000000000711e+01,-4.750000000000001421e+01,1.800000000000000355e+01,-4.000000000000000888e+00,-1.475000000000000355e+01,2.625000000000000711e+01,-3.500000000000000888e+00,1.750000000000000000e+00,1.250000000000000888e+00,-3.925000000000000711e+01,2.675000000000000711e+01,2.975000000000000711e+01,-4.025000000000000711e+01,1.475000000000000355e+01,-1.550000000000000355e+01,3.650000000000000711e+01,-4.525000000000001421e+01,2.900000000000000711e+01,5.000000000000001776e+00,-2.950000000000000711e+01,3.575000000000000711e+01,-4.025000000000001421e+01,3.225000000000000711e+01,-1.050000000000000355e+01,1.925000000000000355e+01,-2.950000000000000711e+01,9.250000000000003553e+00,8.500000000000001776e+00,-1.900000000000000355e+01,2.275000000000000711e+01,-1.425000000000000355e+01,-3.750000000000000000e+00,2.675000000000000711e+01,-2.975000000000000711e+01,2.350000000000000711e+01,-1.750000000000000355e+01,1.625000000000000355e+01,-8.250000000000001776e+00,-1.500000000000000444e+00,-2.000000000000000355e+01,2.175000000000000355e+01,1.875000000000000355e+01,-2.850000000000000711e+01,-4.500000000000001776e+00,2.575000000000000711e+01,-1.750000000000000000e+00,-1.950000000000000355e+01,-3.250000000000001776e+00,4.050000000000001421e+01,-3.800000000000000711e+01,4.500000000000000000e+00,2.500000000000008882e-01,1.900000000000000355e+01,-3.675000000000000711e+01,3.625000000000000711e+01,-2.250000000000000711e+01,-3.250000000000001776e+00,2.650000000000000711e+01,-3.125000000000000711e+01,2.525000000000000711e+01,5.000000000000001776e+00,-2.500000000000000711e+01,3.500000000000001776e+00,3.275000000000000711e+01,-3.075000000000000711e+01,4.000000000000000888e+00,-1.675000000000000355e+01,4.300000000000000711e+01,-2.850000000000000355e+01,-2.150000000000000711e+01,3.550000000000000711e+01,3.000000000000000000e+00,-3.300000000000000711e+01,2.650000000000000355e+01,-2.750000000000000355e+01,4.650000000000001421e+01,-2.850000000000000711e+01,1.200000000000000355e+01,-1.900000000000000355e+01,2.575000000000000711e+01,0.000000000000000000e+00,-3.250000000000000711e+01,3.650000000000000711e+01,-3.925000000000000711e+01,3.675000000000000711e+01,-1.425000000000000355e+01,-1.850000000000000355e+01,4.050000000000000711e+01,-4.300000000000000711e+01,3.450000000000000711e+01,-4.125000000000001421e+01,2.925000000000000711e+01,1.050000000000000355e+01,-4.300000000000001421e+01,4.225000000000001421e+01,-1.850000000000000355e+01,1.000000000000000000e+00,3.025000000000000711e+01,-2.425000000000000711e+01,-2.250000000000000355e+01,2.550000000000000355e+01,-2.175000000000000355e+01,1.350000000000000355e+01,2.050000000000000355e+01,-4.300000000000001421e+01,4.650000000000001421e+01,-4.400000000000000711e+01,1.774999999999998579e+01,4.750000000000015987e+00,1.000000000000000222e+00,2.500000000000000555e-01,2.500000000000000555e-01,-7.500000000000002220e-01,7.500000000000002220e-01,-2.500000000000000555e-01,-2.500000000000000555e-01,5.000000000000001110e-01,-5.000000000000001110e-01,2.500000000000000555e-01,0.000000000000000000e+00,0.000000000000000000e+00,2.500000000000000555e-01,-5.000000000000001110e-01,5.000000000000001110e-01,0.000000000000000000e+00,-7.500000000000002220e-01,7.500000000000002220e-01,-2.500000000000000555e-01,0.000000000000000000e+00,2.500000000000000555e-01,-5.000000000000001110e-01,5.000000000000001110e-01,-2.500000000000000555e-01,-2.500000000000000555e-01,2.500000000000000555e-01,0.000000000000000000e+00,0.000000000000000000e+00,2.500000000000000555e-01,0.000000000000000000e+00,-2.500000000000000555e-01,2.500000000000000555e-01,2.000000000000000444e+00,4.000000000000015987e+00,-1.350000000000003197e+01,7.250000000000015987e+00,-1.250000000000000222e+00,1.000000000000000222e+00,-2.500000000000000555e-01,5.000000000000001110e-01,-2.500000000000000555e-01,7.500000000000002220e-01,-7.500000000000002220e-01,2.500000000000000555e-01,0.000000000000000000e+00,5.000000000000001110e-01,-7.500000000000002220e-01,5.000000000000001110e-01,-7.500000000000002220e-01,7.500000000000002220e-01,0.000000000000000000e+00,-1.000000000000000222e+00,7.500000000000002220e-01,2.500000000000000555e-01,-5.000000000000001110e-01,5.000000000000001110e-01,-2.500000000000000555e-01,0.000000000000000000e+00,5.000000000000001110e-01,-7.500000000000002220e-01,0.000000000000000000e+00,5.000000000000001110e-01,-7.500000000000002220e-01,5.000000000000001110e-01,0.000000000000000000e+00,0.000000000000000000e+00,0.000000000000000000e+00,0.000000000000000000e+00,0.000000000000000000e+00,0.000000000000000000e+00,2.500000000000000555e-01,0.000000000000000000e+00,0.000000000000000000e+00,-7.500000000000002220e-01,1.250000000000000444e+00,-1.000000000000000222e+00,5.000000000000001110e-01,-7.500000000000002220e-01,2.500000000000000555e-01,2.500000000000000555e-01,-2.500000000000000555e-01,0.000000000000000000e+00,0.000000000000000000e+00,5.000000000000001110e-01,-2.500000000000000555e-01,0.000000000000000000e+00,0.000000000000000000e+00,2.500000000000000555e-01,-2.500000000000000555e-01,0.000000000000000000e+00,0.000000000000000000e+00,0.000000000000000000e+00,0.000000000000000000e+00,-2.500000000000000555e-01,2.500000000000000555e-01,0.000000000000000000e+00,2.500000000000000555e-01,-5.000000000000001110e-01,2.500000000000000555e-01,0.000000000000000000e+00,0.000000000000000000e+00,0.000000000000000000e+00,2.500000000000000555e-01,-5.000000000000001110e-01,2.500000000000000555e-01,-2.500000000000000555e-01,5.000000000000001110e-01,-2.500000000000000555e-01,0.000000000000000000e+00,0.000000000000000000e+00,-2.500000000000000555e-01,5.000000000000001110e-01,-7.500000000000002220e-01,7.500000000000002220e-01,0.000000000000000000e+00,-2.500000000000000555e-01,2.500000000000000555e-01,-5.000000000000001110e-01,2.500000000000000555e-01,0.000000000000000000e+00,0.000000000000000000e+00,0.000000000000000000e+00,2.500000000000000555e-01,-2.500000000000000555e-01,0.000000000000000000e+00,0.000000000000000000e+00,0.000000000000000000e+00,2.500000000000000555e-01,-2.500000000000000555e-01,-2.500000000000000555e-01,5.000000000000001110e-01,-2.500000000000000555e-01,2.500000000000000555e-01,1.025000000000001599e+01,-1.200000000000001599e+01,2.425000000000000355e+01,-4.075000000000000711e+01,1.525000000000000355e+01,2.475000000000000355e+01,-1.075000000000000178e+01,-1.250000000000000000e+00,-3.750000000000000711e+01,1.675000000000000711e+01,2.075000000000000355e+01,-1.950000000000000355e+01,2.550000000000000711e+01,-4.750000000000001776e+00,-1.925000000000000355e+01,2.475000000000000711e+01,-1.975000000000000355e+01,2.625000000000000355e+01,-3.425000000000000711e+01,2.000000000000000000e+00,1.875000000000000355e+01,-1.925000000000000355e+01,3.600000000000000711e+01,-2.325000000000000711e+01,-2.200000000000000355e+01,4.525000000000001421e+01,-1.075000000000000355e+01,-2.075000000000000355e+01,1.250000000000000355e+01,-1.400000000000000355e+01,3.750000000000001332e+00,1.700000000000000355e+01,-3.675000000000000711e+01,5.125000000000001421e+01,-3.450000000000000711e+01,2.225000000000000355e+01,-2.250000000000000711e+01,-1.100000000000000178e+01,3.175000000000000711e+01,-2.150000000000000711e+01,2.125000000000000711e+01,-1.100000000000000355e+01,5.000000000000000888e+00,1.250000000000000178e+01,-4.100000000000000711e+01,4.525000000000001421e+01,-4.425000000000001421e+01,3.750000000000000711e+01,-2.900000000000000711e+01,4.100000000000000711e+01,-4.075000000000000711e+01,2.175000000000000355e+01,-2.425000000000000711e+01,3.625000000000000711e+01,-1.775000000000000355e+01,-2.300000000000000355e+01,1.325000000000000355e+01,2.300000000000000355e+01,-2.650000000000000711e+01,8.750000000000001776e+00,-1.475000000000000355e+01,2.075000000000000711e+01,7.000000000000001776e+00,-2.000000000000000000e+00,-2.450000000000000711e+01,2.400000000000000711e+01,-1.300000000000000178e+01,-1.350000000000000355e+01,5.750000000000001776e+00,2.475000000000000711e+01,-6.750000000000001776e+00,-1.425000000000000355e+01,1.725000000000000355e+01,-2.250000000000000711e+01,2.575000000000000711e+01,-2.450000000000000711e+01,2.300000000000000711e+01,-3.450000000000000711e+01,3.300000000000000711e+01,-1.200000000000000355e+01,1.725000000000000355e+01,-3.375000000000000711e+01,1.225000000000000355e+01,3.250000000000000711e+01,-3.450000000000000711e+01,5.000000000000008882e-01,1.100000000000000178e+01,2.500000000000000000e-01,-5.500000000000000888e+00,-5.000000000000001110e-01,5.000000000000001110e-01,-5.000000000000001110e-01,7.500000000000002220e-01,-7.500000000000002220e-01,2.500000000000000555e-01,0.000000000000000000e+00,0.000000000000000000e+00,0.000000000000000000e+00,0.000000000000000000e+00,-2.500000000000000555e-01,5.000000000000001110e-01,-5.000000000000001110e-01,5.000000000000001110e-01,-2.500000000000000555e-01,2.500000000000000555e-01,-5.000000000000001110e-01,2.500000000000000555e-01,2.500000000000000555e-01,-5.000000000000001110e-01,2.500000000000000555e-01,0.000000000000000000e+00,-2.500000000000000555e-01,7.500000000000002220e-01,-7.500000000000002220e-01,2.500000000000000555e-01,0.000000000000000000e+00,-2.500000000000000555e-01,5.000000000000001110e-01,0.000000000000000000e+00,-2.500000000000000555e-01,-5.000000000000001110e-01,7.500000000000002220e-01,-2.500000000000000555e-01,2.500000000000000555e-01,-2.500000000000000555e-01,-2.500000000000000555e-01,2.500000000000000555e-01,0.000000000000000000e+00,-2.500000000000000555e-01,2.500000000000000555e-01,2.500000000000000555e-01,-5.000000000000001110e-01,5.000000000000001110e-01,-2.500000000000000555e-01,0.000000000000000000e+00,0.000000000000000000e+00,0.000000000000000000e+00,0.000000000000000000e+00,0.000000000000000000e+00,2.500000000000000555e-01,-7.500000000000002220e-01,7.500000000000002220e-01,-2.500000000000000555e-01,0.000000000000000000e+00,0.000000000000000000e+00,0.000000000000000000e+00,0.000000000000000000e+00,0.000000000000000000e+00,0.000000000000000000e+00,0.000000000000000000e+00,0.000000000000000000e+00,0.000000000000000000e+00,0.000000000000000000e+00,0.000000000000000000e+00,0.000000000000000000e+00,2.500000000000000555e-01,-7.750000000000001776e+00,1.475000000000000355e+01,-1.775000000000000355e+01,-4.500000000000001776e+00,3.850000000000000711e+01,-3.575000000000000711e+01,1.350000000000000355e+01,-3.350000000000000711e+01,4.825000000000001421e+01,-2.500000000000000000e+00,-2.150000000000000711e+01,2.000000000000000000e+00,1.075000000000000355e+01,-2.975000000000000711e+01,2.125000000000000711e+01,7.250000000000001776e+00,1.125000000000000355e+01,-3.850000000000000711e+01,2.825000000000000355e+01,-2.225000000000000355e+01,2.725000000000000711e+01,-3.100000000000000711e+01,2.925000000000000711e+01,-4.750000000000000888e+00,-1.100000000000000355e+01,-6.750000000000001776e+00,1.775000000000000355e+01,4.250000000000000888e+00,-2.600000000000000711e+01,3.500000000000000711e+01,-3.025000000000000711e+01,1.400000000000000355e+01,1.225000000000000355e+01,-3.025000000000000711e+01,2.300000000000000355e+01,5.000000000000000888e+00,-2.550000000000000711e+01,7.750000000000001776e+00,2.350000000000000711e+01,-1.725000000000000355e+01,-1.350000000000000355e+01,1.400000000000000355e+01,1.075000000000000178e+01,-2.400000000000000711e+01,1.150000000000000355e+01,-1.150000000000000355e+01,7.750000000000001776e+00,1.750000000000000355e+01,-2.650000000000000711e+01,1.025000000000000355e+01,1.500000000000000355e+01,-2.225000000000000711e+01,1.350000000000000355e+01,-1.550000000000000355e+01,2.650000000000000711e+01,-1.925000000000000711e+01,1.550000000000000355e+01,-2.600000000000000711e+01,1.450000000000000355e+01,1.925000000000000355e+01,-3.175000000000000711e+01,3.225000000000000711e+01,-1.000000000000000178e+01,-1.975000000000000711e+01,1.900000000000000355e+01,2.500000000000000888e+00,-9.250000000000001776e+00,2.400000000000000355e+01,-2.050000000000000355e+01,-1.800000000000000355e+01,2.975000000000000711e+01,-1.250000000000000000e+00,-1.800000000000000355e+01,2.425000000000000355e+01,-2.550000000000000711e+01,-8.000000000000001776e+00,1.550000000000000355e+01,7.500000000000002220e-01,-3.550000000000000711e+01,5.525000000000001421e+01,-3.750000000000000711e+01,1.100000000000000355e+01,2.025000000000000355e+01,-2.600000000000000711e+01,-3.000000000000001776e+00,2.650000000000000711e+01,-8.000000000000003553e+00,-3.125000000000000711e+01,4.025000000000001421e+01,-3.025000000000000711e+01,3.150000000000000711e+01,-2.125000000000000711e+01,1.550000000000000355e+01,-2.275000000000000711e+01,2.975000000000000711e+01,-8.750000000000001776e+00,-9.000000000000001776e+00,2.300000000000000355e+01,-1.725000000000000355e+01,-2.550000000000000355e+01,2.850000000000000711e+01,-1.200000000000000355e+01,1.950000000000000355e+01,-2.100000000000000711e+01,-1.325000000000000178e+01,3.850000000000000711e+01,-3.700000000000000711e+01,3.750000000000000711e+01,-3.600000000000000711e+01,1.150000000000000355e+01,1.750000000000000000e+00,1.350000000000000355e+01,-3.000000000000000000e+00,-1.200000000000000355e+01,1.825000000000000355e+01,-3.175000000000000711e+01,3.475000000000000711e+01,-4.250000000000000000e+00,-2.625000000000000711e+01,2.775000000000000711e+01,-3.675000000000000711e+01,3.050000000000000711e+01,-2.825000000000000711e+01,2.925000000000000711e+01,-2.600000000000000711e+01,9.750000000000001776e+00,1.650000000000000355e+01,-1.675000000000000355e+01,1.025000000000000178e+01,6.500000000000001776e+00,-1.875000000000000355e+01,8.750000000000001776e+00,1.150000000000000178e+01,-2.250000000000000000e+00,5.000000000000000000e-01,-5.500000000000000888e+00,-7.000000000000001776e+00,1.750000000000000355e+01,-2.475000000000000711e+01,2.750000000000000000e+00,3.025000000000000711e+01,-2.800000000000000711e+01,-4.750000000000000000e+00,1.550000000000000355e+01,9.250000000000003553e+00,-7.250000000000001776e+00,-1.725000000000000355e+01,1.625000000000000355e+01,-7.500000000000000000e-01,-1.300000000000000355e+01,-1.500000000000000000e+00,2.050000000000000355e+01,-5.500000000000000888e+00,-1.600000000000000355e+01,3.500000000000000000e+00,1.900000000000000711e+01,-1.550000000000000355e+01,1.250000000000000444e+00,7.500000000000000000e-01,-1.850000000000000355e+01,3.275000000000000711e+01,-3.375000000000000711e+01,3.025000000000000711e+01,-7.250000000000001776e+00,1.000000000000000444e+00,-1.200000000000000355e+01,-3.750000000000001776e+00,2.200000000000000711e+01,-3.250000000000000000e+00,-1.575000000000000355e+01,1.000000000000000000e+00,2.325000000000000711e+01,-2.075000000000000711e+01,-1.250000000000000000e+00,1.925000000000000355e+01,-2.750000000000000000e+00,-2.375000000000000711e+01,1.150000000000000355e+01,9.500000000000003553e+00,-1.600000000000000355e+01,2.025000000000000355e+01,-2.200000000000000355e+01,5.750000000000000888e+00,2.225000000000000355e+01,-2.650000000000000711e+01,1.200000000000000178e+01,1.100000000000000355e+01,-1.975000000000000711e+01,-2.250000000000000000e+00,2.350000000000000711e+01,-1.975000000000000355e+01,1.475000000000000355e+01,-2.200000000000000711e+01,7.750000000000002665e+00,1.600000000000000355e+01,-1.525000000000000355e+01,-5.750000000000000888e+00,2.350000000000000711e+01,-9.750000000000003553e+00,-2.275000000000000355e+01,3.275000000000000711e+01,-3.000000000000000711e+01,2.625000000000000711e+01,-2.750000000000000000e+00,-1.950000000000000711e+01,1.500000000000000355e+01,-1.750000000000000666e+00,1.025000000000000178e+01,-2.750000000000000711e+01,3.125000000000000711e+01,-2.475000000000000711e+01,2.325000000000000711e+01,-1.125000000000000355e+01,-1.075000000000000178e+01,2.400000000000000711e+01,-2.150000000000000355e+01,1.400000000000000355e+01,-1.200000000000000355e+01,2.200000000000000355e+01,-3.000000000000000711e+01,2.475000000000000711e+01,-2.950000000000000711e+01,2.250000000000000711e+01,6.000000000000001776e+00,-2.600000000000000711e+01,3.150000000000000711e+01,-2.175000000000000355e+01,-7.000000000000000888e+00,3.000000000000000711e+01,-3.500000000000000711e+01,2.800000000000000711e+01,-2.750000000000000000e+00,-2.275000000000000711e+01,1.225000000000000355e+01,1.825000000000000355e+01,-1.975000000000000355e+01,-8.750000000000000000e+00,2.600000000000000711e+01,-1.075000000000000355e+01,-1.925000000000000355e+01,3.325000000000000711e+01,-2.800000000000000711e+01,2.275000000000000711e+01,-1.300000000000000355e+01,0.000000000000000000e+00,4.250000000000000888e+00,2.500000000000000000e-01,-3.250000000000000888e+00,-1.400000000000000355e+01,2.700000000000000711e+01,-6.000000000000001776e+00,-1.875000000000000355e+01,2.275000000000000355e+01,-2.575000000000000711e+01,2.700000000000000711e+01,-1.525000000000000355e+01,-8.250000000000001776e+00,2.200000000000000355e+01,-5.500000000000000888e+00,-4.000000000000000000e+00,-4.500000000000000888e+00,6.250000000000001776e+00,-1.400000000000000355e+01,2.100000000000000355e+01,-2.200000000000000355e+01,2.250000000000000355e+01,-2.250000000000000355e+01,2.125000000000000355e+01,-4.250000000000000888e+00,-1.550000000000000355e+01,1.775000000000000355e+01,-4.500000000000000888e+00,-1.850000000000000355e+01,2.450000000000000711e+01,-1.525000000000000355e+01,1.250000000000000355e+01,0.000000000000000000e+00,-1.500000000000000355e+01,0.000000000000000000e+00,8.250000000000001776e+00,1.900000000000000355e+01,-3.200000000000000711e+01,2.375000000000000711e+01,-1.600000000000000355e+01,-4.750000000000000888e+00,2.200000000000000355e+01,-1.000000000000000178e+01,3.500000000000000444e+00,-7.000000000000001776e+00,-1.150000000000000355e+01,1.675000000000000355e+01,8.750000000000003553e+00,-2.500000000000000711e+01,1.475000000000000355e+01,-9.500000000000001776e+00,2.250000000000000711e+01,-6.475000000000001421e+01
