-2.451876250000001960e+02,-3.007501250000001960e+02,-3.486095000000002528e+02,-3.888126250000003665e+02,-4.206876250000003665e+02,-4.444220000000003665e+02,-4.605470000000003665e+02,-4.681876250000003665e+02,-4.682188750000003665e+02,-4.682032500000003665e+02,-4.681876250000003665e+02,-4.681876250000003665e+02,-4.681563750000003665e+02,-4.681720000000003665e+02,-4.681407500000003665e+02,-4.681251250000003665e+02,-4.681407500000003665e+02,-4.681720000000003665e+02,-4.681876250000003665e+02,-4.681563750000003665e+02,-4.681563750000003665e+02,-4.681095000000003665e+02,-4.681095000000003665e+02,-4.680782500000003665e+02,-4.680313750000003665e+02,-4.679845000000003665e+02,-4.679845000000003665e+02,-4.680157500000003665e+02,-4.680313750000003665e+02,-4.669532500000003665e+02,-4.641095000000003665e+02,-4.603282500000003665e+02,-4.529376250000003665e+02,-4.423282500000003665e+02,-4.302501250000003665e+02,-4.155938750000003665e+02,-3.982970000000003665e+02,-3.802813750000003097e+02,-3.616095000000002528e+02,-3.411095000000001960e+02,-3.242970000000001960e+02,-3.107032500000001960e+02,-2.971407500000001960e+02,-2.838595000000001960e+02,-2.705782500000001960e+02,-2.582501250000001960e+02,-2.476251250000001960e+02,-2.385313750000001960e+02,-2.268126250000001960e+02,-2.134220000000001960e+02,-1.977345000000001960e+02,-1.828751250000001392e+02,-1.700626250000001392e+02,-1.547032500000001107e+02,-1.385470000000001107e+02,-1.206251250000001107e+02,-1.037032500000001107e+02,-8.543762500000008231e+01,-7.042200000000006810e+01,-5.532825000000005389e+01,-3.845325000000004678e+01,-2.417200000000003968e+01,-8.687625000000030795e+00,4.421749999999977199e+00,1.746862499999998519e+01,2.940612499999999585e+01,4.274987500000000296e+01,5.637487500000001006e+01,6.853112500000001717e+01,8.146862500000003138e+01,9.181237500000004559e+01,1.020623750000000598e+02,1.110155000000000598e+02,1.189061250000000598e+02,1.267498750000000598e+02,1.325155000000000598e+02,1.383123750000000598e+02,1.438123750000000598e+02,1.502967500000000598e+02,1.567030000000000598e+02,1.638905000000000598e+02,1.706561250000000598e+02,1.743123750000000598e+02,1.787498750000000598e+02,1.825467500000000598e+02,1.847967500000000598e+02,1.856092500000000598e+02,1.876873750000000598e+02,1.891248750000000882e+02,1.902655000000001166e+02,1.953592500000001451e+02,2.010780000000001451e+02,2.083905000000001451e+02,2.169998750000001451e+02,2.270623750000001451e+02,2.358123750000001451e+02,2.460155000000001451e+02,2.557811250000001451e+02,2.622030000000001451e+02,2.678123750000001451e+02,2.719998750000001451e+02,2.746092500000001451e+02,2.767030000000001451e+02,2.798592500000001451e+02,2.816092500000001451e+02,2.847967500000001451e+02,2.906873750000001451e+02,2.977342500000001451e+02,3.059686250000001451e+02,3.163123750000001451e+02,3.275936250000001451e+02,3.367655000000001451e+02,3.461873750000001451e+02,3.549373750000001451e+02,3.598905000000001451e+02,3.630155000000001451e+02,3.616092500000001451e+02,3.585467500000001451e+02,3.526248750000001451e+02,3.463748750000001451e+02,3.388905000000001451e+02,3.297655000000001451e+02,3.233436250000001451e+02,3.160936250000001451e+02,3.133436250000001451e+02,3.107811250000001451e+02,3.098123750000001451e+02,3.119998750000001451e+02,3.151405000000001451e+02,3.216405000000001451e+02,3.284686250000001451e+02,3.370467500000001451e+02,3.428748750000001451e+02,3.489686250000001451e+02,3.557655000000001451e+02,3.605780000000001451e+02,3.663123750000001451e+02,3.697498750000001451e+02,3.731717500000001451e+02,3.775780000000002019e+02,3.862655000000002588e+02,3.967811250000003156e+02,4.089061250000003156e+02,4.223280000000003156e+02,4.357655000000003156e+02,4.516405000000003156e+02,4.669842500000003156e+02,4.827030000000003156e+02,4.957342500000003156e+02,5.066561250000003156e+02,5.150155000000003156e+02,5.218748750000003156e+02,5.274686250000003156e+02,5.307811250000003156e+02,5.333905000000003156e+02,5.340467500000003156e+02,5.342498750000003156e+02,5.343280000000003156e+02,5.343748750000003156e+02,5.344061250000003156e+02,5.344061250000003156e+02,5.343592500000003156e+02,5.342967500000003156e+02,5.342186250000003156e+02,5.341092500000003156e+02,5.339998750000003156e+02,5.339061250000003156e+02,5.337967500000003156e+02,5.337030000000003156e+02,5.336248750000003156e+02,5.335623750000003156e+02,5.335155000000003156e+02,5.334530000000003156e+02,5.333905000000003156e+02,5.332967500000003156e+02,5.330311250000003156e+02,5.321873750000003156e+02,5.312186250000003156e+02,5.301248750000003156e+02,5.289998750000003156e+02,5.279061250000003156e+02,5.268592500000003156e+02,5.258905000000003156e+02,5.253123750000003156e+02,5.258748750000003156e+02,5.266873750000003156e+02,5.277498750000003156e+02,5.288905000000003156e+02,5.300311250000003156e+02,5.311248750000003156e+02,5.321405000000003156e+02,5.329373750000003156e+02,5.331717500000003156e+02,5.332498750000003156e+02,5.332186250000003156e+02,5.331561250000003156e+02,5.331248750000003156e+02,5.331405000000003156e+02,5.332186250000003156e+02,5.333123750000003156e+02,5.334217500000003156e+02,5.335623750000003156e+02,5.336561250000003156e+02,5.337186250000003156e+02,5.337342500000003156e+02,5.337186250000003156e+02,5.336873750000003156e+02,5.336717500000003156e+02,5.336561250000003156e+02,5.336873750000003156e+02,5.337811250000003156e+02,5.339061250000003156e+02,5.340780000000003156e+02,5.342342500000003156e+02,5.343436250000003156e+02,5.343905000000003156e+02,5.344061250000003156e+02,5.343123750000003156e+02,5.341405000000003156e+02,5.338905000000003156e+02,5.335780000000003156e+02,5.332811250000003156e+02,5.330311250000003156e+02,5.328748750000003156e+02,5.327655000000003156e+02,5.328123750000003156e+02,5.329686250000003156e+02,5.332655000000003156e+02,5.336405000000003156e+02,5.340467500000003156e+02,5.344530000000003156e+02,5.348123750000003156e+02,5.351248750000003156e+02,5.353123750000003156e+02,5.354217500000003156e+02,5.354373750000003156e+02,5.354061250000003156e+02,5.353436250000003156e+02,5.352811250000003156e+02,5.352186250000003156e+02,5.351873750000003156e+02,5.352030000000003156e+02,5.352498750000003156e+02,5.353280000000003156e+02,5.354061250000003156e+02,5.354686250000003156e+02,5.355155000000003156e+02,5.355780000000003156e+02,5.356405000000003156e+02,5.356873750000003156e+02,5.357186250000003156e+02,5.357342500000003156e+02,5.357498750000003156e+02,5.358123750000003156e+02,5.358748750000003156e+02,5.359530000000003156e+02,5.360155000000003156e+02,5.360780000000003156e+02,5.361405000000003156e+02,5.361873750000003156e+02,5.362342500000003156e+02,5.362342500000003156e+02,5.362342500000003156e+02,5.361717500000003156e+02,5.360936250000003156e+02,5.359998750000003156e+02,5.358905000000003156e+02,5.357967500000003156e+02,5.356873750000003156e+02,5.355780000000003156e+02,5.354373750000003156e+02,5.352967500000003156e+02,5.351561250000003156e+02,5.350155000000003156e+02,5.348748750000003156e+02,5.347030000000003156e+02,5.338592500000003156e+02,5.324373750000003156e+02,5.290467500000003156e+02,5.248123750000003156e+02,5.198748750000003156e+02,5.128748750000003156e+02,5.031092500000003156e+02,4.899842500000003156e+02,4.765311250000003156e+02,4.632342500000003156e+02,4.522967500000003156e+02,4.420623750000003156e+02,4.312030000000003156e+02,4.217498750000003156e+02,4.156092500000003156e+02,4.129686250000003156e+02,4.099217500000003156e+02,4.037655000000003156e+02,3.950155000000003156e+02,3.841717500000003156e+02,3.727967500000002019e+02,3.615155000000002019e+02,3.469686250000001451e+02,3.304217500000001451e+02,3.143905000000001451e+02,3.007967500000001451e+02,2.866561250000001451e+02,2.717498750000001451e+02,2.558280000000001451e+02,2.374061250000001451e+02,2.204686250000001451e+02,2.034842500000001451e+02,1.857030000000001166e+02,1.671873750000000882e+02,1.509530000000000598e+02,1.359061250000000598e+02,1.227498750000000598e+02,1.123280000000000598e+02,1.017186250000000598e+02,9.292175000000004559e+01,8.339050000000003138e+01,7.484362500000001717e+01,6.504675000000001717e+01,5.506237500000001717e+01,4.492175000000000296e+01,3.132799999999999585e+01,1.748424999999998519e+01,4.998749999999745341e-01,-1.575012500000003612e+01,-3.453137500000004678e+01,-5.378137500000005389e+01,-7.262512500000006810e+01,-9.239075000000008231e+01,-1.103282500000001107e+02,-1.300938750000001107e+02,-1.478751250000001107e+02,-1.656407500000001392e+02,-1.809845000000001392e+02,-1.952501250000001960e+02,-2.083907500000001960e+02,-2.199063750000001960e+02,-2.288907500000001960e+02,-2.343282500000001960e+02,-2.402970000000001960e+02,-2.458751250000001960e+02,-2.513282500000001960e+02,-2.568751250000001960e+02,-2.621563750000001960e+02,-2.675001250000001960e+02,-2.744532500000001960e+02,-2.821563750000001960e+02,-2.876720000000001960e+02,-2.930313750000001960e+02,-2.972970000000001960e+02,-3.011095000000001960e+02,-3.058126250000001960e+02,-3.125470000000001960e+02,-3.185001250000001960e+02,-3.242032500000001960e+02,-3.310938750000001960e+02,-3.380001250000001960e+02,-3.459532500000001960e+02,-3.527188750000001960e+02,-3.603126250000001960e+02,-3.660782500000001960e+02,-3.732501250000002528e+02,-3.812032500000002528e+02,-3.899376250000003665e+02,-3.980313750000003665e+02,-4.068438750000003665e+02,-4.178438750000003665e+02,-4.268751250000003665e+02,-4.355782500000003665e+02,-4.433282500000003665e+02,-4.502032500000003665e+02,-4.555001250000003665e+02,-4.602813750000003665e+02,-4.635626250000003665e+02,-4.650626250000003665e+02,-4.665782500000003665e+02,-4.676876250000003665e+02,-4.680626250000003665e+02,-4.680626250000003665e+02,-4.680470000000003665e+02,-4.680470000000003665e+02,-4.680313750000003665e+02,-4.680157500000003665e+02,-4.680313750000003665e+02,-4.680626250000003665e+02,-4.681251250000003665e+02,-4.681876250000003665e+02,-4.682345000000003665e+02,-4.682657500000003665e+02,-4.682970000000003665e+02,-4.683282500000003665e+02,-4.683126250000003665e+02,-4.682813750000003665e+02,-4.682345000000003665e+02,-4.682032500000003665e+02,-4.682188750000003665e+02,-4.682032500000003665e+02,-4.681876250000003665e+02,-4.681720000000003665e+02,-4.681876250000003665e+02,-4.682501250000003665e+02,-4.683126250000003665e+02,-4.683438750000003665e+02,-4.683282500000003665e+02,-4.683438750000003665e+02,-4.683438750000003665e+02,-4.683438750000003665e+02,-4.682970000000003665e+02,-4.682032500000003665e+02,-4.681095000000003665e+02,-4.680313750000003665e+02,-4.679688750000003665e+02,-4.679220000000003665e+02,-4.679063750000003665e+02,-4.678907500000003665e+02,-4.679376250000003665e+02,-4.679845000000003665e+02,-4.680313750000003665e+02,-4.680782500000003665e+02,-4.681251250000003665e+02,-4.681563750000003665e+02,-4.681720000000003665e+02,-4.681876250000003665e+02,-4.681563750000003665e+02,-4.681563750000003665e+02,-4.681563750000003665e+02,-4.681563750000003665e+02,-4.681563750000003665e+02,-4.681563750000003665e+02,-4.681563750000003665e+02,-4.681563750000003665e+02,-4.681876250000003665e+02,-4.677501250000003665e+02,-4.673126250000003665e+02,-4.662188750000003665e+02,-4.635313750000003665e+02,-4.607188750000003665e+02,-4.570157500000003665e+02,-4.525001250000003665e+02,-4.451251250000003665e+02,-4.368282500000003665e+02,-4.275470000000003665e+02,-4.180938750000003665e+02,-4.099688750000003665e+02,-4.005313750000003665e+02,-3.897501250000003665e+02,-3.772345000000002528e+02,-3.672501250000002528e+02,-3.582501250000001960e+02,-3.475157500000001960e+02,-3.356720000000001960e+02,-3.214220000000001960e+02,-3.062345000000001960e+02,-2.911251250000001960e+02,-2.771251250000001960e+02,-2.619688750000001960e+02,-2.443126250000001960e+02,-2.270470000000001960e+02,-2.092970000000001960e+02,-1.933595000000001960e+02,-1.771720000000001392e+02,-1.628751250000001107e+02,-1.483907500000001107e+02,-1.335626250000001107e+02,-1.210782500000001107e+02,-1.101720000000001107e+02,-1.010626250000001107e+02,-9.235950000000008231e+01,-8.603137500000008231e+01,-7.821887500000006810e+01,-7.214075000000006810e+01,-6.789075000000006810e+01,-6.250012500000006810e+01,-5.723450000000006810e+01,-5.226575000000006810e+01,-4.590637500000005389e+01,-3.875012500000004678e+01,-3.189075000000004678e+01,-2.207825000000003968e+01,-1.018762500000003257e+01,2.109249999999975866e+00,1.614049999999998164e+01,3.220299999999998875e+01,4.867175000000000296e+01,6.610925000000001717e+01,8.412487500000003138e+01,1.001717500000000456e+02,1.161717500000000598e+02,1.306092500000000598e+02,1.439998750000000598e+02,1.571561250000000598e+02,1.684061250000000598e+02,1.790311250000000882e+02,1.870780000000001166e+02,1.940467500000001451e+02,1.991717500000001451e+02,2.040936250000001451e+02,2.064061250000001451e+02,2.051561250000001451e+02,2.016873750000001451e+02,1.938123750000001451e+02,1.854686250000000882e+02,1.758280000000000882e+02,1.628748750000000598e+02,1.471248750000000598e+02,1.295155000000000598e+02,1.105155000000000598e+02,9.289050000000003138e+01,7.785925000000003138e+01,6.232800000000001717e+01,4.976550000000000296e+01,4.126550000000000296e+01,3.682799999999999585e+01,3.864049999999999585e+01,4.501550000000000296e+01,5.339050000000001717e+01,6.460925000000001717e+01,7.907800000000003138e+01,9.140612500000004559e+01,1.051405000000000598e+02,1.177498750000000598e+02,1.284530000000000598e+02,1.386248750000000598e+02,1.482186250000000598e+02,1.548748750000000598e+02,1.609217500000000598e+02,1.680467500000000598e+02,1.711248750000000598e+02,1.729686250000000598e+02,1.704842500000000598e+02,1.643280000000000598e+02,1.557186250000000598e+02,1.462186250000000598e+02,1.336405000000000598e+02,1.187967500000000598e+02,1.046717500000000598e+02,9.143737500000004559e+01,8.162487500000003138e+01,7.595300000000001717e+01,7.093737500000001717e+01,6.793737500000001717e+01,6.751550000000001717e+01,7.070300000000001717e+01,7.560925000000001717e+01,7.943737500000001717e+01,8.351550000000001717e+01,8.448425000000001717e+01,8.724987500000001717e+01,8.826550000000001717e+01,8.643737500000001717e+01,8.131237500000001717e+01,7.370300000000001717e+01,6.717175000000001717e+01,5.946862500000001717e+01,5.470300000000001717e+01,4.884362500000001006e+01,4.607800000000001006e+01,4.873425000000001717e+01,5.471862500000001717e+01,6.560925000000001717e+01,7.793737500000003138e+01,9.239050000000003138e+01,1.061561250000000598e+02,1.215155000000000598e+02,1.346092500000000598e+02,1.432030000000000598e+02,1.487342500000000598e+02,1.491561250000000598e+02,1.464373750000000598e+02,1.403592500000000598e+02,1.316717500000000598e+02,1.202186250000000598e+02,1.070155000000000598e+02,9.393737500000005980e+01,8.218737500000003138e+01,7.235925000000001717e+01,6.295300000000001717e+01,5.470300000000001717e+01,4.749987500000001717e+01,4.001550000000000296e+01,3.403112499999999585e+01,2.878112499999999585e+01,2.296862499999998875e+01,1.629674999999998519e+01,1.040612499999998164e+01,5.937374999999978087e+00,2.702999999999976311e+00,1.187374999999975200e+00,8.592499999999752003e-01,1.234249999999975422e+00,1.890499999999975644e+00,5.156124999999978087e+00,1.004674999999998164e+01,1.614049999999998164e+01,2.264049999999998875e+01,3.056237499999999585e+01,3.896862500000000296e+01,4.864050000000000296e+01,6.078112500000001717e+01,7.162487500000001717e+01,8.204675000000003138e+01,9.068737500000003138e+01,9.968737500000005980e+01,1.076405000000000598e+02,1.155311250000000598e+02,1.228436250000000598e+02,1.273436250000000598e+02,1.308748750000000598e+02,1.343123750000000598e+02,1.379530000000000598e+02,1.397342500000000598e+02,1.419530000000000598e+02,1.429842500000000598e+02,1.431717500000000598e+02,1.451405000000000598e+02,1.484061250000000598e+02,1.513748750000000598e+02,1.541248750000000598e+02,1.571717500000000598e+02,1.588123750000000598e+02,1.613123750000000598e+02,1.627967500000000598e+02,1.621405000000000598e+02,1.602498750000000598e+02,1.575780000000000598e+02,1.548748750000000598e+02,1.526717500000000598e+02,1.509842500000000598e+02,1.486405000000000598e+02,1.473123750000000598e+02,1.464530000000000598e+02,1.473905000000000598e+02,1.483123750000000598e+02,1.494998750000000598e+02,1.509061250000000598e+02,1.519842500000000598e+02,1.528280000000000598e+02,1.540623750000000598e+02,1.564373750000000598e+02,1.562967500000000598e+02,1.571717500000000598e+02,1.564061250000000598e+02,1.551717500000000598e+02,1.537967500000000598e+02,1.512342500000000598e+02,1.475155000000000598e+02,1.415623750000000598e+02,1.363436250000000598e+02,1.284686250000000598e+02,1.210780000000000598e+02,1.112030000000000598e+02,1.008280000000000598e+02,9.020300000000004559e+01,7.914050000000003138e+01,6.915612500000001717e+01,5.806237500000001717e+01,4.876550000000000296e+01,3.874987500000000296e+01,3.115612499999999585e+01,2.435924999999998875e+01,1.865612499999998519e+01,1.351549999999998164e+01,7.968624999999979863e+00,3.312374999999976755e+00,-1.859500000000026798e+00,-5.031375000000029019e+00,-8.922000000000030795e+00,-1.401575000000003435e+01,-1.804700000000003968e+01,-2.290637500000004323e+01,-2.771887500000004678e+01,-3.112512500000004678e+01,-3.506262500000004678e+01,-4.015637500000005389e+01,-4.481262500000005389e+01,-4.865637500000006810e+01,-5.428137500000006810e+01,-5.910950000000006810e+01,-6.367200000000006810e+01,-7.053137500000006810e+01,-7.579700000000006810e+01,-8.153137500000008231e+01,-8.771887500000008231e+01,-9.356262500000009652e+01,-9.914075000000011073e+01,-1.040157500000001107e+02,-1.087345000000001107e+02,-1.120938750000001107e+02,-1.162032500000001107e+02,-1.194220000000001107e+02,-1.219376250000001107e+02,-1.252188750000001107e+02,-1.276095000000001107e+02,-1.313282500000001107e+02,-1.343595000000001107e+02,-1.377032500000001107e+02,-1.411407500000001107e+02,-1.447970000000001107e+02,-1.477032500000001107e+02,-1.495470000000001107e+02,-1.517345000000001107e+02,-1.523126250000001107e+02,-1.538751250000001107e+02,-1.551563750000001107e+02,-1.559688750000001107e+02,-1.562188750000001107e+02,-1.573282500000001107e+02,-1.585938750000001107e+02,-1.595626250000001107e+02,-1.611720000000001107e+02,-1.612657500000001107e+02,-1.600782500000001107e+02,-1.599688750000001107e+02,-1.596407500000001107e+02,-1.597813750000001107e+02,-1.598438750000001107e+02,-1.587188750000001107e+02,-1.575782500000001107e+02,-1.580782500000001107e+02,-1.607813750000001107e+02,-1.622813750000001107e+02,-1.639845000000001107e+02,-1.644220000000001107e+02,-1.654532500000001107e+02,-1.679688750000001107e+02,-1.700938750000001107e+02,-1.706095000000001107e+02,-1.697813750000001107e+02,-1.680626250000001107e+02,-1.673907500000001107e+02,-1.674220000000001107e+02,-1.656876250000001107e+02,-1.638282500000001107e+02,-1.626563750000001107e+02,-1.626095000000001107e+02,-1.617501250000001107e+02,-1.626251250000001107e+02,-1.613595000000001107e+02,-1.603438750000001107e+02,-1.603907500000001107e+02,-1.600470000000001107e+02,-1.588907500000001107e+02,-1.569063750000001107e+02,-1.565157500000001107e+02,-1.554220000000001107e+02,-1.554376250000001107e+02,-1.544688750000001107e+02,-1.546876250000001107e+02,-1.548282500000001107e+02,-1.543907500000001107e+02,-1.549845000000001107e+02,-1.552032500000001107e+02,-1.547032500000001107e+02,-1.552345000000001107e+02,-1.564532500000001107e+02,-1.559220000000001107e+02,-1.551251250000001107e+02,-1.561563750000001107e+02,-1.565157500000001107e+02,-1.559688750000001107e+02,-1.560626250000001107e+02,-1.551876250000001107e+02,-1.537813750000001107e+02,-1.528438750000001107e+02,-1.520157500000001107e+02,-1.501251250000001107e+02,-1.486407500000001107e+02,-1.480470000000001107e+02,-1.479688750000001107e+02,-1.469376250000001107e+02,-1.463438750000001107e+02,-1.465001250000001107e+02,-1.471720000000001107e+02,-1.477345000000001107e+02,-1.473907500000001107e+02,-1.470470000000001107e+02,-1.452970000000001107e+02,-1.447970000000001107e+02,-1.437813750000001107e+02,-1.419220000000001107e+02,-1.398126250000001107e+02,-1.375470000000001107e+02,-1.367032500000001107e+02,-1.351251250000001107e+02,-1.356563750000001107e+02,-1.361095000000001107e+02,-1.371407500000001107e+02,-1.389376250000001107e+02,-1.408751250000001107e+02,-1.437188750000001107e+02,-1.457657500000001107e+02,-1.482970000000001107e+02,-1.496720000000001107e+02,-1.512345000000001107e+02,-1.532970000000001107e+02,-1.541095000000001107e+02,-1.554532500000001107e+02,-1.567657500000001107e+02,-1.582188750000001107e+02,-1.595470000000001107e+02,-1.609532500000001107e+02,-1.621720000000001107e+02,-1.625782500000001107e+02,-1.643438750000001107e+02,-1.651251250000001107e+02,-1.655157500000001107e+02,-1.648595000000001107e+02,-1.647345000000001107e+02,-1.647501250000001107e+02,-1.645470000000001107e+02,-1.656876250000001107e+02,-1.664688750000001107e+02,-1.677813750000001107e+02,-1.689532500000001107e+02,-1.718438750000001107e+02,-1.751563750000001107e+02,-1.774376250000001107e+02,-1.801720000000001107e+02,-1.813126250000001107e+02,-1.818907500000001107e+02,-1.831251250000001107e+02,-1.847345000000001107e+02,-1.852657500000001107e+02,-1.848595000000001107e+02,-1.860938750000001107e+02,-1.864063750000001107e+02,-1.876720000000001392e+02,-1.900626250000001392e+02,-1.920001250000001676e+02,-1.926876250000001960e+02,-1.936407500000001960e+02,-1.950626250000001960e+02,-1.950157500000001960e+02,-1.951407500000001960e+02,-1.941876250000001960e+02,-1.928751250000001960e+02,-1.913595000000001676e+02,-1.920470000000001676e+02,-1.936095000000001960e+02,-1.943751250000001960e+02,-1.971876250000001960e+02,-2.014845000000001960e+02,-2.068595000000001960e+02,-2.126407500000001960e+02,-2.188595000000001960e+02,-2.238907500000001960e+02,-2.289063750000001960e+02,-2.348438750000001960e+02,-2.396251250000001960e+02,-2.433282500000001960e+02,-2.479063750000001960e+02,-2.511720000000001960e+02,-2.536720000000001960e+02,-2.569532500000001960e+02,-2.588907500000001960e+02,-2.606251250000001960e+02,-2.619688750000001960e+02,-2.630782500000001960e+02,-2.625626250000001960e+02,-2.634532500000001960e+02,-2.644532500000001960e+02,-2.635626250000001960e+02,-2.638595000000001960e+02,-2.638282500000001960e+02,-2.637032500000001960e+02,-2.641563750000001960e+02,-2.644376250000001960e+02,-2.634845000000001960e+02,-2.623126250000001960e+02,-2.627970000000001960e+02,-2.625626250000001960e+02,-2.631095000000001960e+02,-2.633126250000001960e+02,-2.625782500000001960e+02,-2.626251250000001960e+02,-2.628438750000001960e+02,-2.631251250000001960e+02,-2.627032500000001960e+02,-2.616251250000001960e+02,-2.588282500000001960e+02,-2.561095000000001960e+02,-2.534063750000001960e+02,-2.489688750000001960e+02,-2.442813750000001960e+02,-2.400626250000001960e+02,-2.342970000000001960e+02,-2.287970000000001960e+02,-2.243595000000001960e+02,-2.199220000000001960e+02,-2.164688750000001960e+02,-2.148282500000001960e+02,-2.122501250000001960e+02,-2.091563750000001960e+02,-2.074376250000001960e+02,-2.050938750000001960e+02,-2.027188750000001960e+02,-2.004845000000001960e+02,-1.972501250000001960e+02,-1.927345000000001676e+02,-1.898595000000001392e+02,-1.868438750000001392e+02,-1.839376250000001107e+02,-1.827345000000001107e+02,-1.808751250000001107e+02,-1.793126250000001107e+02,-1.781407500000001107e+02,-1.787813750000001107e+02,-1.786720000000001107e+02,-1.782188750000001107e+02,-1.789063750000001107e+02,-1.777970000000001107e+02,-1.772657500000001107e+02,-1.765938750000001107e+02,-1.751251250000001107e+02,-1.722345000000001107e+02,-1.707188750000001107e+02,-1.699063750000001107e+02,-1.677345000000001107e+02,-1.663907500000001107e+02,-1.644376250000001107e+02,-1.635938750000001107e+02,-1.635313750000001107e+02,-1.641563750000001107e+02,-1.633751250000001107e+02,-1.633907500000001107e+02,-1.626876250000001107e+02,-1.630782500000001107e+02,-1.647501250000001107e+02,-1.641407500000001107e+02,-1.633751250000001107e+02,-1.618126250000001107e+02,-1.602970000000001107e+02,-1.571720000000001107e+02,-1.556407500000001107e+02,-1.525157500000001107e+02,-1.473282500000001107e+02,-1.430001250000001107e+02,-1.392188750000001107e+02,-1.347813750000001107e+02,-1.305157500000001107e+02,-1.262657500000001107e+02,-1.202188750000001107e+02,-1.139688750000001107e+02,-1.096251250000001107e+02,-1.061720000000001107e+02,-1.013438750000001107e+02,-9.796887500000011073e+01,-9.351575000000008231e+01,-8.942200000000006810e+01,-8.717200000000006810e+01,-8.632825000000006810e+01,-8.385950000000006810e+01,-8.010950000000006810e+01,-7.735950000000006810e+01,-7.360950000000006810e+01,-7.184387500000006810e+01,-7.032825000000006810e+01,-6.662512500000006810e+01,-6.210950000000006810e+01,-5.834387500000006810e+01,-5.492200000000006810e+01,-5.190637500000006810e+01,-4.940637500000006099e+01,-4.551575000000005389e+01,-4.151575000000004678e+01,-3.868762500000004678e+01,-3.568762500000004678e+01,-3.354700000000004678e+01,-3.167200000000004678e+01,-2.864075000000004678e+01,-2.493762500000004323e+01,-2.200012500000003968e+01,-1.921887500000003612e+01,-1.765637500000003612e+01,-1.642200000000003612e+01,-1.410950000000003612e+01,-1.165637500000003257e+01,-8.797000000000032571e+00,-7.015750000000030795e+00,-3.531375000000028574e+00,5.779999999999747562e-01,7.343624999999978087e+00,1.501549999999998342e+01,2.337487499999998875e+01,3.142174999999999585e+01,3.807800000000000296e+01,4.490612500000000296e+01,4.929675000000001006e+01,5.310925000000001717e+01,5.445300000000001717e+01,5.410925000000001717e+01,5.239050000000001717e+01,5.032800000000001717e+01,4.014050000000001006e+01,2.221862499999999585e+01,-2.609500000000025466e+00,-3.601575000000005389e+01,-7.695325000000008231e+01,-1.249688750000001107e+02,-1.814063750000001392e+02
-3.317187500000002842e+01,-7.242187500000004263e+01,-8.887500000000005684e+01,-7.904687500000004263e+01,-4.729687500000002842e+01,-2.368750000000001421e+01,-7.687500000000005329e+00,-1.718750000000001110e-01,-2.031250000000001665e-01,-9.375000000000008327e-02,-4.687500000000004163e-02,1.562500000000000000e-02,1.093750000000000833e-01,6.250000000000005551e-02,9.375000000000006939e-02,7.812500000000005551e-02,3.125000000000002082e-02,0.000000000000000000e+00,-4.687500000000002776e-02,-7.812500000000005551e-02,-1.406250000000000833e-01,-1.250000000000000833e-01,-1.250000000000000833e-01,-3.125000000000000694e-02,1.093750000000000833e-01,1.875000000000001110e-01,2.500000000000001665e-01,1.562500000000001110e-01,4.687500000000004163e-02,-1.156250000000000666e+00,-4.125000000000001776e+00,-7.906250000000003553e+00,-1.529687500000000711e+01,-2.146875000000001421e+01,-2.198437500000001421e+01,-2.139062500000001421e+01,-9.000000000000007105e+00,6.671875000000003553e+00,1.331250000000000711e+01,2.093750000000001421e+01,1.393750000000001243e+01,5.937500000000018874e-01,-4.687499999999987788e-01,-3.250000000000001332e+00,1.406250000000000888e+00,9.265625000000005329e+00,2.578125000000001332e+00,-2.515625000000002220e+00,-6.796875000000005329e+00,-1.150000000000000711e+01,-5.062500000000003553e+00,-2.046875000000001776e+00,-7.968750000000006661e-01,-1.562500000000002220e-01,-1.750000000000000888e+00,1.562499999999994449e-02,-1.218750000000000666e+00,1.265625000000000222e+00,-3.750000000000004441e-01,-1.031250000000000000e+00,4.343750000000002665e+00,5.625000000000003553e+00,8.890625000000005329e+00,7.593750000000003553e+00,1.859375000000001332e+00,-4.828125000000003553e+00,-7.109375000000005329e+00,-6.359375000000004441e+00,-3.203125000000002220e+00,5.546875000000003553e+00,7.703125000000005329e+00,1.139062500000000711e+01,1.312500000000000711e+01,8.359375000000005329e+00,5.828125000000003553e+00,-1.187500000000001332e+00,-7.859375000000005329e+00,-9.734375000000005329e+00,-7.968750000000004441e+00,-2.750000000000001776e+00,4.312500000000002665e+00,9.171875000000005329e+00,9.640625000000007105e+00,8.828125000000007105e+00,6.156250000000003553e+00,4.093750000000002665e+00,1.406250000000000888e+00,-1.796875000000000888e+00,-4.546875000000002665e+00,-8.687500000000005329e+00,-1.090625000000000711e+01,-9.687500000000007105e+00,-9.750000000000007105e+00,-7.984375000000005329e+00,-1.546875000000000222e+00,-1.718750000000000000e-01,5.687500000000004441e+00,1.260937500000000711e+01,1.056250000000000533e+01,1.276562500000000711e+01,1.001562500000000711e+01,2.718750000000001776e+00,1.062500000000000888e+00,-5.406250000000003553e+00,-9.343750000000007105e+00,-9.406250000000005329e+00,-1.217187500000000711e+01,-7.781250000000006217e+00,-6.078125000000004441e+00,-5.234375000000004441e+00,3.593749999999997780e-01,-1.875000000000004441e-01,5.640625000000003553e+00,1.276562500000000888e+01,1.606250000000001066e+01,2.093750000000001421e+01,1.959375000000001421e+01,1.471875000000001066e+01,7.078125000000006217e+00,1.203125000000000666e+00,-6.687500000000005329e+00,-9.812500000000007105e+00,-8.203125000000005329e+00,-9.703125000000005329e+00,-3.390625000000001776e+00,-4.890625000000002665e+00,-6.421875000000003553e+00,-7.984375000000005329e+00,-1.387500000000001066e+01,-1.025000000000000711e+01,-1.114062500000000711e+01,-3.468750000000002665e+00,5.203125000000002665e+00,8.921875000000005329e+00,2.006250000000001421e+01,1.643750000000001066e+01,7.765625000000005329e+00,-1.046875000000000000e+00,-1.909375000000001421e+01,-2.287500000000001421e+01,-1.725000000000001421e+01,-1.307812500000001066e+01,-2.031250000000000000e-01,1.562500000000001332e+00,-2.812500000000001332e+00,-6.250000000000003331e-01,-2.843750000000001776e+00,4.125000000000001776e+00,1.240625000000000711e+01,1.417187500000000888e+01,1.593750000000001066e+01,1.139062500000000711e+01,6.234375000000003553e+00,3.171875000000001776e+00,6.250000000000003331e-01,9.375000000000005551e-02,7.812500000000005551e-02,6.250000000000004163e-02,2.031250000000001388e-01,2.343750000000001665e-01,2.343750000000001665e-01,2.187500000000001665e-01,3.125000000000003469e-02,-1.562499999999999653e-02,-9.375000000000006939e-02,-1.093750000000000833e-01,4.687500000000002082e-02,3.125000000000001388e-02,6.250000000000002776e-02,1.562500000000000000e-02,-1.718750000000001110e-01,-1.875000000000001388e-01,-1.875000000000001388e-01,-6.250000000000005551e-02,2.187500000000001388e-01,5.468750000000003331e-01,1.328125000000000888e+00,2.046875000000001332e+00,2.640625000000001776e+00,2.640625000000001776e+00,5.468750000000003331e-01,-1.843750000000001332e+00,-4.437500000000003553e+00,-6.171875000000005329e+00,-4.671875000000003553e+00,-2.546875000000002220e+00,1.406249999999998890e-01,2.437500000000001332e+00,2.609375000000001332e+00,2.328125000000001332e+00,1.625000000000000888e+00,8.281250000000004441e-01,4.687500000000002220e-01,2.031250000000001110e-01,-7.812500000000005551e-02,-2.656250000000001665e-01,-3.593750000000002220e-01,-5.000000000000003331e-01,-3.906250000000002220e-01,-2.343750000000001665e-01,-9.375000000000005551e-02,2.656250000000002220e-01,4.218750000000003331e-01,4.843750000000003331e-01,5.312500000000004441e-01,2.343750000000001943e-01,-4.687500000000001388e-02,-2.812500000000002220e-01,-5.781250000000004441e-01,-5.468750000000003331e-01,-3.906250000000003331e-01,-2.031250000000001665e-01,1.250000000000000833e-01,2.812500000000001665e-01,3.593750000000002220e-01,4.375000000000003331e-01,4.218750000000003331e-01,4.531250000000003331e-01,4.375000000000003331e-01,3.125000000000002220e-01,1.875000000000001110e-01,-7.812500000000004163e-02,-3.281250000000002220e-01,-5.468750000000003331e-01,-8.125000000000005551e-01,-8.593750000000006661e-01,-8.281250000000006661e-01,-6.250000000000004441e-01,-2.500000000000002220e-01,9.375000000000006939e-02,4.375000000000003331e-01,6.406250000000004441e-01,7.031250000000005551e-01,6.406250000000004441e-01,4.687500000000003886e-01,2.656250000000002220e-01,4.687500000000004163e-02,-1.406250000000001110e-01,-2.656250000000002220e-01,-3.281250000000002220e-01,-2.968750000000002220e-01,-1.875000000000001110e-01,-4.687500000000002776e-02,6.250000000000005551e-02,1.093750000000000833e-01,1.093750000000000833e-01,6.250000000000005551e-02,6.250000000000004163e-02,6.250000000000004163e-02,1.562500000000001041e-02,-1.562500000000001041e-02,-9.375000000000006939e-02,-1.093750000000000833e-01,-4.687500000000004163e-02,1.562500000000000347e-02,6.250000000000004163e-02,0.000000000000000000e+00,-6.250000000000004163e-02,-1.250000000000000833e-01,-4.687500000000002776e-02,1.562500000000001110e-01,2.812500000000002220e-01,4.062500000000003331e-01,2.812500000000002220e-01,4.687500000000005551e-02,-1.093750000000000694e-01,-2.500000000000001665e-01,-1.562500000000000833e-01,1.562500000000000347e-02,1.250000000000000833e-01,2.031250000000001665e-01,1.562500000000001110e-01,4.687500000000004857e-02,6.938893903907229918e-18,-4.687500000000004163e-02,-6.250000000000005551e-02,6.562500000000003331e-01,1.890625000000000888e+00,5.156250000000003553e+00,9.265625000000005329e+00,1.132812500000000711e+01,1.320312500000001066e+01,9.843750000000007105e+00,6.468750000000004441e+00,6.046875000000003553e+00,1.781250000000000666e+00,3.124999999999922284e-02,-9.109375000000005329e+00,-2.143750000000001421e+01,-2.492187500000001421e+01,-2.403125000000001421e+01,-7.078125000000002665e+00,1.278125000000000711e+01,2.456250000000001421e+01,3.193750000000002132e+01,2.296875000000001421e+01,1.171875000000000888e+01,6.250000000000177636e-02,-1.239062500000000711e+01,-1.390625000000001066e+01,-1.493750000000001066e+01,-6.218750000000003553e+00,5.109375000000002665e+00,9.765625000000005329e+00,1.831250000000001066e+01,1.504687500000001066e+01,8.046875000000007105e+00,3.968750000000005329e+00,-1.012500000000000533e+01,-1.704687500000001066e+01,-1.787500000000001066e+01,-1.839062500000001066e+01,-5.234375000000003553e+00,3.687500000000001776e+00,7.421875000000004441e+00,8.218750000000005329e+00,-3.000000000000002220e+00,-7.703125000000005329e+00,-9.531250000000007105e+00,-3.171875000000001776e+00,1.034375000000000711e+01,1.775000000000001421e+01,2.253125000000001421e+01,1.482812500000001066e+01,4.515625000000003553e+00,-5.453125000000003553e+00,-1.182812500000000888e+01,-7.921875000000007105e+00,-3.406250000000003997e+00,3.093750000000000888e+00,6.171875000000003553e+00,3.140625000000001776e+00,-1.093750000000000444e+00,-5.875000000000003553e+00,-1.167187500000000711e+01,-1.309375000000000711e+01,-1.339062500000000711e+01,-1.409375000000001066e+01,-8.906250000000007105e+00,-5.562500000000003553e+00,-4.218750000000008882e-01,8.593750000000005329e+00,1.295312500000000711e+01,1.417187500000000888e+01,9.890625000000005329e+00,-2.406250000000002220e+00,-1.426562500000000888e+01,-1.912500000000001421e+01,-1.545312500000001066e+01,-4.062500000000001776e+00,9.250000000000007105e+00,1.670312500000001066e+01,1.500000000000001066e+01,8.890625000000007105e+00,-9.375000000000044409e-02,-7.140625000000004441e+00,-8.609375000000005329e+00,-7.468750000000005329e+00,-3.640625000000002665e+00,1.515625000000001110e+00,4.843750000000003553e+00,5.890625000000003553e+00,7.343750000000004441e+00,4.515625000000002665e+00,2.796875000000001332e+00,1.984375000000001110e+00,-2.890625000000001776e+00,-3.234375000000002665e+00,-4.843750000000003553e+00,-6.968750000000004441e+00,-5.843750000000003553e+00,-6.359375000000003553e+00,-5.953125000000003553e+00,-4.296875000000002665e+00,-2.921875000000001776e+00,-1.593750000000001110e+00,-5.468750000000004441e-01,-1.718750000000001110e-01,-1.718750000000001110e-01,-6.250000000000004163e-02,0.000000000000000000e+00,1.093750000000000833e-01,2.187500000000001665e-01,2.343750000000001665e-01,2.031250000000001388e-01,7.812500000000005551e-02,-4.687500000000004163e-02,-1.875000000000001665e-01,-2.187500000000001665e-01,-1.875000000000001388e-01,-1.562500000000001110e-01,1.562500000000000694e-02,4.687500000000002776e-02,6.250000000000004163e-02,9.375000000000006939e-02,-1.562500000000001041e-02,3.125000000000002082e-02,7.812500000000005551e-02,6.250000000000005551e-02,7.812500000000006939e-02,1.562500000000001735e-02,-4.687500000000002776e-02,-1.562500000000001041e-02,3.125000000000002082e-02,-1.562500000000001041e-02,-7.812500000000005551e-02,-2.031250000000001388e-01,-3.125000000000002220e-01,-2.187500000000001110e-01,-6.250000000000004163e-02,1.093750000000000833e-01,2.968750000000002220e-01,3.125000000000002220e-01,2.343750000000001665e-01,1.562500000000001110e-01,1.562500000000001388e-02,-6.250000000000005551e-02,-7.812500000000005551e-02,-9.375000000000008327e-02,-1.093750000000000833e-01,-7.812500000000005551e-02,-6.250000000000005551e-02,-4.687500000000004163e-02,4.687500000000004163e-02,4.687500000000004163e-02,4.687500000000004163e-02,4.687500000000004163e-02,-1.562500000000001041e-02,-1.562500000000001041e-02,-1.562500000000001041e-02,-1.562500000000001041e-02,1.562500000000001041e-02,-4.218750000000003331e-01,-8.593750000000006661e-01,-1.953125000000001332e+00,-4.703125000000002665e+00,-5.765625000000003553e+00,-7.718750000000004441e+00,-7.859375000000004441e+00,-4.359375000000002665e+00,-4.906250000000003553e+00,-2.875000000000002220e+00,-3.015625000000002665e+00,-3.328125000000003109e+00,3.171875000000001332e+00,5.140625000000003553e+00,7.437500000000005329e+00,3.453125000000002665e+00,-7.421875000000003553e+00,-1.184375000000000711e+01,-1.256250000000000711e+01,-6.687500000000004441e+00,1.937500000000000888e+00,4.390625000000001776e+00,7.031249999999993339e-01,-3.703125000000003553e+00,-6.359375000000004441e+00,-4.625000000000003553e+00,1.875000000000001332e+00,4.937500000000003553e+00,5.562500000000003553e+00,4.765625000000003553e+00,2.468750000000002220e+00,2.640625000000002665e+00,6.281250000000005329e+00,6.562500000000005329e+00,6.765625000000003553e+00,8.375000000000003553e+00,2.921875000000001332e+00,2.859375000000001776e+00,2.406250000000000888e+00,-2.656250000000001776e+00,-6.093750000000000000e-01,-1.312500000000000666e+00,-2.531250000000001332e+00,-5.781250000000002220e-01,-1.921875000000001332e+00,-4.593750000000003553e+00,-7.656250000000004441e+00,-9.921875000000005329e+00,-1.265625000000000711e+01,-1.218750000000000711e+01,-6.250000000000005329e+00,-2.718750000000002665e+00,4.093750000000003553e+00,9.015625000000005329e+00,6.468750000000004441e+00,6.718750000000005329e+00,3.968750000000002665e+00,2.265625000000001332e+00,4.296875000000002665e+00,4.546875000000002665e+00,4.046875000000002665e+00,3.250000000000002220e+00,5.031250000000003553e+00,5.656250000000003553e+00,1.129687500000000711e+01,1.498437500000001066e+01,1.142187500000000711e+01,1.239062500000000711e+01,8.703125000000007105e+00,7.046875000000005329e+00,1.256250000000000888e+01,1.089062500000000711e+01,7.703125000000005329e+00,5.937500000000004441e+00,-5.625000000000008882e-01,-3.000000000000001776e+00,-1.531250000000001554e+00,-7.687500000000005329e+00,-1.600000000000000711e+01,-2.325000000000001421e+01,-3.287500000000002132e+01,-3.406250000000002132e+01,-2.343750000000001421e+01,-1.425000000000001066e+01,-1.531250000000001776e+00,1.168750000000000711e+01,1.173437500000000711e+01,1.212500000000000888e+01,1.057812500000000711e+01,1.750000000000001332e+00,-8.593750000000004441e-01,-1.328125000000001110e+00,-3.609375000000002665e+00,1.718750000000000444e+00,7.781250000000004441e+00,1.070312500000000711e+01,1.567187500000001066e+01,1.771875000000001066e+01,1.843750000000001066e+01,1.823437500000001066e+01,1.710937500000001066e+01,9.250000000000005329e+00,-2.843750000000002665e+00,-1.153125000000000888e+01,-2.185937500000001421e+01,-2.104687500000001421e+01,-1.543750000000001066e+01,-1.248437500000000711e+01,-4.671875000000002665e+00,-5.062500000000002665e+00,-3.875000000000002220e+00,-1.906250000000000888e+00,-3.796875000000002220e+00,1.062500000000000444e+00,4.156250000000002665e+00,9.328125000000005329e+00,1.493750000000001066e+01,1.601562500000001066e+01,1.251562500000000711e+01,8.437500000000007105e+00,3.843750000000003553e+00,-3.203125000000001776e+00,-5.750000000000003553e+00,-1.489062500000000888e+01,-2.262500000000001421e+01,-2.584375000000001776e+01,-2.764062500000002132e+01,-2.028125000000001421e+01,-1.154687500000000711e+01,5.000000000000008882e-01,9.609375000000007105e+00,1.631250000000000711e+01,2.090625000000001066e+01,1.768750000000001066e+01,1.728125000000001066e+01,1.592187500000001066e+01,1.457812500000001066e+01,1.778125000000001066e+01,1.546875000000000888e+01,8.421875000000005329e+00,1.187500000000000666e+00,-9.671875000000005329e+00,-1.579687500000001066e+01,-1.384375000000000888e+01,-1.231250000000000711e+01,-5.625000000000004441e+00,1.328125000000000222e+00,3.750000000000001776e+00,8.296875000000003553e+00,7.609375000000003553e+00,2.984375000000001776e+00,-2.281250000000000888e+00,-9.578125000000007105e+00,-1.267187500000000888e+01,-1.156250000000000711e+01,-7.796875000000004441e+00,-3.218750000000002665e+00,-4.062500000000003886e-01,6.875000000000004441e-01,-1.203125000000000888e+00,-2.718750000000001776e+00,-6.125000000000004441e+00,-1.137500000000000711e+01,-1.123437500000000711e+01,-1.107812500000000711e+01,-4.937500000000003553e+00,4.671875000000002665e+00,8.015625000000003553e+00,1.071875000000000711e+01,6.453125000000005329e+00,1.265625000000001332e+00,2.500000000000006661e-01,-7.656250000000001110e-01,1.921875000000001332e+00,4.046875000000002665e+00,4.265625000000002665e+00,5.515625000000003553e+00,6.750000000000005329e+00,5.906250000000003553e+00,3.375000000000001776e+00,-1.562500000000004441e-01,-5.531250000000003553e+00,-8.875000000000005329e+00,-6.390625000000003553e+00,-4.921875000000003553e+00,-1.421875000000000666e+00,5.218750000000003553e+00,5.453125000000003553e+00,8.453125000000005329e+00,1.065625000000000711e+01,5.500000000000003553e+00,4.453125000000002665e+00,1.687500000000001554e+00,-3.296875000000001776e+00,-1.781250000000000888e+00,-3.656250000000002665e+00,-6.625000000000005329e+00,-4.421875000000003553e+00,-5.187500000000003553e+00,-2.812500000000002220e+00,2.953125000000001776e+00,2.390625000000001332e+00,1.484375000000001110e+00,1.093750000000000666e+00,-4.125000000000002665e+00,-2.734375000000001776e+00,1.140625000000001110e+00,9.062500000000011102e-01,5.468750000000003553e+00,5.296875000000003553e+00,3.031250000000001776e+00,3.906250000000002665e+00,3.468750000000002665e+00,3.375000000000002665e+00,5.140625000000003553e+00,6.234375000000004441e+00,4.421875000000003553e+00,5.500000000000004441e+00,3.437500000000003109e+00,1.687500000000001332e+00,3.187500000000002220e+00,1.125000000000000444e+00,-3.281250000000005551e-01,-2.359375000000001776e+00,-7.625000000000005329e+00,-9.296875000000005329e+00,-6.828125000000004441e+00,-6.031250000000003553e+00,7.343750000000004441e-01,2.312500000000000888e+00,-8.281250000000009992e-01,1.765625000000000888e+00,-3.437500000000001776e+00,-2.015625000000000888e+00,2.187500000000001776e+00,-1.218750000000000888e+00,1.812500000000000888e+00,1.046875000000000666e+00,-1.640625000000001110e+00,4.531250000000005551e-01,6.406250000000006661e-01,-7.031250000000006661e-01,-6.093750000000004441e-01,7.343750000000006661e-01,-8.906250000000005551e-01,2.062500000000001776e+00,4.625000000000003553e+00,2.421875000000001776e+00,3.437500000000002665e+00,4.687500000000000000e-02,-3.453125000000002220e+00,-4.421875000000003553e+00,-4.156250000000003553e+00,-2.093750000000001776e+00,-7.500000000000006661e-01,1.921875000000001332e+00,-1.406250000000001110e+00,-2.937500000000002220e+00,-2.859375000000001776e+00,-4.828125000000003553e+00,1.312500000000001332e+00,4.468750000000003553e+00,5.687500000000004441e+00,7.093750000000005329e+00,9.062500000000006661e-01,-4.437500000000002665e+00,-7.593750000000005329e+00,-1.000000000000000711e+01,-6.062500000000004441e+00,-1.546875000000001332e+00,2.328125000000001332e+00,6.671875000000004441e+00,4.859375000000003553e+00,3.921875000000002665e+00,2.187500000000004441e-01,-5.515625000000003553e+00,-4.296875000000003553e+00,-5.250000000000003553e+00,-2.281250000000001776e+00,2.406250000000001776e+00,5.468750000000002220e-01,9.374999999999983347e-02,-1.078125000000000888e+00,-1.015625000000000444e+00,1.546875000000001332e+00,4.531250000000003553e+00,4.218750000000003553e+00,7.968750000000004441e-01,1.171875000000000888e+00,-6.875000000000004441e-01,6.875000000000004441e-01,3.156250000000002220e+00,-1.765625000000001332e+00,-3.453125000000002665e+00,-5.750000000000003553e+00,-7.453125000000004441e+00,-3.234375000000001776e+00,-1.218750000000000444e+00,1.437500000000000888e+00,3.328125000000002220e+00,3.906250000000002220e+00,3.859375000000001776e+00,1.250000000000000888e+00,9.531250000000007772e-01,-1.546875000000000888e+00,-3.062500000000001776e+00,-1.390625000000000888e+00,-2.656250000000001776e+00,-2.187500000000001776e+00,1.093750000000000444e+00,3.593750000000000000e-01,1.843750000000001110e+00,3.875000000000002665e+00,-1.093750000000000000e-01,1.671875000000000666e+00,1.015625000000000000e+00,-1.531250000000001332e+00,1.531250000000000666e+00,-7.500000000000006661e-01,-1.531250000000001332e+00,-3.437500000000003331e-01,-1.062500000000000666e+00,7.812500000000004441e-01,2.250000000000001776e+00,2.765625000000001776e+00,6.718750000000003331e-01,-2.218750000000001776e+00,-3.640625000000002665e+00,-4.671875000000003553e+00,-2.171875000000001332e+00,8.593750000000004441e-01,1.859375000000000888e+00,1.593750000000000888e+00,-4.218750000000003331e-01,-1.906250000000001332e+00,-1.750000000000000888e+00,1.484375000000000888e+00,4.890625000000002665e+00,5.796875000000003553e+00,4.890625000000003553e+00,-1.312500000000001554e+00,-5.375000000000003553e+00,-6.343750000000003553e+00,-5.937500000000003553e+00,6.249999999999977796e-02,2.125000000000001332e+00,2.234375000000001332e+00,1.312500000000000888e+00,-2.421875000000001776e+00,-3.187500000000002220e+00,-1.593750000000001110e+00,1.640625000000000888e+00,6.109375000000003553e+00,1.006250000000000711e+01,8.468750000000005329e+00,6.015625000000005329e+00,-4.218750000000000000e-01,-7.890625000000005329e+00,-7.156250000000005329e+00,-8.125000000000005329e+00,-1.687500000000000000e+00,5.625000000000004441e+00,4.750000000000003553e+00,6.687500000000005329e+00,7.812500000000004441e-01,-5.343750000000003553e+00,-4.953125000000003553e+00,-5.625000000000003553e+00,-1.562500000000000000e-01,4.937500000000003553e+00,4.593750000000002665e+00,3.921875000000002665e+00,-1.796875000000001554e+00,-6.593750000000004441e+00,-6.312500000000004441e+00,-6.625000000000005329e+00,-7.968750000000008882e-01,3.937500000000001776e+00,6.578125000000003553e+00,1.067187500000000711e+01,6.796875000000004441e+00,4.093750000000002665e+00,-1.515625000000000444e+00,-7.765625000000005329e+00,-6.171875000000005329e+00,-5.312500000000003553e+00,-2.343750000000004441e-01,2.906250000000001776e+00,1.578125000000000888e+00,-1.250000000000002220e-01,-3.531250000000002220e+00,-1.812500000000000888e+00,2.968750000000000555e-01,2.671875000000001332e+00,5.750000000000003553e+00,2.953125000000001776e+00,7.656250000000005551e-01,-6.093750000000003331e-01,-4.406250000000003553e+00,-4.296875000000003553e+00,-4.718750000000003553e+00,-5.281250000000003553e+00,-2.359375000000001332e+00,-1.546875000000000666e+00,2.000000000000001332e+00,5.625000000000003553e+00,8.000000000000003553e+00,1.107812500000000533e+01,1.020312500000000533e+01,6.562500000000003553e+00,1.875000000000000000e-01,-3.843750000000002665e+00,-6.562500000000003553e+00,-5.781250000000003553e+00,4.218750000000002220e-01,5.468750000000002220e-01,2.015625000000000888e+00,2.031250000000000888e+00,-4.078125000000002665e+00,-3.125000000000002220e+00,-4.187500000000002665e+00,-4.093750000000002665e+00,-2.812500000000001665e-01,-1.171875000000000666e+00,6.093750000000003331e-01,-1.343750000000000888e+00,-2.671875000000001776e+00,-1.156250000000000888e+00,-2.843750000000002220e+00,1.140625000000000000e+00,3.250000000000001776e+00,1.031250000000000444e+00,1.843750000000000888e+00,-8.281250000000008882e-01,-4.546875000000003553e+00,-1.625000000000000888e+00,-1.484375000000000888e+00,-1.437500000000000666e+00,3.390625000000001776e+00,2.187500000000000888e+00,3.515625000000001776e+00,4.843750000000002665e+00,-2.968750000000000000e-01,-2.640625000000001332e+00,-6.734375000000003553e+00,-7.906250000000003553e+00,-3.859375000000002665e+00,-6.562500000000005551e-01,3.125000000000001776e+00,1.546875000000000888e+00,-3.640625000000001776e+00,-6.578125000000003553e+00,-8.546875000000005329e+00,-5.000000000000002665e+00,3.625000000000002220e+00,8.437500000000005329e+00,9.875000000000005329e+00,9.734375000000005329e+00,2.593750000000001332e+00,-2.484375000000001776e+00,-1.828125000000001110e+00,-5.671875000000003553e+00,-4.578125000000002665e+00,-8.906250000000002220e-01,-4.125000000000002665e+00,4.531250000000004441e-01,3.937500000000002665e+00,9.375000000000006661e-01,5.109375000000003553e+00,1.640625000000001332e+00,-9.375000000000000000e-01,2.890625000000001776e+00,1.562499999999988898e-02,3.781250000000001776e+00,3.984375000000001776e+00,6.249999999999955591e-02,1.296875000000000444e+00,-2.640625000000002220e+00,-4.062500000000003553e+00,-2.218750000000001776e+00,-3.140625000000002220e+00,-3.046875000000001776e+00,-4.375000000000003331e-01,-7.656250000000005551e-01,-7.812500000000000000e-02,5.125000000000003553e+00,4.656250000000003553e+00,4.015625000000002665e+00,3.671875000000002665e+00,-4.015625000000002665e+00,-5.265625000000002665e+00,-2.046875000000000888e+00,-1.156250000000000444e+00,6.265625000000005329e+00,7.031250000000006217e+00,2.515625000000001776e+00,-4.062500000000000000e-01,-6.984375000000005329e+00,-8.984375000000007105e+00,-8.812500000000007105e+00,-5.750000000000004441e+00,-7.187500000000005551e-01,2.906250000000001776e+00,6.593750000000004441e+00,4.703125000000003553e+00,-2.656250000000001110e-01,-5.265625000000004441e+00,-8.218750000000007105e+00,-6.218750000000003553e+00,-1.328125000000000888e+00,4.546875000000003553e+00,5.765625000000003553e+00,4.375000000000003553e+00,3.046875000000002220e+00,9.843750000000005551e-01,1.468750000000000888e+00,8.125000000000004441e-01,-6.250000000000011102e-02,-2.156250000000001332e+00,-2.250000000000001332e+00,1.437500000000001332e+00,1.437500000000001332e+00,2.250000000000001332e+00,6.718750000000004441e-01,-4.156250000000002665e+00,-3.734375000000002665e+00,-1.125000000000000666e+00,-5.781250000000004441e-01,1.250000000000000666e+00,2.046875000000001332e+00,-1.203125000000000888e+00,1.156250000000000666e+00,3.656250000000002665e+00,1.140625000000000666e+00,2.515625000000001332e+00,-8.750000000000013323e-01,-5.000000000000003553e+00,-1.156250000000000888e+00,-8.593750000000007772e-01,1.015625000000000222e+00,3.734375000000001776e+00,2.343749999999997780e-01,1.437500000000000888e+00,2.500000000000001776e+00,2.421875000000001332e+00,2.812500000000001776e+00,-2.906250000000002220e+00,-8.703125000000005329e+00,-1.325000000000000711e+01,-1.314062500000000711e+01,-8.250000000000003553e+00,-1.421875000000000222e+00,5.468750000000005329e+00,8.875000000000007105e+00,1.154687500000000711e+01,1.253125000000001066e+01,1.146875000000000711e+01,9.750000000000007105e+00,5.843750000000003553e+00,-8.125000000000006661e-01,-3.937500000000002665e+00,2.312500000000001776e+00,1.785937500000001421e+01,4.718750000000002842e+01,7.996875000000005684e+01,8.840625000000005684e+01,7.373437500000005684e+01,3.023437500000001421e+01
-6.781250000000002842e+01,-9.475000000000004263e+01,-3.043750000000001421e+01,1.875000000000000833e-01,6.250000000000002776e-02,-6.250000000000002776e-02,6.250000000000002776e-02,-6.250000000000002776e-02,-2.500000000000001110e-01,-1.250000000000000555e-01,6.250000000000002776e-02,2.500000000000001110e-01,1.250000000000000833e-01,-3.125000000000001110e-01,-1.250000000000000555e-01,3.750000000000001665e-01,1.875000000000000833e-01,-2.500000000000001110e-01,-1.875000000000001110e-01,6.250000000000002776e-02,1.250000000000000555e-01,6.250000000000002776e-02,-1.875000000000001110e-01,-3.125000000000001665e-01,0.000000000000000000e+00,3.750000000000001665e-01,3.125000000000001110e-01,-6.250000000000002776e-02,-1.875000000000000833e-01,-6.250000000000002776e-02,6.250000000000002776e-02,6.250000000000002776e-02,-1.875000000000001110e-01,-4.625000000000001776e+00,-1.568750000000000533e+01,-1.318750000000000533e+01,2.624999999999999556e+00,-5.562500000000002665e+00,-3.625000000000000000e+00,3.425000000000001421e+01,2.568750000000001421e+01,-1.956250000000000711e+01,-2.256250000000001066e+01,-8.062500000000003553e+00,3.750000000000002665e+00,2.056250000000001066e+01,1.937500000000000711e+01,-2.875000000000001776e+00,-2.981250000000001066e+01,-2.300000000000000711e+01,2.087500000000001066e+01,2.500000000000001066e+01,-1.306250000000000711e+01,-1.706250000000000711e+01,6.625000000000003553e+00,4.937500000000001776e+00,-5.000000000000002665e+00,5.000000000000002665e+00,4.625000000000003553e+00,-6.312500000000001776e+00,-6.812500000000003553e+00,-2.375000000000001332e+00,1.137500000000000355e+01,1.831250000000000711e+01,-7.500000000000000000e-01,-1.625000000000000711e+01,-7.062500000000003553e+00,1.312500000000000222e+00,1.500000000000000666e+00,2.062500000000000888e+00,-4.375000000000005551e-01,5.125000000000001776e+00,8.937500000000003553e+00,3.125000000000004441e-01,-1.250000000000000444e+00,4.000000000000001776e+00,4.125000000000001776e+00,-7.000000000000003553e+00,-2.100000000000000711e+01,-7.125000000000002665e+00,2.387500000000001066e+01,1.525000000000000533e+01,-1.662500000000000711e+01,-5.250000000000003553e+00,2.037500000000001066e+01,1.687500000000003553e+00,-1.768750000000000711e+01,6.187500000000003553e+00,1.575000000000000711e+01,-1.275000000000000711e+01,-1.612500000000000711e+01,5.187500000000003553e+00,2.187500000000001776e+00,-5.437500000000002665e+00,-9.375000000000006661e-01,-3.312500000000001332e+00,3.750000000000004441e-01,5.937500000000001776e+00,5.312500000000001776e+00,1.200000000000000533e+01,8.125000000000000000e-01,-1.450000000000000711e+01,6.562500000000003553e+00,1.662500000000000711e+01,-1.268750000000000533e+01,-2.256250000000001066e+01,7.062500000000003553e+00,1.487500000000000711e+01,-1.656250000000000711e+01,-1.375000000000000533e+01,1.937500000000000711e+01,8.250000000000003553e+00,-1.800000000000000711e+01,-8.375000000000001776e+00,1.637500000000000711e+01,2.337500000000001066e+01,4.125000000000001776e+00,-1.143750000000000355e+01,2.125000000000001776e+00,1.450000000000000711e+01,-2.375000000000000000e+00,-1.562500000000000711e+01,-7.812500000000003553e+00,2.687500000000001332e+00,6.125000000000002665e+00,-2.812500000000001776e+00,-3.062500000000001776e+00,4.312500000000001776e+00,-4.437500000000002665e+00,-1.506250000000000711e+01,-6.250000000000001776e+00,1.100000000000000533e+01,2.250000000000000000e+00,-9.062500000000003553e+00,4.750000000000002665e+00,1.231250000000000533e+01,1.775000000000000711e+01,1.187500000000000711e+01,-2.200000000000001066e+01,-3.037500000000001421e+01,-8.687500000000003553e+00,5.875000000000002665e+00,1.462500000000000711e+01,7.437500000000002665e+00,-5.125000000000002665e+00,-7.687500000000003553e+00,-1.131250000000000533e+01,-7.500000000000000000e-01,1.493750000000000711e+01,1.100000000000000355e+01,2.625000000000000888e+00,3.125000000000001665e-01,-1.250000000000000555e-01,1.250000000000000555e-01,6.250000000000002776e-02,-6.250000000000002776e-02,0.000000000000000000e+00,-6.250000000000002776e-02,0.000000000000000000e+00,1.875000000000000833e-01,1.875000000000000833e-01,0.000000000000000000e+00,0.000000000000000000e+00,1.250000000000000555e-01,-1.875000000000000833e-01,-3.125000000000001110e-01,1.250000000000000833e-01,2.500000000000001110e-01,6.250000000000002776e-02,-6.250000000000002776e-02,-6.250000000000002776e-02,0.000000000000000000e+00,-1.875000000000001110e-01,-2.500000000000001110e-01,6.250000000000002776e-02,2.500000000000001110e-01,3.125000000000001665e-01,3.125000000000002220e-01,6.250000000000004163e-02,4.375000000000000555e-01,3.125000000000000888e+00,3.812500000000001776e+00,-3.625000000000000888e+00,-8.812500000000003553e+00,-2.625000000000000888e+00,2.937500000000001776e+00,1.937500000000001110e+00,7.500000000000003331e-01,6.875000000000002220e-01,6.250000000000002220e-01,3.125000000000001665e-01,-1.875000000000001110e-01,-6.250000000000005551e-02,3.750000000000001665e-01,1.875000000000000833e-01,-3.125000000000001110e-01,-4.375000000000002220e-01,-6.250000000000005551e-02,2.500000000000001110e-01,-2.500000000000001110e-01,-5.000000000000002220e-01,2.500000000000001110e-01,5.000000000000002220e-01,1.250000000000000555e-01,6.250000000000002776e-02,1.250000000000000555e-01,1.875000000000001110e-01,-6.250000000000002776e-02,-5.000000000000002220e-01,-3.125000000000001665e-01,-6.250000000000004163e-02,-1.250000000000000555e-01,1.250000000000000833e-01,3.125000000000001665e-01,1.250000000000000555e-01,0.000000000000000000e+00,0.000000000000000000e+00,6.250000000000002776e-02,2.500000000000001110e-01,3.750000000000002220e-01,6.250000000000002776e-02,-3.750000000000002220e-01,-1.250000000000000278e-01,2.500000000000001110e-01,-1.250000000000000555e-01,-6.250000000000003331e-01,-5.625000000000003331e-01,-6.250000000000005551e-02,1.875000000000000555e-01,-6.250000000000004163e-02,-6.250000000000001388e-02,3.750000000000001665e-01,5.000000000000002220e-01,1.250000000000000833e-01,-6.250000000000002776e-02,1.250000000000000555e-01,1.250000000000000555e-01,-1.250000000000000555e-01,-1.875000000000000833e-01,-6.250000000000002776e-02,-6.250000000000002776e-02,-1.875000000000000833e-01,-1.250000000000000555e-01,1.875000000000001110e-01,3.125000000000001665e-01,0.000000000000000000e+00,-2.500000000000001110e-01,-6.250000000000002776e-02,1.250000000000000555e-01,1.250000000000000555e-01,1.250000000000000555e-01,-6.250000000000002776e-02,-3.125000000000001665e-01,-1.875000000000001110e-01,1.875000000000001110e-01,3.125000000000001665e-01,6.250000000000002776e-02,-1.875000000000000833e-01,-1.875000000000000833e-01,-6.250000000000002776e-02,-6.250000000000002776e-02,6.250000000000002776e-02,4.375000000000002220e-01,3.750000000000002220e-01,-6.250000000000005551e-02,-3.125000000000002220e-01,-3.125000000000001665e-01,-6.250000000000002776e-02,1.250000000000000555e-01,1.250000000000000555e-01,1.875000000000000833e-01,1.250000000000000555e-01,-1.250000000000000555e-01,-1.875000000000000833e-01,0.000000000000000000e+00,1.875000000000000833e-01,6.250000000000002776e-02,-2.500000000000001110e-01,-1.250000000000000833e-01,2.500000000000001110e-01,2.875000000000000888e+00,7.500000000000002665e+00,9.625000000000003553e+00,6.375000000000003553e+00,-1.000000000000000355e+01,-1.843750000000000711e+01,1.025000000000000355e+01,3.112500000000001421e+01,1.812500000000000000e+00,-3.975000000000002132e+01,-3.825000000000001421e+01,3.187500000000003553e+00,2.537500000000001066e+01,2.000000000000000711e+01,1.437500000000000711e+01,4.375000000000008882e-01,-7.437500000000003553e+00,3.500000000000000444e+00,8.000000000000003553e+00,-7.937500000000001776e+00,-2.337500000000001066e+01,-1.075000000000000711e+01,1.131250000000000355e+01,2.056250000000000711e+01,1.068750000000000355e+01,-1.437500000000000533e+01,-4.687500000000000000e+00,2.412500000000001421e+01,6.000000000000001776e+00,-2.156250000000001421e+01,-1.775000000000001066e+01,-5.687500000000002665e+00,2.562500000000001332e+00,1.812500000000000888e+00,5.437500000000003553e+00,1.543750000000000711e+01,6.937500000000001776e+00,-1.356250000000000711e+01,-2.318750000000001066e+01,-7.062500000000003553e+00,1.481250000000000711e+01,1.525000000000000711e+01,8.562500000000003553e+00,7.500000000000002665e+00,4.062500000000000888e+00,-8.687500000000003553e+00,-1.356250000000000711e+01,-4.875000000000002665e+00,-1.125000000000000444e+00,4.562500000000002665e+00,1.375000000000000711e+01,6.562500000000001776e+00,-1.168750000000000533e+01,-1.306250000000000533e+01,7.000000000000001776e+00,1.206250000000000355e+01,-1.612500000000000711e+01,-2.418750000000001066e+01,8.812500000000003553e+00,1.768750000000000711e+01,-8.375000000000003553e+00,-1.718750000000000711e+01,2.500000000000001776e+00,2.506250000000001066e+01,1.943750000000000711e+01,-9.312500000000005329e+00,-1.625000000000001066e+01,-5.375000000000003553e+00,-1.368750000000000533e+01,-1.531250000000000711e+01,1.493750000000000533e+01,2.918750000000001421e+01,6.125000000000002665e+00,-1.031250000000000533e+01,-6.125000000000002665e+00,-4.375000000000001110e-01,1.687500000000000444e+00,-2.250000000000000888e+00,-9.812500000000005329e+00,-4.875000000000002665e+00,1.306250000000000711e+01,1.518750000000000711e+01,-8.562500000000005329e+00,-1.600000000000000711e+01,1.281250000000000533e+01,1.818750000000000711e+01,-1.293750000000000533e+01,-1.456250000000000533e+01,7.250000000000003553e+00,5.875000000000003553e+00,-5.625000000000001776e+00,-5.812500000000002665e+00,-1.437500000000000888e+00,1.875000000000000833e-01,6.250000000000002776e-02,-2.500000000000001110e-01,-1.875000000000001110e-01,6.250000000000002776e-02,6.250000000000002776e-02,-6.250000000000002776e-02,-1.250000000000000555e-01,0.000000000000000000e+00,1.250000000000000555e-01,1.250000000000000555e-01,1.875000000000000833e-01,1.250000000000000555e-01,-1.875000000000001110e-01,-2.500000000000001110e-01,6.250000000000002776e-02,6.250000000000002776e-02,-1.875000000000000833e-01,-1.250000000000000555e-01,6.250000000000002776e-02,2.500000000000001110e-01,1.875000000000001110e-01,-1.875000000000001110e-01,-2.500000000000001110e-01,-6.250000000000002776e-02,1.875000000000001110e-01,4.375000000000002220e-01,6.250000000000000000e-02,-5.625000000000003331e-01,-3.125000000000002220e-01,3.750000000000002220e-01,4.375000000000002220e-01,0.000000000000000000e+00,-3.750000000000001665e-01,-3.125000000000001110e-01,0.000000000000000000e+00,0.000000000000000000e+00,0.000000000000000000e+00,2.500000000000001110e-01,1.875000000000001110e-01,0.000000000000000000e+00,6.250000000000002776e-02,0.000000000000000000e+00,-1.250000000000000555e-01,-6.250000000000002776e-02,0.000000000000000000e+00,6.250000000000002776e-02,6.250000000000002776e-02,-1.875000000000001110e-01,-1.875000000000001110e-01,1.875000000000001110e-01,1.875000000000001110e-01,-6.250000000000002776e-02,-6.250000000000002776e-02,0.000000000000000000e+00,0.000000000000000000e+00,0.000000000000000000e+00,0.000000000000000000e+00,0.000000000000000000e+00,0.000000000000000000e+00,0.000000000000000000e+00,0.000000000000000000e+00,6.250000000000002776e-02,-1.687500000000000888e+00,-3.687500000000001776e+00,-1.062500000000000444e+00,-4.437500000000001776e+00,-8.687500000000003553e+00,8.750000000000005329e+00,1.643750000000000711e+01,-1.112500000000000533e+01,-2.731250000000001066e+01,1.937500000000003553e+00,3.437500000000001421e+01,1.512500000000000355e+01,-1.800000000000001066e+01,-1.581250000000000888e+01,-1.168750000000000711e+01,-1.031250000000000711e+01,1.487500000000000533e+01,2.631250000000001066e+01,-2.000000000000001776e+00,-2.200000000000000711e+01,-8.750000000000001776e+00,4.750000000000003553e+00,2.000000000000000888e+00,3.250000000000000888e+00,1.218750000000000533e+01,1.687500000000000000e+00,-1.625000000000000711e+01,-3.500000000000000000e+00,1.487500000000000711e+01,5.187500000000001776e+00,-2.875000000000001776e+00,8.125000000000006661e-01,1.875000000000003331e-01,4.187500000000001776e+00,3.125000000000000000e-01,-5.375000000000002665e+00,5.937500000000002665e+00,-6.250000000000000000e-01,-1.387500000000000711e+01,6.562500000000003553e+00,1.600000000000000711e+01,-1.043750000000000533e+01,-1.493750000000000711e+01,7.937500000000002665e+00,5.625000000000001776e+00,-1.312500000000000533e+01,-1.362500000000000533e+01,3.750000000000000000e-01,1.387500000000000533e+01,7.187500000000001776e+00,-6.312500000000003553e+00,2.687500000000001776e+00,7.250000000000003553e+00,-6.187500000000003553e+00,-7.125000000000003553e+00,6.375000000000003553e+00,1.225000000000000533e+01,2.750000000000000888e+00,-1.175000000000000355e+01,-9.000000000000003553e+00,1.093750000000000533e+01,1.318750000000000711e+01,5.000000000000001776e+00,6.500000000000001776e+00,-5.687500000000001776e+00,-1.193750000000000355e+01,6.437500000000002665e+00,1.456250000000000711e+01,1.225000000000000533e+01,2.375000000000000888e+00,-1.962500000000000711e+01,-1.206250000000000533e+01,1.575000000000000888e+01,1.143750000000000533e+01,-2.937500000000001776e+00,-9.437500000000003553e+00,-2.262500000000001066e+01,-1.575000000000000711e+01,7.500000000000001110e-01,-7.062500000000003553e+00,-2.750000000000000888e+00,1.281250000000000533e+01,6.187500000000001776e+00,6.562500000000003553e+00,5.250000000000002665e+00,-1.237500000000000711e+01,-9.375000000000017764e-01,1.443750000000000711e+01,-7.437500000000004441e+00,-1.556250000000000888e+01,4.750000000000001776e+00,1.325000000000000711e+01,9.687500000000003553e+00,1.875000000000000888e+00,-5.437500000000002665e+00,3.625000000000001776e+00,1.475000000000000711e+01,7.687500000000003553e+00,3.875000000000000888e+00,-3.125000000000017764e-01,-2.350000000000001066e+01,-2.425000000000000711e+01,5.812500000000003553e+00,1.837500000000000711e+01,6.250000000000000000e-02,-1.862500000000000711e+01,-6.750000000000003553e+00,1.162500000000000533e+01,8.187500000000003553e+00,-4.250000000000001776e+00,-1.381250000000000533e+01,-4.250000000000001776e+00,1.787500000000000711e+01,1.887500000000000711e+01,2.000000000000000000e+00,-7.312500000000003553e+00,-8.437500000000003553e+00,1.312500000000000888e+00,1.412500000000000711e+01,1.125000000000000000e+00,-1.637500000000000711e+01,-1.481250000000000533e+01,-1.050000000000000355e+01,-5.000000000000003553e+00,1.687500000000000444e+00,-3.124999999999991118e-01,-2.937500000000000888e+00,8.250000000000003553e+00,1.381250000000000533e+01,5.687500000000002665e+00,4.562500000000002665e+00,-7.500000000000000000e-01,-7.437500000000003553e+00,6.937500000000001776e+00,1.918750000000000711e+01,9.437500000000003553e+00,-5.875000000000003553e+00,-1.093750000000000711e+01,-4.562500000000001776e+00,-6.187500000000002665e+00,-1.106250000000000533e+01,7.000000000000003553e+00,1.275000000000000533e+01,-1.193750000000000711e+01,-9.750000000000005329e+00,1.893750000000000711e+01,1.662500000000000711e+01,-1.093750000000000533e+01,-1.475000000000000711e+01,1.312500000000000888e+00,-2.562500000000001776e+00,-1.256250000000000711e+01,3.687500000000000888e+00,1.650000000000000711e+01,-3.250000000000000000e+00,-1.612500000000000711e+01,3.000000000000000000e+00,1.281250000000000533e+01,-1.937500000000000888e+00,-1.275000000000000711e+01,-1.181250000000000711e+01,-2.375000000000001332e+00,4.625000000000002665e+00,5.937500000000003553e+00,1.281250000000000533e+01,8.937500000000003553e+00,-1.112500000000000533e+01,-1.706250000000000711e+01,3.812500000000000000e+00,1.906250000000000711e+01,6.875000000000000000e-01,-1.456250000000000711e+01,3.000000000000000000e+00,1.087500000000000533e+01,-4.062500000000001776e+00,1.750000000000000888e+00,1.375000000000000711e+01,-6.062500000000003553e+00,-1.968750000000001066e+01,-1.687500000000001776e+00,8.875000000000003553e+00,3.125000000000001776e+00,-3.812500000000001776e+00,-5.437500000000002665e+00,7.312500000000002665e+00,1.012500000000000355e+01,-1.312500000000000222e+00,3.125000000000000888e+00,1.562500000000000000e+00,-1.200000000000000533e+01,-1.812500000000000000e+00,1.200000000000000711e+01,2.562500000000000888e+00,-1.181250000000000533e+01,-1.143750000000000533e+01,5.500000000000001776e+00,9.562500000000003553e+00,-4.812500000000002665e+00,1.187500000000000888e+00,1.025000000000000533e+01,-7.125000000000001776e+00,-1.275000000000000533e+01,4.999999999999995559e-01,7.625000000000003553e+00,9.937500000000005329e+00,-1.125000000000000888e+00,-1.087500000000000533e+01,3.125000000000001776e+00,1.087500000000000533e+01,-2.312500000000000000e+00,-6.375000000000001776e+00,3.000000000000001332e+00,7.687500000000003553e+00,4.000000000000001776e+00,-4.562500000000001776e+00,-2.937500000000000888e+00,4.437500000000001776e+00,6.250000000000044409e-02,-1.000000000000000444e+00,5.125000000000001776e+00,6.875000000000004441e-01,-8.625000000000003553e+00,-1.125000000000000355e+01,-3.000000000000001776e+00,9.937500000000003553e+00,6.000000000000002665e+00,-1.312500000000000888e+00,-7.500000000000004441e-01,-7.125000000000003553e+00,-3.125000000000002220e+00,4.562500000000001776e+00,3.062500000000001776e+00,6.062500000000002665e+00,-4.562500000000001776e+00,-1.306250000000000533e+01,8.250000000000005329e+00,1.200000000000000711e+01,-1.056250000000000533e+01,-5.000000000000003553e+00,9.750000000000003553e+00,-3.250000000000001776e+00,-6.875000000000003553e+00,5.625000000000001776e+00,5.937500000000002665e+00,1.437500000000000666e+00,-2.687500000000001776e+00,-3.000000000000001776e+00,2.562500000000000888e+00,-2.125000000000000888e+00,-1.081250000000000533e+01,1.312500000000000000e+00,1.500000000000000711e+01,1.437500000000000888e+00,-1.106250000000000355e+01,-5.125000000000001776e+00,2.625000000000000888e+00,3.125000000000000888e+00,-5.062500000000002665e+00,-2.500000000000008882e-01,1.443750000000000711e+01,6.562500000000004441e+00,-8.937500000000003553e+00,-9.375000000000005329e+00,-4.875000000000002665e+00,-3.750000000000002220e-01,2.687500000000001332e+00,1.375000000000000666e+00,-1.875000000000000555e-01,3.437500000000001776e+00,6.875000000000003553e+00,-1.812500000000001332e+00,-5.562500000000002665e+00,9.375000000000005551e-01,-5.250000000000002665e+00,-7.125000000000003553e+00,5.000000000000001776e+00,9.500000000000003553e+00,5.875000000000002665e+00,-6.312500000000002665e+00,-1.731250000000000711e+01,-2.000000000000000000e+00,1.962500000000001066e+01,1.068750000000000711e+01,-7.187500000000003553e+00,-8.812500000000003553e+00,-7.500000000000003553e+00,2.312500000000001776e+00,1.512500000000000711e+01,7.562500000000002665e+00,-9.125000000000003553e+00,-1.681250000000000711e+01,-4.437500000000001776e+00,1.437500000000000711e+01,5.687500000000003553e+00,-1.218750000000000533e+01,-4.562500000000001776e+00,9.250000000000003553e+00,6.125000000000002665e+00,1.187500000000000222e+00,-2.125000000000000888e+00,-1.025000000000000533e+01,-2.500000000000000000e-01,1.406250000000000711e+01,-2.375000000000000000e+00,-1.493750000000000533e+01,1.125000000000000888e+00,9.625000000000003553e+00,2.250000000000000888e+00,-3.625000000000001332e+00,-1.625000000000000222e+00,3.875000000000001776e+00,-1.750000000000000888e+00,-1.812500000000000444e+00,6.187500000000002665e+00,-4.437500000000001776e+00,-5.937500000000002665e+00,1.062500000000000355e+01,1.375000000000000000e+00,-1.550000000000000711e+01,1.000000000000000000e+00,1.643750000000000711e+01,1.062500000000000000e+00,-7.687500000000004441e+00,-8.125000000000006661e-01,-5.437500000000001776e+00,-5.812500000000002665e+00,8.750000000000003553e+00,8.312500000000003553e+00,-6.750000000000003553e+00,-4.875000000000002665e+00,7.375000000000003553e+00,1.125000000000000888e+00,-1.218750000000000533e+01,-4.375000000000001776e+00,1.512500000000000711e+01,1.493750000000000711e+01,-4.187500000000001776e+00,-1.356250000000000711e+01,-9.437500000000005329e+00,5.625000000000000000e-01,9.312500000000003553e+00,2.250000000000000000e+00,-4.375000000000001776e+00,3.187500000000001332e+00,3.812500000000001776e+00,-6.437500000000002665e+00,-7.875000000000003553e+00,2.312500000000000888e+00,7.125000000000002665e+00,1.625000000000000222e+00,1.500000000000000666e+00,8.750000000000003553e+00,3.375000000000001332e+00,-7.312500000000003553e+00,-9.250000000000003553e+00,-8.000000000000003553e+00,1.937500000000001332e+00,7.687500000000003553e+00,4.125000000000001776e+00,5.250000000000001776e+00,-1.250000000000000444e+00,-5.312500000000001776e+00,7.500000000000003331e-01,-6.250000000000003553e+00,-1.081250000000000533e+01,6.812500000000001776e+00,1.981250000000000711e+01,3.750000000000002665e+00,-1.675000000000000711e+01,-5.812500000000003553e+00,9.000000000000003553e+00,-4.562500000000001776e+00,-1.112500000000000355e+01,4.937500000000002665e+00,1.243750000000000533e+01,6.250000000000000000e-01,-5.437500000000001776e+00,7.687500000000003553e+00,8.937500000000003553e+00,-7.000000000000003553e+00,-1.456250000000000711e+01,-9.187500000000003553e+00,7.875000000000002665e+00,1.631250000000000711e+01,8.750000000000017764e-01,-1.106250000000000355e+01,-2.375000000000000888e+00,1.750000000000001554e+00,-6.375000000000002665e+00,2.812500000000000888e+00,1.425000000000000711e+01,-1.062500000000000000e+00,-8.937500000000005329e+00,2.125000000000000888e+00,1.125000000000000888e+00,-3.312500000000001332e+00,1.562500000000000444e+00,-5.000000000000000000e-01,-9.125000000000003553e+00,-2.750000000000000888e+00,1.268750000000000533e+01,4.000000000000001776e+00,-1.281250000000000533e+01,-3.750000000000000000e-01,1.806250000000000711e+01,1.150000000000000533e+01,-5.000000000000002665e+00,-1.268750000000000711e+01,-9.000000000000003553e+00,5.500000000000002665e+00,7.312500000000003553e+00,-6.875000000000003553e+00,4.375000000000000000e-01,1.062500000000000533e+01,-2.937500000000001776e+00,-8.375000000000003553e+00,-3.062500000000001776e+00,-1.250000000000002220e-01,4.500000000000001776e+00,2.625000000000001332e+00,-5.062500000000001776e+00,-3.250000000000001332e+00,7.312500000000003553e+00,1.437500000000001776e+00,-1.137500000000000533e+01,-2.000000000000001776e+00,6.687500000000002665e+00,5.125000000000001776e+00,5.937500000000002665e+00,-6.437500000000001776e+00,-1.268750000000000533e+01,5.687500000000001776e+00,7.125000000000002665e+00,-5.937500000000002665e+00,-1.000000000000000444e+00,3.750000000000001776e+00,1.250000000000001110e-01,-1.437500000000000666e+00,3.250000000000001332e+00,1.006250000000000355e+01,-2.812500000000001776e+00,-2.131250000000001066e+01,-8.937500000000005329e+00,1.631250000000000711e+01,1.256250000000000711e+01,-7.812500000000003553e+00,-4.062500000000001776e+00,5.937500000000002665e+00,-8.062500000000003553e+00,-1.462500000000000533e+01,7.500000000000008882e-01,1.150000000000000533e+01,1.487500000000000711e+01,5.812500000000002665e+00,-1.318750000000000711e+01,-5.937500000000003553e+00,8.062500000000003553e+00,-3.562500000000001776e+00,-3.000000000000001776e+00,5.187500000000002665e+00,-5.812500000000002665e+00,-4.125000000000002665e+00,3.875000000000000888e+00,2.000000000000000888e+00,6.812500000000003553e+00,1.375000000000000888e+00,-8.500000000000003553e+00,-2.437500000000000888e+00,3.875000000000001776e+00,4.187500000000001776e+00,6.250000000000004441e-01,1.937500000000001332e+00,1.500000000000000888e+00,-9.375000000000003553e+00,-8.125000000000000000e-01,1.181250000000000533e+01,-6.937500000000003553e+00,-1.350000000000000533e+01,9.750000000000005329e+00,9.812500000000003553e+00,-8.187500000000003553e+00,-8.312500000000003553e+00,1.062500000000000000e+00,1.350000000000000711e+01,1.250000000000000711e+01,-9.375000000000003553e+00,-1.475000000000000711e+01,-4.000000000000001776e+00,2.625000000000001332e+00,1.050000000000000533e+01,5.875000000000002665e+00,-2.187500000000000888e+00,2.625000000000001332e+00,-3.812500000000002220e+00,-1.337500000000000711e+01,4.375000000000000000e-01,1.000000000000000533e+01,-8.562500000000003553e+00,-1.206250000000000533e+01,1.381250000000000711e+01,1.612500000000000711e+01,-4.687500000000001776e+00,-7.125000000000002665e+00,-3.937500000000002220e+00,-1.118750000000000533e+01,-3.875000000000001776e+00,1.400000000000000533e+01,1.118750000000000355e+01,-1.375000000000000444e+00,-6.375000000000002665e+00,-8.437500000000003553e+00,8.750000000000008882e-01,1.468750000000000711e+01,6.062500000000001776e+00,-1.268750000000000533e+01,-9.312500000000003553e+00,1.000000000000000222e+00,3.500000000000000888e+00,1.318750000000000711e+01,7.750000000000003553e+00,-1.693750000000000711e+01,-1.506250000000000711e+01,6.312500000000003553e+00,1.175000000000000533e+01,6.000000000000002665e+00,-6.062500000000002665e+00,-1.181250000000000533e+01,3.937500000000001776e+00,7.937500000000003553e+00,-3.125000000000000888e+00,4.000000000000002665e+00,6.000000000000003553e+00,-7.750000000000003553e+00,-1.037500000000000533e+01,-2.875000000000001776e+00,1.056250000000000355e+01,1.406250000000000533e+01,-5.500000000000001776e+00,-1.543750000000000711e+01,-1.812500000000000888e+00,1.156250000000000533e+01,9.312500000000003553e+00,-1.250000000000000888e+00,-4.937500000000002665e+00,-7.000000000000002665e+00,-1.212500000000000533e+01,-6.937500000000003553e+00,7.875000000000003553e+00,1.018750000000000355e+01,-8.750000000000008882e-01,-2.875000000000001332e+00,4.000000000000001776e+00,7.000000000000003553e+00,5.375000000000002665e+00,1.625000000000000888e+00,2.500000000000004996e-01,-1.312500000000000444e+00,-9.375000000000003553e+00,-6.250000000000003553e+00,7.250000000000003553e+00,3.625000000000002665e+00,3.012500000000001421e+01,9.806250000000004263e+01,6.200000000000002842e+01
-1.210000000000000284e+02,-2.500000000000000555e-01,-2.500000000000000555e-01,5.000000000000001110e-01,-2.500000000000000555e-01,0.000000000000000000e+00,0.000000000000000000e+00,2.500000000000000555e-01,-5.000000000000001110e-01,2.500000000000000555e-01,0.000000000000000000e+00,-2.500000000000000555e-01,7.500000000000002220e-01,-7.500000000000002220e-01,0.000000000000000000e+00,5.000000000000001110e-01,-2.500000000000000555e-01,2.500000000000000555e-01,-7.500000000000002220e-01,1.000000000000000222e+00,-1.000000000000000222e+00,1.000000000000000222e+00,-7.500000000000002220e-01,2.500000000000000555e-01,-2.500000000000000555e-01,2.500000000000000555e-01,2.500000000000000555e-01,-2.500000000000000555e-01,0.000000000000000000e+00,0.000000000000000000e+00,0.000000000000000000e+00,0.000000000000000000e+00,2.500000000000000555e-01,-7.500000000000002220e-01,7.500000000000002220e-01,-1.800000000000000355e+01,7.500000000000001776e+00,2.300000000000000711e+01,-5.525000000000001421e+01,4.875000000000000711e+01,2.250000000000000711e+01,-4.750000000000001421e+01,1.800000000000000355e+01,-4.000000000000000888e+00,-1.475000000000000355e+01,2.625000000000000711e+01,-3.500000000000000888e+00,1.750000000000000000e+00,1.250000000000000888e+00,-3.925000000000000711e+01,2.675000000000000711e+01,2.975000000000000711e+01,-4.025000000000000711e+01,1.475000000000000355e+01,-1.550000000000000355e+01,3.650000000000000711e+01,-4.525000000000001421e+01,2.900000000000000711e+01,5.000000000000001776e+00,-2.950000000000000711e+01,3.575000000000000711e+01,-4.025000000000001421e+01,3.225000000000000711e+01,-1.050000000000000355e+01,1.925000000000000355e+01,-2.950000000000000711e+01,9.250000000000003553e+00,8.500000000000001776e+00,-1.900000000000000355e+01,2.275000000000000711e+01,-1.425000000000000355e+01,-3.750000000000000000e+00,2.675000000000000711e+01,-2.975000000000000711e+01,2.350000000000000711e+01,-1.750000000000000355e+01,1.625000000000000355e+01,-8.250000000000001776e+00,-1.500000000000000444e+00,-2.000000000000000355e+01,2.175000000000000355e+01,1.875000000000000355e+01,-2.850000000000000711e+01,-4.500000000000001776e+00,2.575000000000000711e+01,-1.750000000000000000e+00,-1.950000000000000355e+01,-3.250000000000001776e+00,4.050000000000001421e+01,-3.800000000000000711e+01,4.500000000000000000e+00,2.500000000000008882e-01,1.900000000000000355e+01,-3.675000000000000711e+01,3.625000000000000711e+01,-2.250000000000000711e+01,-3.250000000000001776e+00,2.650000000000000711e+01,-3.125000000000000711e+01,2.525000000000000711e+01,5.000000000000001776e+00,-2.500000000000000711e+01,3.500000000000001776e+00,3.275000000000000711e+01,-3.075000000000000711e+01,4.000000000000000888e+00,-1.675000000000000355e+01,4.300000000000000711e+01,-2.850000000000000355e+01,-2.150000000000000711e+01,3.550000000000000711e+01,3.000000000000000000e+00,-3.300000000000000711e+01,2.650000000000000355e+01,-2.750000000000000355e+01,4.650000000000001421e+01,-2.850000000000000711e+01,1.200000000000000355e+01,-1.900000000000000355e+01,2.575000000000000711e+01,0.000000000000000000e+00,-3.250000000000000711e+01,3.650000000000000711e+01,-3.925000000000000711e+01,3.675000000000000711e+01,-1.425000000000000355e+01,-1.850000000000000355e+01,4.050000000000000711e+01,-4.300000000000000711e+01,3.450000000000000711e+01,-4.125000000000001421e+01,2.925000000000000711e+01,1.050000000000000355e+01,-4.300000000000001421e+01,4.225000000000001421e+01,-1.850000000000000355e+01,1.000000000000000000e+00,3.025000000000000711e+01,-2.425000000000000711e+01,-2.250000000000000355e+01,2.550000000000000355e+01,-2.175000000000000355e+01,1.350000000000000355e+01,2.050000000000000355e+01,-4.300000000000001421e+01,4.650000000000001421e+01,-4.400000000000000711e+01,1.775000000000000000e+01,4.750000000000001776e+00,1.000000000000000222e+00,2.500000000000000555e-01,2.500000000000000555e-01,-7.500000000000002220e-01,7.500000000000002220e-01,-2.500000000000000555e-01,-2.500000000000000555e-01,5.000000000000001110e-01,-5.000000000000001110e-01,2.500000000000000555e-01,0.000000000000000000e+00,0.000000000000000000e+00,2.500000000000000555e-01,-5.000000000000001110e-01,5.000000000000001110e-01,0.000000000000000000e+00,-7.500000000000002220e-01,7.500000000000002220e-01,-2.500000000000000555e-01,0.000000000000000000e+00,2.500000000000000555e-01,-5.000000000000001110e-01,5.000000000000001110e-01,-2.500000000000000555e-01,-2.500000000000000555e-01,2.500000000000000555e-01,0.000000000000000000e+00,0.000000000000000000e+00,2.500000000000000555e-01,0.000000000000000000e+00,-2.500000000000000555e-01,2.500000000000000555e-01,2.000000000000000444e+00,4.000000000000001776e+00,-1.350000000000000355e+01,7.250000000000001776e+00,-1.250000000000000222e+00,1.000000000000000222e+00,-2.500000000000000555e-01,5.000000000000001110e-01,-2.500000000000000555e-01,7.500000000000002220e-01,-7.500000000000002220e-01,2.500000000000000555e-01,0.000000000000000000e+00,5.000000000000001110e-01,-7.500000000000002220e-01,5.000000000000001110e-01,-7.500000000000002220e-01,7.500000000000002220e-01,0.000000000000000000e+00,-1.000000000000000222e+00,7.500000000000002220e-01,2.500000000000000555e-01,-5.000000000000001110e-01,5.000000000000001110e-01,-2.500000000000000555e-01,0.000000000000000000e+00,5.000000000000001110e-01,-7.500000000000002220e-01,0.000000000000000000e+00,5.000000000000001110e-01,-7.500000000000002220e-01,5.000000000000001110e-01,0.000000000000000000e+00,0.000000000000000000e+00,0.000000000000000000e+00,0.000000000000000000e+00,0.000000000000000000e+00,0.000000000000000000e+00,2.500000000000000555e-01,0.000000000000000000e+00,0.000000000000000000e+00,-7.500000000000002220e-01,1.250000000000000444e+00,-1.000000000000000222e+00,5.000000000000001110e-01,-7.500000000000002220e-01,2.500000000000000555e-01,2.500000000000000555e-01,-2.500000000000000555e-01,0.000000000000000000e+00,0.000000000000000000e+00,5.000000000000001110e-01,-2.500000000000000555e-01,0.000000000000000000e+00,0.000000000000000000e+00,2.500000000000000555e-01,-2.500000000000000555e-01,0.000000000000000000e+00,0.000000000000000000e+00,0.000000000000000000e+00,0.000000000000000000e+00,-2.500000000000000555e-01,2.500000000000000555e-01,0.000000000000000000e+00,2.500000000000000555e-01,-5.000000000000001110e-01,2.500000000000000555e-01,0.000000000000000000e+00,0.000000000000000000e+00,0.000000000000000000e+00,2.500000000000000555e-01,-5.000000000000001110e-01,2.500000000000000555e-01,-2.500000000000000555e-01,5.000000000000001110e-01,-2.500000000000000555e-01,0.000000000000000000e+00,0.000000000000000000e+00,-2.500000000000000555e-01,5.000000000000001110e-01,-7.500000000000002220e-01,7.500000000000002220e-01,0.000000000000000000e+00,-2.500000000000000555e-01,2.500000000000000555e-01,-5.000000000000001110e-01,2.500000000000000555e-01,0.000000000000000000e+00,0.000000000000000000e+00,0.000000000000000000e+00,2.500000000000000555e-01,-2.500000000000000555e-01,0.000000000000000000e+00,0.000000000000000000e+00,0.000000000000000000e+00,2.500000000000000555e-01,-2.500000000000000555e-01,-2.500000000000000555e-01,5.000000000000001110e-01,-2.500000000000000555e-01,2.500000000000000555e-01,1.025000000000000178e+01,-1.200000000000000178e+01,2.425000000000000355e+01,-4.075000000000000711e+01,1.525000000000000355e+01,2.475000000000000355e+01,-1.075000000000000178e+01,-1.250000000000000000e+00,-3.750000000000000711e+01,1.675000000000000711e+01,2.075000000000000355e+01,-1.950000000000000355e+01,2.550000000000000711e+01,-4.750000000000001776e+00,-1.925000000000000355e+01,2.475000000000000711e+01,-1.975000000000000355e+01,2.625000000000000355e+01,-3.425000000000000711e+01,2.000000000000000000e+00,1.875000000000000355e+01,-1.925000000000000355e+01,3.600000000000000711e+01,-2.325000000000000711e+01,-2.200000000000000355e+01,4.525000000000001421e+01,-1.075000000000000355e+01,-2.075000000000000355e+01,1.250000000000000355e+01,-1.400000000000000355e+01,3.750000000000001332e+00,1.700000000000000355e+01,-3.675000000000000711e+01,5.125000000000001421e+01,-3.450000000000000711e+01,2.225000000000000355e+01,-2.250000000000000711e+01,-1.100000000000000178e+01,3.175000000000000711e+01,-2.150000000000000711e+01,2.125000000000000711e+01,-1.100000000000000355e+01,5.000000000000000888e+00,1.250000000000000178e+01,-4.100000000000000711e+01,4.525000000000001421e+01,-4.425000000000001421e+01,3.750000000000000711e+01,-2.900000000000000711e+01,4.100000000000000711e+01,-4.075000000000000711e+01,2.175000000000000355e+01,-2.425000000000000711e+01,3.625000000000000711e+01,-1.775000000000000355e+01,-2.300000000000000355e+01,1.325000000000000355e+01,2.300000000000000355e+01,-2.650000000000000711e+01,8.750000000000001776e+00,-1.475000000000000355e+01,2.075000000000000711e+01,7.000000000000001776e+00,-2.000000000000000000e+00,-2.450000000000000711e+01,2.400000000000000711e+01,-1.300000000000000178e+01,-1.350000000000000355e+01,5.750000000000001776e+00,2.475000000000000711e+01,-6.750000000000001776e+00,-1.425000000000000355e+01,1.725000000000000355e+01,-2.250000000000000711e+01,2.575000000000000711e+01,-2.450000000000000711e+01,2.300000000000000711e+01,-3.450000000000000711e+01,3.300000000000000711e+01,-1.200000000000000355e+01,1.725000000000000355e+01,-3.375000000000000711e+01,1.225000000000000355e+01,3.250000000000000711e+01,-3.450000000000000711e+01,5.000000000000008882e-01,1.100000000000000178e+01,2.500000000000000000e-01,-5.500000000000000888e+00,-5.000000000000001110e-01,5.000000000000001110e-01,-5.000000000000001110e-01,7.500000000000002220e-01,-7.500000000000002220e-01,2.500000000000000555e-01,0.000000000000000000e+00,0.000000000000000000e+00,0.000000000000000000e+00,0.000000000000000000e+00,-2.500000000000000555e-01,5.000000000000001110e-01,-5.000000000000001110e-01,5.000000000000001110e-01,-2.500000000000000555e-01,2.500000000000000555e-01,-5.000000000000001110e-01,2.500000000000000555e-01,2.500000000000000555e-01,-5.000000000000001110e-01,2.500000000000000555e-01,0.000000000000000000e+00,-2.500000000000000555e-01,7.500000000000002220e-01,-7.500000000000002220e-01,2.500000000000000555e-01,0.000000000000000000e+00,-2.500000000000000555e-01,5.000000000000001110e-01,0.000000000000000000e+00,-2.500000000000000555e-01,-5.000000000000001110e-01,7.500000000000002220e-01,-2.500000000000000555e-01,2.500000000000000555e-01,-2.500000000000000555e-01,-2.500000000000000555e-01,2.500000000000000555e-01,0.000000000000000000e+00,-2.500000000000000555e-01,2.500000000000000555e-01,2.500000000000000555e-01,-5.000000000000001110e-01,5.000000000000001110e-01,-2.500000000000000555e-01,0.000000000000000000e+00,0.000000000000000000e+00,0.000000000000000000e+00,0.000000000000000000e+00,0.000000000000000000e+00,2.500000000000000555e-01,-7.500000000000002220e-01,7.500000000000002220e-01,-2.500000000000000555e-01,0.000000000000000000e+00,0.000000000000000000e+00,0.000000000000000000e+00,0.000000000000000000e+00,0.000000000000000000e+00,0.000000000000000000e+00,0.000000000000000000e+00,0.000000000000000000e+00,0.000000000000000000e+00,0.000000000000000000e+00,0.000000000000000000e+00,0.000000000000000000e+00,2.500000000000000555e-01,-7.750000000000001776e+00,1.475000000000000355e+01,-1.775000000000000355e+01,-4.500000000000001776e+00,3.850000000000000711e+01,-3.575000000000000711e+01,1.350000000000000355e+01,-3.350000000000000711e+01,4.825000000000001421e+01,-2.500000000000000000e+00,-2.150000000000000711e+01,2.000000000000000000e+00,1.075000000000000355e+01,-2.975000000000000711e+01,2.125000000000000711e+01,7.250000000000001776e+00,1.125000000000000355e+01,-3.850000000000000711e+01,2.825000000000000355e+01,-2.225000000000000355e+01,2.725000000000000711e+01,-3.100000000000000711e+01,2.925000000000000711e+01,-4.750000000000000888e+00,-1.100000000000000355e+01,-6.750000000000001776e+00,1.775000000000000355e+01,4.250000000000000888e+00,-2.600000000000000711e+01,3.500000000000000711e+01,-3.025000000000000711e+01,1.400000000000000355e+01,1.225000000000000355e+01,-3.025000000000000711e+01,2.300000000000000355e+01,5.000000000000000888e+00,-2.550000000000000711e+01,7.750000000000001776e+00,2.350000000000000711e+01,-1.725000000000000355e+01,-1.350000000000000355e+01,1.400000000000000355e+01,1.075000000000000178e+01,-2.400000000000000711e+01,1.150000000000000355e+01,-1.150000000000000355e+01,7.750000000000001776e+00,1.750000000000000355e+01,-2.650000000000000711e+01,1.025000000000000355e+01,1.500000000000000355e+01,-2.225000000000000711e+01,1.350000000000000355e+01,-1.550000000000000355e+01,2.650000000000000711e+01,-1.925000000000000711e+01,1.550000000000000355e+01,-2.600000000000000711e+01,1.450000000000000355e+01,1.925000000000000355e+01,-3.175000000000000711e+01,3.225000000000000711e+01,-1.000000000000000178e+01,-1.975000000000000711e+01,1.900000000000000355e+01,2.500000000000000888e+00,-9.250000000000001776e+00,2.400000000000000355e+01,-2.050000000000000355e+01,-1.800000000000000355e+01,2.975000000000000711e+01,-1.250000000000000000e+00,-1.800000000000000355e+01,2.425000000000000355e+01,-2.550000000000000711e+01,-8.000000000000001776e+00,1.550000000000000355e+01,7.500000000000002220e-01,-3.550000000000000711e+01,5.525000000000001421e+01,-3.750000000000000711e+01,1.100000000000000355e+01,2.025000000000000355e+01,-2.600000000000000711e+01,-3.000000000000001776e+00,2.650000000000000711e+01,-8.000000000000003553e+00,-3.125000000000000711e+01,4.025000000000001421e+01,-3.025000000000000711e+01,3.150000000000000711e+01,-2.125000000000000711e+01,1.550000000000000355e+01,-2.275000000000000711e+01,2.975000000000000711e+01,-8.750000000000001776e+00,-9.000000000000001776e+00,2.300000000000000355e+01,-1.725000000000000355e+01,-2.550000000000000355e+01,2.850000000000000711e+01,-1.200000000000000355e+01,1.950000000000000355e+01,-2.100000000000000711e+01,-1.325000000000000178e+01,3.850000000000000711e+01,-3.700000000000000711e+01,3.750000000000000711e+01,-3.600000000000000711e+01,1.150000000000000355e+01,1.750000000000000000e+00,1.350000000000000355e+01,-3.000000000000000000e+00,-1.200000000000000355e+01,1.825000000000000355e+01,-3.175000000000000711e+01,3.475000000000000711e+01,-4.250000000000000000e+00,-2.625000000000000711e+01,2.775000000000000711e+01,-3.675000000000000711e+01,3.050000000000000711e+01,-2.825000000000000711e+01,2.925000000000000711e+01,-2.600000000000000711e+01,9.750000000000001776e+00,1.650000000000000355e+01,-1.675000000000000355e+01,1.025000000000000178e+01,6.500000000000001776e+00,-1.875000000000000355e+01,8.750000000000001776e+00,1.150000000000000178e+01,-2.250000000000000000e+00,5.000000000000000000e-01,-5.500000000000000888e+00,-7.000000000000001776e+00,1.750000000000000355e+01,-2.475000000000000711e+01,2.750000000000000000e+00,3.025000000000000711e+01,-2.800000000000000711e+01,-4.750000000000000000e+00,1.550000000000000355e+01,9.250000000000003553e+00,-7.250000000000001776e+00,-1.725000000000000355e+01,1.625000000000000355e+01,-7.500000000000000000e-01,-1.300000000000000355e+01,-1.500000000000000000e+00,2.050000000000000355e+01,-5.500000000000000888e+00,-1.600000000000000355e+01,3.500000000000000000e+00,1.900000000000000711e+01,-1.550000000000000355e+01,1.250000000000000444e+00,7.500000000000000000e-01,-1.850000000000000355e+01,3.275000000000000711e+01,-3.375000000000000711e+01,3.025000000000000711e+01,-7.250000000000001776e+00,1.000000000000000444e+00,-1.200000000000000355e+01,-3.750000000000001776e+00,2.200000000000000711e+01,-3.250000000000000000e+00,-1.575000000000000355e+01,1.000000000000000000e+00,2.325000000000000711e+01,-2.075000000000000711e+01,-1.250000000000000000e+00,1.925000000000000355e+01,-2.750000000000000000e+00,-2.375000000000000711e+01,1.150000000000000355e+01,9.500000000000003553e+00,-1.600000000000000355e+01,2.025000000000000355e+01,-2.200000000000000355e+01,5.750000000000000888e+00,2.225000000000000355e+01,-2.650000000000000711e+01,1.200000000000000178e+01,1.100000000000000355e+01,-1.975000000000000711e+01,-2.250000000000000000e+00,2.350000000000000711e+01,-1.975000000000000355e+01,1.475000000000000355e+01,-2.200000000000000711e+01,7.750000000000002665e+00,1.600000000000000355e+01,-1.525000000000000355e+01,-5.750000000000000888e+00,2.350000000000000711e+01,-9.750000000000003553e+00,-2.275000000000000355e+01,3.275000000000000711e+01,-3.000000000000000711e+01,2.625000000000000711e+01,-2.750000000000000000e+00,-1.950000000000000711e+01,1.500000000000000355e+01,-1.750000000000000666e+00,1.025000000000000178e+01,-2.750000000000000711e+01,3.125000000000000711e+01,-2.475000000000000711e+01,2.325000000000000711e+01,-1.125000000000000355e+01,-1.075000000000000178e+01,2.400000000000000711e+01,-2.150000000000000355e+01,1.400000000000000355e+01,-1.200000000000000355e+01,2.200000000000000355e+01,-3.000000000000000711e+01,2.475000000000000711e+01,-2.950000000000000711e+01,2.250000000000000711e+01,6.000000000000001776e+00,-2.600000000000000711e+01,3.150000000000000711e+01,-2.175000000000000355e+01,-7.000000000000000888e+00,3.000000000000000711e+01,-3.500000000000000711e+01,2.800000000000000711e+01,-2.750000000000000000e+00,-2.275000000000000711e+01,1.225000000000000355e+01,1.825000000000000355e+01,-1.975000000000000355e+01,-8.750000000000000000e+00,2.600000000000000711e+01,-1.075000000000000355e+01,-1.925000000000000355e+01,3.325000000000000711e+01,-2.800000000000000711e+01,2.275000000000000711e+01,-1.300000000000000355e+01,0.000000000000000000e+00,4.250000000000000888e+00,2.500000000000000000e-01,-3.250000000000000888e+00,-1.400000000000000355e+01,2.700000000000000711e+01,-6.000000000000001776e+00,-1.875000000000000355e+01,2.275000000000000355e+01,-2.575000000000000711e+01,2.700000000000000711e+01,-1.525000000000000355e+01,-8.250000000000001776e+00,2.200000000000000355e+01,-5.500000000000000888e+00,-4.000000000000000000e+00,-4.500000000000000888e+00,6.250000000000001776e+00,-1.400000000000000355e+01,2.100000000000000355e+01,-2.200000000000000355e+01,2.250000000000000355e+01,-2.250000000000000355e+01,2.125000000000000355e+01,-4.250000000000000888e+00,-1.550000000000000355e+01,1.775000000000000355e+01,-4.500000000000000888e+00,-1.850000000000000355e+01,2.450000000000000711e+01,-1.525000000000000355e+01,1.250000000000000355e+01,0.000000000000000000e+00,-1.500000000000000355e+01,0.000000000000000000e+00,8.250000000000001776e+00,1.900000000000000355e+01,-3.200000000000000711e+01,2.375000000000000711e+01,-1.600000000000000355e+01,-4.750000000000000888e+00,2.200000000000000355e+01,-1.000000000000000178e+01,3.500000000000000444e+00,-7.000000000000001776e+00,-1.150000000000000355e+01,1.675000000000000355e+01,8.750000000000003553e+00,-2.500000000000000711e+01,1.475000000000000355e+01,-9.500000000000001776e+00,2.250000000000000711e+01,-3.000000000000000711e+01,3.275000000000000711e+01,-2.675000000000000711e+01,-5.000000000000000000e-01,2.050000000000000355e+01,-5.750000000000000888e+00,-1.500000000000000355e+01,3.500000000000000000e+00,1.875000000000000711e+01,-2.575000000000000711e+01,3.000000000000000711e+01,-3.500000000000000711e+01,2.975000000000000711e+01,-9.750000000000001776e+00,-1.400000000000000355e+01,2.350000000000000711e+01,-8.000000000000000000e+00,-1.850000000000000355e+01,2.425000000000000711e+01,-1.250000000000000000e+00,-1.600000000000000355e+01,-1.500000000000000000e+00,2.075000000000000355e+01,-4.750000000000000000e+00,-1.775000000000000355e+01,2.225000000000000355e+01,-1.500000000000000355e+01,-1.000000000000000000e+00,1.000000000000000000e+00,1.650000000000000355e+01,-1.800000000000000355e+01,3.250000000000000444e+00,1.000000000000000000e+00,1.250000000000000178e+01,-2.150000000000000355e+01,8.250000000000001776e+00,-3.750000000000001332e+00,2.150000000000000711e+01,-1.450000000000000355e+01,-4.500000000000000888e+00,6.000000000000001776e+00,-1.475000000000000355e+01,1.775000000000000355e+01,2.500000000000000000e-01,-1.725000000000000355e+01,2.025000000000000355e+01,-1.375000000000000355e+01,1.500000000000000355e+01,-2.600000000000000711e+01,2.300000000000000711e+01,-1.375000000000000355e+01,1.525000000000000355e+01,-1.600000000000000355e+01,1.100000000000000355e+01,1.075000000000000355e+01,-2.525000000000000711e+01,2.200000000000000355e+01,-1.975000000000000355e+01,2.500000000000000000e-01,2.275000000000000711e+01,-2.775000000000000711e+01,2.400000000000000711e+01,-4.250000000000000000e+00,-1.775000000000000355e+01,2.325000000000000355e+01,-1.475000000000000355e+01,-2.250000000000000000e+00,-2.750000000000000888e+00,1.700000000000000355e+01,-5.000000000000000000e-01,-7.500000000000001776e+00,-1.725000000000000355e+01,3.200000000000000711e+01,-1.725000000000000355e+01,-1.050000000000000355e+01,1.650000000000000355e+01,-1.050000000000000355e+01,2.200000000000000711e+01,-3.075000000000000711e+01,1.900000000000000355e+01,9.250000000000003553e+00,-1.925000000000000355e+01,1.200000000000000355e+01,-1.650000000000000355e+01,3.500000000000000000e+00,1.950000000000000711e+01,-1.350000000000000355e+01,4.750000000000000888e+00,-1.600000000000000355e+01,2.575000000000000711e+01,-2.200000000000000711e+01,-2.500000000000000000e-01,2.050000000000000711e+01,-7.000000000000002665e+00,-1.500000000000000355e+01,1.600000000000000355e+01,-2.250000000000000888e+00,-1.150000000000000355e+01,1.500000000000000355e+01,-1.125000000000000355e+01,9.500000000000001776e+00,-2.100000000000000355e+01,2.050000000000000355e+01,6.250000000000000888e+00,-2.275000000000000355e+01,8.500000000000000000e+00,5.750000000000001776e+00,9.250000000000003553e+00,-1.050000000000000355e+01,1.000000000000000000e+00,-3.750000000000000888e+00,-9.000000000000001776e+00,2.900000000000000711e+01,-2.600000000000000711e+01,-1.000000000000000000e+00,2.550000000000000711e+01,-1.925000000000000355e+01,-3.500000000000000444e+00,1.675000000000000355e+01,-2.800000000000000711e+01,3.250000000000000711e+01,-2.600000000000000711e+01,2.225000000000000711e+01,-2.450000000000000711e+01,1.575000000000000355e+01,8.000000000000000000e+00,-2.150000000000000355e+01,5.250000000000000888e+00,1.475000000000000355e+01,-2.050000000000000355e+01,2.075000000000000355e+01,-3.750000000000000000e+00,-1.850000000000000711e+01,8.250000000000003553e+00,2.150000000000000355e+01,-3.500000000000000711e+01,2.500000000000000711e+01,-8.000000000000001776e+00,-3.500000000000000888e+00,1.200000000000000355e+01,-1.950000000000000355e+01,2.225000000000000355e+01,-3.500000000000000000e+00,-1.325000000000000355e+01,-6.750000000000001776e+00,1.300000000000000355e+01,9.250000000000001776e+00,-9.500000000000001776e+00,-1.250000000000000355e+01,2.575000000000000711e+01,-1.550000000000000355e+01,-9.250000000000001776e+00,7.250000000000000888e+00,4.250000000000000888e+00,-5.000000000000000888e+00,2.075000000000000355e+01,-1.775000000000000355e+01,-1.450000000000000355e+01,3.375000000000000711e+01,-2.150000000000000355e+01,-8.500000000000003553e+00,2.825000000000000711e+01,-2.175000000000000711e+01,-6.250000000000001776e+00,2.775000000000000711e+01,-3.125000000000000711e+01,2.075000000000000355e+01,7.750000000000002665e+00,-3.100000000000000711e+01,3.125000000000000711e+01,-2.475000000000000711e+01,1.800000000000000711e+01,-2.000000000000000888e+00,-1.550000000000000355e+01,2.925000000000000711e+01,-2.625000000000000711e+01,-5.000000000000000000e-01,2.050000000000000355e+01,-6.500000000000000888e+00,-2.150000000000000355e+01,1.575000000000000355e+01,1.750000000000000355e+01,-3.300000000000000711e+01,2.475000000000000711e+01,-1.950000000000000355e+01,1.075000000000000178e+01,1.225000000000000355e+01,-6.250000000000002665e+00,-2.200000000000000355e+01,2.825000000000000711e+01,-2.725000000000000711e+01,1.775000000000000355e+01,1.200000000000000355e+01,-3.175000000000000711e+01,3.475000000000000711e+01,-2.300000000000000355e+01,9.000000000000001776e+00,-2.050000000000000355e+01,3.175000000000000711e+01,-1.525000000000000355e+01,-1.650000000000000355e+01,1.675000000000000355e+01,1.300000000000000355e+01,-1.600000000000000355e+01,0.000000000000000000e+00,8.500000000000001776e+00,-1.150000000000000355e+01,-4.750000000000000000e+00,9.250000000000001776e+00,1.350000000000000178e+01,-2.300000000000000355e+01,2.350000000000000711e+01,-2.475000000000000711e+01,1.100000000000000355e+01,-2.500000000000000000e-01,1.400000000000000355e+01,-1.500000000000000355e+01,-9.750000000000003553e+00,2.250000000000000711e+01,-2.275000000000000711e+01,1.400000000000000355e+01,1.425000000000000355e+01,-1.975000000000000355e+01,-8.750000000000003553e+00,1.475000000000000355e+01,-2.000000000000000444e+00,-5.000000000000002220e-01,1.075000000000000178e+01,-2.275000000000000711e+01,6.250000000000001776e+00,2.175000000000000711e+01,-2.850000000000000711e+01,1.300000000000000355e+01,1.325000000000000355e+01,-2.275000000000000711e+01,1.200000000000000178e+01,-8.500000000000001776e+00,-1.750000000000000000e+00,2.125000000000000711e+01,-1.025000000000000355e+01,-1.475000000000000355e+01,1.525000000000000355e+01,-1.450000000000000355e+01,2.850000000000000711e+01,-2.700000000000000711e+01,1.700000000000000355e+01,-1.050000000000000355e+01,-2.500000000000000000e-01,-5.000000000000000888e+00,-2.000000000000000000e+00,2.175000000000000355e+01,-2.325000000000000355e+01,1.625000000000000355e+01,-1.400000000000000355e+01,1.825000000000000355e+01,-1.475000000000000355e+01,1.725000000000000355e+01,-1.800000000000000355e+01,1.575000000000000355e+01,-8.250000000000001776e+00,-1.200000000000000178e+01,1.500000000000000355e+01,4.250000000000000888e+00,-2.175000000000000711e+01,2.800000000000000711e+01,1.070000000000000284e+02
