-4.232337500000002706e+01,-3.815150000000002706e+01,-3.452650000000001995e+01,-3.040150000000001995e+01,-2.569837500000001640e+01,-2.191712500000001285e+01,-1.799525000000001285e+01,-1.418275000000000929e+01,-1.041712500000000574e+01,-6.964000000000002188e+00,-4.589000000000000412e+00,-1.917124999999999746e+00,-2.649999999999852474e-02,1.817250000000002697e+00,3.598500000000004029e+00,5.692250000000004917e+00,7.582875000000006693e+00,9.973500000000008470e+00,1.391100000000001025e+01,1.772350000000001202e+01,2.219225000000001558e+01,2.620787500000002268e+01,3.036412500000002268e+01,3.381725000000002268e+01,3.548912500000002268e+01,3.541100000000002268e+01,3.358287500000002268e+01,3.006725000000002268e+01,2.412975000000001558e+01,1.703600000000001202e+01,7.973500000000005805e+00,-1.901500000000000190e+00,-1.141712500000000574e+01,-1.969837500000001285e+01,-2.730775000000001640e+01,-3.429212500000001995e+01,-3.919837500000001995e+01,-4.307337500000002706e+01,-4.474525000000002706e+01,-4.482337500000002706e+01,-4.321400000000002706e+01,-4.137025000000002706e+01,-3.927650000000002706e+01,-3.568275000000001995e+01,-3.199525000000001995e+01,-2.801087500000001995e+01,-2.519837500000001995e+01,-2.271400000000001285e+01,-2.147962500000001285e+01,-2.002650000000001285e+01,-1.799525000000000929e+01,-1.701087500000000929e+01,-1.707337500000000929e+01,-1.755775000000000929e+01,-1.877650000000000929e+01,-2.147962500000001285e+01,-2.483900000000001640e+01,-3.097962500000001995e+01,-3.919837500000002706e+01,-4.927650000000002706e+01,-6.040150000000004127e+01,-7.199525000000004127e+01,-8.374525000000005548e+01,-9.572962500000006969e+01,-1.085733750000000839e+02,-1.204952500000000839e+02,-1.334796250000000839e+02,-1.459483750000000839e+02,-1.582452500000000839e+02,-1.723702500000001123e+02,-1.863858750000001692e+02,-2.011671250000001692e+02,-2.159483750000001692e+02,-2.306046250000001692e+02,-2.446202500000001692e+02,-2.598390000000001692e+02,-2.755421250000001692e+02,-2.915265000000001692e+02,-3.100733750000001692e+02,-3.294796250000001692e+02,-3.497452500000001692e+02,-3.718858750000001692e+02,-3.942452500000002829e+02,-4.157921250000002829e+02,-4.375890000000002829e+02,-4.571202500000003397e+02,-4.728702500000003397e+02,-4.855108750000003397e+02,-4.954171250000003397e+02,-5.022140000000003397e+02,-5.068858750000003397e+02,-5.097296250000003397e+02,-5.103702500000003397e+02,-5.103858750000003397e+02,-5.103858750000003397e+02,-5.104015000000003397e+02,-5.104327500000003397e+02,-5.104640000000003397e+02,-5.105265000000003397e+02,-5.105890000000003397e+02,-5.106515000000003397e+02,-5.106983750000003397e+02,-5.107296250000003397e+02,-5.107765000000003397e+02,-5.108077500000003397e+02,-5.108233750000003397e+02,-5.108233750000003397e+02,-5.108233750000003397e+02,-5.108233750000003397e+02,-5.108233750000003397e+02,-5.108233750000003397e+02,-5.108077500000003397e+02,-5.107921250000003397e+02,-5.107452500000003397e+02,-5.090421250000003397e+02,-5.058233750000003397e+02,-4.998233750000003397e+02,-4.910890000000003397e+02,-4.789171250000003397e+02,-4.633546250000003397e+02,-4.430421250000002829e+02,-4.173390000000002829e+02,-3.896983750000002829e+02,-3.588077500000001692e+02,-3.273546250000001692e+02,-2.954952500000001692e+02,-2.637452500000001692e+02,-2.321983750000001692e+02,-2.029015000000001692e+02,-1.770733750000001123e+02,-1.517452500000000839e+02,-1.293390000000000839e+02,-1.076202500000000839e+02,-8.608900000000005548e+01,-6.627650000000004127e+01,-4.730775000000002706e+01,-2.860462500000001995e+01,-9.401500000000003965e+00,7.676625000000006693e+00,2.481725000000001558e+01,4.067662500000002979e+01,5.447350000000003689e+01,6.834850000000004400e+01,8.134850000000005821e+01,9.350475000000008663e+01,1.043641250000000866e+02,1.154891250000000866e+02,1.257391250000000866e+02,1.356610000000000866e+02,1.454891250000000866e+02,1.542235000000000866e+02,1.616922500000000866e+02,1.682078750000000866e+02,1.738953750000000866e+02,1.785360000000000866e+02,1.826141250000000866e+02,1.858485000000000866e+02,1.886141250000001151e+02,1.916453750000001719e+02,1.951141250000001719e+02,1.978016250000001719e+02,2.004578750000001719e+02,2.036297500000001719e+02,2.068328750000001719e+02,2.104891250000001719e+02,2.146141250000001719e+02,2.184578750000001719e+02,2.223797500000001719e+02,2.284422500000001719e+02,2.356297500000001719e+02,2.436141250000001719e+02,2.525047500000001719e+02,2.618953750000001719e+02,2.722235000000001719e+02,2.838328750000001719e+02,2.968328750000001719e+02,3.086922500000001719e+02,3.199266250000001719e+02,3.304578750000001719e+02,3.406297500000001719e+02,3.510203750000001719e+02,3.603485000000001719e+02,3.675203750000001719e+02,3.728953750000001719e+02,3.780828750000001719e+02,3.828172500000002856e+02,3.878797500000002856e+02,3.917703750000002856e+02,3.943016250000003424e+02,3.961141250000003424e+02,3.992703750000003424e+02,4.025203750000003424e+02,4.055516250000003424e+02,4.082703750000003424e+02,4.098016250000003424e+02,4.109578750000003424e+02,4.119891250000003424e+02,4.137703750000003424e+02,4.142860000000003424e+02,4.139110000000003424e+02,4.133016250000003424e+02,4.129422500000003424e+02,4.115360000000003424e+02,4.103328750000003424e+02,4.088485000000003424e+02,4.060360000000003424e+02,4.024891250000003424e+02,3.988641250000002856e+02,3.942078750000002856e+02,3.883172500000002856e+02,3.833016250000002856e+02,3.775828750000001719e+02,3.711922500000001719e+02,3.643641250000001719e+02,3.570828750000001719e+02,3.490985000000001719e+02,3.415360000000001719e+02,3.335672500000001719e+02,3.241297500000001719e+02,3.143641250000001719e+02,3.035203750000001719e+02,2.912078750000001719e+02,2.786766250000001719e+02,2.648016250000001719e+02,2.487391250000001719e+02,2.313485000000001719e+02,2.138016250000001719e+02,1.960203750000001719e+02,1.788797500000001151e+02,1.625828750000000866e+02,1.457235000000000866e+02,1.299422500000000866e+02,1.152547500000000866e+02,1.013172500000000866e+02,8.670787500000005821e+01,7.173912500000004400e+01,5.592662500000003689e+01,4.000475000000002979e+01,2.489537500000001558e+01,9.723500000000008470e+00,-5.932750000000002188e+00,-2.179212500000001285e+01,-3.733900000000001995e+01,-5.287025000000002706e+01,-6.776087500000004127e+01,-8.310462500000005548e+01,-9.904212500000006969e+01,-1.155265000000000839e+02,-1.319796250000000839e+02,-1.478546250000000839e+02,-1.620577500000000839e+02,-1.765265000000001123e+02,-1.909640000000001692e+02,-2.039327500000001692e+02,-2.161358750000001692e+02,-2.264327500000001692e+02,-2.338390000000001692e+02,-2.395577500000001692e+02,-2.446827500000001692e+02,-2.466358750000001692e+02,-2.463233750000001692e+02,-2.449796250000001692e+02,-2.418077500000001692e+02,-2.381827500000001692e+02,-2.354171250000001692e+02,-2.318702500000001692e+02,-2.283233750000001692e+02,-2.261046250000001692e+02,-2.237296250000001692e+02,-2.214015000000001692e+02,-2.191358750000001692e+02,-2.169796250000001692e+02,-2.141515000000001692e+02,-2.119952500000001692e+02,-2.097140000000001692e+02,-2.058390000000001692e+02,-2.024327500000001692e+02,-1.976983750000001692e+02,-1.933702500000001692e+02,-1.881983750000001123e+02,-1.828546250000000839e+02,-1.771827500000000839e+02,-1.700421250000000839e+02,-1.634327500000000839e+02,-1.566046250000000839e+02,-1.505265000000000839e+02,-1.439171250000000839e+02,-1.378858750000000839e+02,-1.317296250000000839e+02,-1.249483750000000839e+02,-1.200890000000000839e+02,-1.154952500000000839e+02,-1.102140000000000839e+02,-1.059796250000000839e+02,-1.013077500000000839e+02,-9.641712500000008390e+01,-9.218275000000005548e+01,-8.872962500000004127e+01,-8.383900000000004127e+01,-7.929212500000004127e+01,-7.524525000000004127e+01,-6.966712500000004127e+01,-6.537025000000004127e+01,-6.099525000000004127e+01,-5.626087500000004127e+01,-5.162025000000004127e+01,-4.802650000000004127e+01,-4.315150000000002706e+01,-3.838587500000001995e+01,-3.463587500000001995e+01,-2.946400000000001995e+01,-2.432337500000001285e+01,-1.930775000000001285e+01,-1.396400000000000752e+01,-7.589000000000003077e+00,-3.026500000000000412e+00,1.254750000000002252e+00,5.161000000000004917e+00,7.176625000000005805e+00,9.254750000000006693e+00,1.148912500000000847e+01,1.261412500000001202e+01,1.269225000000001202e+01,1.361412500000001202e+01,1.353600000000001202e+01,1.436412500000001202e+01,1.603600000000001202e+01,1.636412500000001202e+01,1.658287500000001202e+01,1.787975000000001202e+01,1.836412500000001202e+01,1.870787500000001202e+01,1.995787500000001202e+01,2.030162500000001202e+01,2.122350000000001202e+01,2.319225000000001558e+01,2.477037500000002268e+01,2.587975000000002268e+01,2.877037500000002268e+01,3.161412500000002268e+01,3.484850000000002268e+01,3.797350000000002268e+01,4.011412500000002268e+01,4.255162500000002268e+01,4.512975000000002979e+01,4.739537500000002979e+01,4.842662500000004400e+01,4.867662500000004400e+01,4.827037500000004400e+01,4.809850000000004400e+01,4.808287500000004400e+01,4.725475000000003689e+01,4.541100000000002979e+01,4.437975000000002268e+01,4.334850000000002268e+01,4.337975000000002268e+01,4.377037500000002268e+01,4.445787500000002268e+01,4.445787500000002268e+01,4.411412500000002268e+01,4.500475000000002268e+01,4.464537500000002268e+01,4.370787500000002268e+01,4.130162500000002268e+01,3.770787500000002268e+01,3.356725000000002268e+01,3.086412500000002268e+01,2.808287500000002268e+01,2.378600000000001913e+01,1.992662500000001558e+01,1.658287500000001202e+01,1.425475000000001202e+01,1.264537500000001025e+01,1.141100000000000847e+01,8.598500000000006693e+00,6.817250000000006693e+00,6.848500000000006693e+00,7.082875000000006693e+00,8.411000000000006693e+00,9.676625000000006693e+00,1.087975000000000847e+01,1.175475000000000847e+01,1.347350000000001202e+01,1.366100000000001202e+01,1.273912500000001202e+01,1.097350000000000847e+01,8.004750000000008470e+00,4.239125000000004917e+00,1.254750000000002252e+00,-2.088999999999999968e+00,-5.292125000000002188e+00,-7.073375000000002188e+00,-9.182750000000003965e+00,-9.917125000000005741e+00,-1.140150000000000752e+01,-1.190150000000000929e+01,-1.416712500000000929e+01,-1.618275000000000929e+01,-1.885462500000001285e+01,-2.291712500000001285e+01,-2.633900000000001640e+01,-3.179212500000001995e+01,-3.641712500000001995e+01,-4.135462500000002706e+01,-4.488587500000002706e+01,-4.896400000000003416e+01,-5.308900000000004127e+01,-5.565150000000004127e+01,-5.854212500000004127e+01,-5.997962500000004127e+01,-6.068275000000004127e+01,-6.230775000000004127e+01,-6.458900000000004127e+01,-6.530775000000004127e+01,-6.566712500000004127e+01,-6.671400000000004127e+01,-6.779212500000004127e+01,-6.822962500000004127e+01,-7.001087500000004127e+01,-7.085462500000004127e+01,-7.080775000000004127e+01,-7.179212500000004127e+01,-7.322962500000004127e+01,-7.576087500000004127e+01,-7.766712500000004127e+01,-8.083900000000004127e+01,-8.377650000000004127e+01,-8.701087500000004127e+01,-9.127650000000005548e+01,-9.630775000000008390e+01,-1.006983750000000839e+02,-1.041827500000000839e+02,-1.089015000000000839e+02,-1.128233750000000839e+02,-1.160733750000000839e+02,-1.186827500000000839e+02,-1.215577500000000839e+02,-1.230108750000000839e+02,-1.249640000000000839e+02,-1.263233750000000839e+02,-1.267765000000000839e+02,-1.289952500000000839e+02,-1.316046250000000839e+02,-1.347608750000000839e+02,-1.374796250000000839e+02,-1.420577500000000839e+02,-1.464483750000000839e+02,-1.526827500000000839e+02,-1.596827500000000839e+02,-1.647296250000000839e+02,-1.701358750000000839e+02,-1.764796250000000839e+02,-1.822608750000000839e+02,-1.858858750000001123e+02,-1.892608750000001123e+02,-1.912765000000001123e+02,-1.920890000000001692e+02,-1.939796250000001692e+02,-1.957765000000001692e+02,-1.960108750000001692e+02,-1.965577500000001692e+02,-1.987921250000001692e+02,-2.019015000000001692e+02,-2.042608750000001692e+02,-2.078233750000001692e+02,-2.112296250000001692e+02,-2.132140000000001692e+02,-2.161046250000001692e+02,-2.196046250000001692e+02,-2.212452500000001692e+02,-2.209952500000001692e+02,-2.205890000000001692e+02,-2.179796250000001692e+02,-2.138702500000001692e+02,-2.105108750000001692e+02,-2.052452500000001692e+02,-1.983233750000001692e+02,-1.913546250000001407e+02,-1.848546250000001123e+02,-1.788077500000000839e+02,-1.737921250000000839e+02,-1.686358750000000839e+02,-1.633858750000000839e+02,-1.590108750000000839e+02,-1.554171250000000839e+02,-1.521202500000000839e+02,-1.487452500000000839e+02,-1.459015000000000839e+02,-1.430890000000000839e+02,-1.409796250000000839e+02,-1.384952500000000839e+02,-1.361358750000000839e+02,-1.329015000000000839e+02,-1.309483750000000839e+02,-1.293702500000000839e+02,-1.273390000000000839e+02,-1.254483750000000839e+02,-1.237452500000000839e+02,-1.218077500000000839e+02,-1.201515000000000839e+02,-1.200421250000000839e+02,-1.182140000000000839e+02,-1.171202500000000839e+02,-1.157140000000000839e+02,-1.144640000000000839e+02,-1.124952500000000839e+02,-1.104015000000000839e+02,-1.076202500000000839e+02,-1.020108750000000839e+02,-9.716712500000008390e+01,-9.037025000000005548e+01,-8.222962500000005548e+01,-7.266712500000004127e+01,-6.346400000000004127e+01,-5.494837500000004127e+01,-4.762025000000003416e+01,-4.279212500000002706e+01,-3.844837500000001995e+01,-3.554212500000001995e+01,-3.626087500000001995e+01,-3.922962500000001995e+01,-4.507337500000002706e+01,-5.226087500000004127e+01,-5.957337500000004127e+01,-6.840150000000004127e+01,-7.726087500000004127e+01,-8.829212500000005548e+01,-9.821400000000008390e+01,-1.084015000000000839e+02,-1.172452500000000839e+02,-1.264015000000000839e+02,-1.359483750000000839e+02,-1.441983750000000839e+02,-1.523702500000000839e+02,-1.581827500000000839e+02,-1.626202500000000839e+02,-1.654171250000000839e+02,-1.665265000000000839e+02,-1.645108750000000839e+02,-1.610890000000000839e+02,-1.562608750000000839e+02,-1.502608750000000839e+02,-1.430577500000000839e+02,-1.353702500000000839e+02,-1.274171250000000839e+02,-1.191202500000000839e+02,-1.113233750000000839e+02,-1.018233750000000839e+02,-9.174525000000008390e+01,-8.272962500000005548e+01,-7.401087500000004127e+01,-6.669837500000004127e+01,-5.901087500000004127e+01,-5.052650000000003416e+01,-4.337025000000002706e+01,-3.854212500000001995e+01,-3.504212500000001995e+01,-2.980775000000001995e+01,-2.521400000000001285e+01,-1.987025000000001285e+01,-1.544837500000000929e+01,-1.255775000000000574e+01,-9.479625000000003965e+00,-6.073375000000002188e+00,-2.245249999999999968e+00,-4.952499999999989688e-01,1.270375000000002252e+00,2.364125000000003141e+00,2.286000000000003141e+00,1.832875000000002697e+00,1.879750000000002697e+00,2.176625000000002697e+00,1.504750000000002252e+00,5.516250000000016973e-01,-1.979624999999999968e+00,-4.526500000000001300e+00,-6.339000000000002188e+00,-9.651500000000005741e+00,-1.402650000000000752e+01,-2.001087500000001285e+01,-2.646400000000001640e+01,-3.144837500000001995e+01,-3.535462500000001995e+01,-3.832337500000001995e+01,-4.118275000000001995e+01,-4.085462500000001995e+01,-3.972962500000001995e+01,-3.565150000000001995e+01,-2.980775000000001995e+01,-2.393275000000001285e+01,-1.632337500000000929e+01,-9.620250000000005741e+00,-1.526499999999999524e+00,5.629750000000004917e+00,1.280162500000000847e+01,1.784850000000001202e+01,2.292662500000001558e+01,2.717662500000002268e+01,2.916100000000002268e+01,3.219225000000002268e+01,3.475475000000002268e+01,3.608287500000002268e+01,3.845787500000002268e+01,4.220787500000002979e+01,4.402037500000002979e+01,4.591100000000003689e+01,4.870787500000004400e+01,4.961412500000004400e+01,4.870787500000004400e+01,4.878600000000004400e+01,4.722350000000003689e+01,4.395787500000002979e+01,4.131725000000002268e+01,3.775475000000002268e+01,3.319225000000002268e+01,3.033287500000002268e+01,2.789537500000002268e+01,2.483287500000001913e+01,2.097350000000001558e+01,1.798912500000001558e+01,1.634850000000001202e+01,1.542662500000001202e+01,1.641100000000001202e+01,1.645787500000001202e+01,1.844225000000001558e+01,2.030162500000001558e+01,2.477037500000001558e+01,2.937975000000002268e+01,3.244225000000002268e+01,3.697350000000002268e+01,4.102037500000002979e+01,4.550475000000002979e+01,4.933287500000004400e+01,5.425475000000004400e+01,5.698912500000004400e+01,5.908287500000004400e+01,6.261412500000004400e+01,6.569225000000004400e+01,6.803600000000004400e+01,7.003600000000004400e+01,7.127037500000004400e+01,7.122350000000004400e+01,7.283287500000004400e+01,7.600475000000004400e+01,7.795787500000004400e+01,7.889537500000004400e+01,7.955162500000004400e+01,8.091100000000004400e+01,8.209850000000004400e+01,8.553600000000004400e+01,8.833287500000004400e+01,9.067662500000005821e+01,9.480162500000008663e+01,9.894225000000008663e+01,1.044578750000000866e+02,1.101610000000000866e+02,1.172860000000000866e+02,1.222235000000000866e+02,1.276766250000000866e+02,1.319891250000000866e+02,1.353797500000000866e+02,1.404891250000000866e+02,1.461766250000000866e+02,1.520516250000000866e+02,1.575203750000000866e+02,1.641453750000000866e+02,1.700203750000000866e+02,1.775203750000000866e+02,1.857391250000001151e+02,1.923797500000001435e+02,1.964422500000001719e+02,1.984735000000001719e+02,1.981766250000001719e+02,1.961766250000001719e+02,1.929266250000001719e+02,1.877547500000001435e+02,1.796141250000001151e+02,1.702860000000000866e+02,1.614578750000000866e+02,1.542703750000000866e+02,1.480203750000000866e+02,1.433016250000000866e+02,1.409110000000000866e+02,1.382235000000000866e+02,1.377547500000000866e+02,1.398797500000000866e+02,1.420828750000000866e+02,1.432078750000000866e+02,1.461453750000000866e+02,1.485203750000000866e+02,1.490203750000000866e+02,1.500047500000000866e+02,1.480203750000000866e+02,1.427860000000000866e+02,1.360047500000000866e+02,1.291141250000000866e+02,1.196610000000000866e+02,1.086610000000000866e+02,9.847350000000008663e+01,8.898912500000005821e+01,8.275475000000004400e+01,7.956725000000004400e+01,7.953600000000004400e+01,8.019225000000004400e+01,8.316100000000004400e+01,8.911412500000005821e+01,9.437975000000008663e+01,9.920787500000008663e+01,1.048797500000000866e+02,1.093485000000000866e+02,1.130360000000000866e+02,1.165203750000000866e+02,1.183641250000000866e+02,1.185047500000000866e+02,1.191297500000000866e+02,1.203172500000000866e+02,1.192235000000000866e+02,1.166610000000000866e+02,1.130672500000000866e+02,1.108016250000000866e+02,1.092547500000000866e+02,1.073172500000000866e+02,1.062860000000000866e+02,1.052860000000000866e+02,1.043797500000000866e+02,1.057703750000000866e+02,1.075203750000000866e+02,1.079266250000000866e+02,1.078953750000000866e+02,1.094891250000000866e+02,1.092860000000000866e+02,1.086141250000000866e+02,1.096610000000000866e+02,1.096453750000000866e+02,1.096922500000000866e+02,1.102235000000000866e+02,1.115203750000000866e+02,1.112547500000000866e+02,1.127235000000000866e+02,1.135047500000000866e+02,1.128328750000000866e+02,1.130360000000000866e+02,1.138172500000000866e+02,1.128328750000000866e+02,1.114110000000000866e+02,1.109422500000000866e+02,1.089266250000000866e+02,1.068328750000000866e+02,1.035203750000000866e+02,9.778600000000008663e+01,9.042662500000005821e+01,8.497350000000005821e+01,7.817662500000004400e+01,6.972350000000004400e+01,6.142662500000004400e+01,5.511412500000004400e+01,5.127037500000004400e+01,4.997350000000004400e+01,4.956725000000004400e+01,4.802037500000004400e+01,4.922350000000004400e+01,5.173912500000004400e+01,5.597350000000004400e+01,5.886412500000004400e+01,5.984850000000004400e+01,6.041100000000004400e+01,6.272350000000004400e+01,6.623912500000004400e+01,6.744225000000004400e+01,6.956725000000004400e+01,6.980162500000004400e+01,7.067662500000004400e+01,7.266100000000004400e+01,7.480162500000004400e+01,7.494225000000004400e+01,7.378600000000004400e+01,7.422350000000004400e+01,7.312975000000004400e+01,7.347350000000004400e+01,7.339537500000004400e+01,7.353600000000004400e+01,7.253600000000004400e+01,7.244225000000004400e+01,7.344225000000004400e+01,7.394225000000004400e+01,7.484850000000004400e+01,7.506725000000004400e+01,7.409850000000004400e+01,7.250475000000004400e+01,7.116100000000004400e+01,6.916100000000004400e+01,6.706725000000004400e+01,6.470787500000004400e+01,6.242662500000004400e+01,5.959850000000004400e+01,5.891100000000004400e+01,5.853600000000004400e+01,5.872350000000004400e+01,5.955162500000004400e+01,6.012975000000004400e+01,6.123912500000004400e+01,6.430162500000004400e+01,6.905162500000004400e+01,7.322350000000004400e+01,7.752037500000004400e+01,8.192662500000004400e+01,8.592662500000004400e+01,8.989537500000005821e+01,9.372350000000005821e+01,9.522350000000005821e+01,9.531725000000005821e+01,9.400475000000005821e+01,9.242662500000005821e+01,9.123912500000005821e+01,8.934850000000004400e+01,8.755162500000004400e+01,8.392662500000004400e+01,7.967662500000004400e+01,7.575475000000004400e+01,7.314537500000004400e+01,7.014537500000004400e+01,6.469225000000004400e+01,5.978600000000004400e+01,5.467662500000004400e+01,5.066100000000004400e+01,4.717662500000003689e+01,4.286412500000002979e+01,3.778600000000002268e+01,3.241100000000002268e+01,2.955162500000002268e+01,2.555162500000001913e+01,2.097350000000001558e+01,1.756725000000001558e+01,1.441100000000001202e+01,1.106725000000000847e+01,7.286000000000006693e+00,3.957875000000004029e+00,-6.671249999999990798e-01,-3.729625000000001300e+00,-6.745250000000002188e+00,-1.037025000000000574e+01,-1.346400000000000752e+01,-1.446400000000000929e+01,-1.394837500000000929e+01,-1.283900000000000574e+01,-1.068275000000000396e+01,-7.589000000000002188e+00,-3.370250000000000412e+00,7.547500000000020304e-01,5.848500000000004917e+00,9.192250000000008470e+00,1.245787500000001025e+01,1.573912500000001202e+01,1.802037500000001202e+01,1.853600000000001202e+01,1.948912500000001202e+01,2.020787500000001202e+01,1.978600000000001202e+01,2.011412500000001202e+01,1.972350000000001202e+01,1.980162500000001202e+01,2.055162500000001202e+01,2.230162500000001558e+01,2.227037500000001558e+01,2.256725000000001558e+01,2.248912500000001558e+01,2.211412500000001558e+01,2.133287500000001558e+01,1.902037500000001202e+01,1.631725000000001202e+01,1.262975000000000847e+01,1.066100000000000847e+01,8.020375000000004917e+00,5.911000000000004917e+00,4.286000000000004917e+00,3.317250000000003585e+00,4.192250000000004029e+00,5.598500000000004917e+00,8.239125000000006693e+00,1.036412500000000669e+01,1.356725000000000847e+01,1.723912500000001202e+01,2.106725000000001558e+01,2.608287500000002268e+01,3.031725000000002268e+01,3.611412500000002268e+01,4.166100000000002979e+01,4.733287500000003689e+01,5.434850000000004400e+01,6.172350000000004400e+01,7.036412500000004400e+01,7.847350000000004400e+01,8.730162500000005821e+01,9.384850000000007242e+01,1.007860000000000866e+02,1.081766250000000866e+02,1.136453750000000866e+02,1.178953750000000866e+02,1.206922500000000866e+02,1.224422500000000866e+02,1.224578750000000866e+02,1.239578750000000866e+02,1.246141250000000866e+02,1.244422500000000866e+02,1.240672500000000866e+02,1.241610000000000866e+02,1.235360000000000866e+02,1.239422500000000866e+02,1.263485000000000866e+02,1.273172500000000866e+02,1.285516250000000866e+02,1.298797500000000866e+02,1.316922500000000866e+02,1.333953750000000866e+02,1.365985000000000866e+02,1.389578750000000866e+02,1.392703750000000866e+02,1.406610000000000866e+02,1.419735000000000866e+02,1.428328750000000866e+02,1.434891250000000866e+02,1.443641250000000866e+02,1.440985000000000866e+02,1.442391250000000866e+02,1.459110000000000866e+02,1.464266250000000866e+02,1.472078750000000866e+02,1.478328750000000866e+02,1.491922500000000866e+02,1.497235000000000866e+02,1.493797500000000866e+02,1.485203750000000866e+02,1.461610000000000866e+02,1.435672500000000866e+02,1.402860000000000866e+02,1.380516250000000866e+02,1.339110000000000866e+02,1.301610000000000866e+02,1.279422500000000866e+02,1.250828750000000866e+02,1.227235000000000866e+02,1.217235000000000866e+02,1.206610000000000866e+02,1.185047500000000866e+02,1.172703750000000866e+02,1.157703750000000866e+02,1.132078750000000866e+02,1.112703750000000866e+02,1.095360000000000866e+02,1.067860000000000866e+02,1.037391250000000866e+02,1.005047500000000866e+02,9.806725000000008663e+01,9.558287500000007242e+01,9.330162500000005821e+01,9.083287500000005821e+01,8.714537500000004400e+01,8.259850000000004400e+01,7.878600000000004400e+01,7.505162500000004400e+01,6.939537500000004400e+01,6.334850000000004400e+01,5.659850000000004400e+01,5.053600000000004400e+01,4.587975000000002979e+01,4.200475000000002268e+01,3.658287500000002268e+01,3.125475000000002268e+01,2.753600000000002268e+01,2.448912500000002268e+01,2.216100000000001558e+01,1.911412500000001558e+01,1.531725000000001202e+01,1.177037500000000847e+01,9.207875000000006693e+00,6.411000000000004917e+00,2.582875000000002697e+00,-1.651499999999999968e+00,-6.323375000000003965e+00,-1.107337500000000574e+01,-1.604212500000000929e+01,-2.157337500000001285e+01,-2.699525000000001995e+01,-3.118275000000001995e+01,-3.504212500000001995e+01,-3.862025000000001995e+01,-4.154212500000001995e+01,-4.413587500000001995e+01,-4.605775000000002706e+01,-4.766712500000003416e+01,-4.843275000000004127e+01,-4.982337500000004127e+01,-5.127650000000004127e+01,-5.251087500000004127e+01,-5.269837500000004127e+01,-5.279212500000004127e+01,-5.247962500000004127e+01,-5.037025000000004127e+01,-4.846400000000004127e+01,-4.610462500000002706e+01
1.359375000000001110e+00,2.687500000000001776e+00,7.500000000000003331e-01,1.250000000000000444e+00,4.687499999999977796e-02,-2.046875000000001776e+00,3.125000000000000000e-02,-5.312500000000000000e-01,-1.093750000000000000e-01,2.687500000000001776e+00,2.312500000000001776e+00,3.765625000000002220e+00,5.062500000000003553e+00,2.843750000000001776e+00,5.625000000000003331e-01,-2.343750000000001332e+00,-7.234375000000005329e+00,-7.750000000000005329e+00,-5.562500000000003553e+00,-3.500000000000002665e+00,2.406250000000001776e+00,4.578125000000003553e+00,4.421875000000002665e+00,5.281250000000002665e+00,3.734375000000002220e+00,5.625000000000003553e+00,9.953125000000005329e+00,1.278125000000000711e+01,1.478125000000001066e+01,1.175000000000000711e+01,4.500000000000003553e+00,-2.625000000000001776e+00,-9.109375000000007105e+00,-1.076562500000000711e+01,-9.281250000000007105e+00,-7.109375000000005329e+00,-4.328125000000002665e+00,-3.578125000000002665e+00,-3.781250000000002665e+00,-5.015625000000003553e+00,-6.000000000000004441e+00,-7.156250000000005329e+00,-6.062500000000003553e+00,-2.531250000000001776e+00,1.093750000000000888e+00,6.234375000000005329e+00,7.296875000000005329e+00,6.250000000000004441e+00,4.515625000000003553e+00,6.250000000000000000e-02,-1.656250000000001110e+00,-2.703125000000001776e+00,-4.015625000000002665e+00,-8.437500000000004441e-01,4.000000000000002665e+00,9.328125000000007105e+00,1.568750000000001066e+01,1.751562500000001066e+01,1.329687500000000711e+01,7.375000000000003553e+00,4.374999999999995559e-01,-6.593750000000005329e+00,-6.468750000000005329e+00,-5.421875000000003553e+00,-3.953125000000002665e+00,3.156250000000002665e+00,4.828125000000003553e+00,7.234375000000004441e+00,8.968750000000007105e+00,3.656250000000003109e+00,-1.562499999999955591e-02,-4.046875000000002665e+00,-5.953125000000003553e+00,-4.109375000000002665e+00,5.312500000000000000e-01,4.312500000000002665e+00,4.828125000000002665e+00,7.250000000000003553e+00,6.171875000000004441e+00,6.390625000000005329e+00,1.090625000000000711e+01,9.046875000000007105e+00,5.843750000000003553e+00,-4.218750000000026645e-01,-1.300000000000001066e+01,-2.046875000000001421e+01,-2.340625000000001776e+01,-2.214062500000001421e+01,-1.492187500000000711e+01,-8.250000000000003553e+00,-3.640625000000001776e+00,-7.968750000000004441e-01,-3.125000000000004163e-02,4.687500000000002776e-02,1.718750000000001110e-01,1.875000000000001110e-01,9.375000000000008327e-02,6.250000000000005551e-02,-6.250000000000004163e-02,-6.250000000000004163e-02,-6.938893903907228378e-18,-1.562500000000001735e-02,1.562500000000001041e-02,-6.250000000000002776e-02,-1.562500000000000833e-01,-1.406250000000000833e-01,-7.812500000000004163e-02,4.687500000000004163e-02,1.718750000000001110e-01,1.718750000000001110e-01,4.687500000000002776e-02,-9.375000000000006939e-02,-2.343750000000001665e-01,-2.812500000000002220e-01,-1.796875000000001332e+00,-4.828125000000003553e+00,-1.064062500000000711e+01,-1.918750000000001066e+01,-2.479687500000001421e+01,-2.773437500000002132e+01,-2.429687500000001776e+01,-1.543750000000001066e+01,-7.703125000000005329e+00,-1.781250000000001776e+00,3.281250000000001665e-01,1.968750000000000888e+00,3.468750000000001776e+00,9.234375000000003553e+00,1.487500000000000711e+01,1.492187500000000888e+01,1.471875000000001066e+01,7.062500000000006217e+00,-9.062499999999993339e-01,-4.375000000000002665e+00,-6.375000000000004441e+00,-2.531250000000002665e+00,3.203125000000001332e+00,8.125000000000005329e+00,9.546875000000007105e+00,7.906250000000005329e+00,4.234375000000003553e+00,9.375000000000004441e-01,5.625000000000007772e-01,2.312500000000001776e+00,4.781250000000003553e+00,3.984375000000002665e+00,2.859375000000001776e+00,-3.906250000000004441e-01,-3.125000000000002220e+00,-1.406249999999995559e-01,2.125000000000001776e+00,6.906250000000005329e+00,1.107812500000000711e+01,9.015625000000005329e+00,7.312500000000005329e+00,1.609375000000000888e+00,-4.125000000000002665e+00,-4.203125000000002665e+00,-5.546875000000003553e+00,-1.703125000000000444e+00,2.859375000000002220e+00,2.265625000000001776e+00,4.906250000000003553e+00,2.578125000000001776e+00,-2.328125000000000888e+00,-2.640625000000001776e+00,-7.109375000000003553e+00,-7.281250000000003553e+00,-3.468750000000002220e+00,-3.843750000000002220e+00,-1.015625000000000666e+00,-2.593750000000000888e+00,-6.234375000000003553e+00,-5.250000000000003553e+00,-5.921875000000003553e+00,-1.734375000000001332e+00,2.593750000000001776e+00,3.234375000000001776e+00,6.453125000000003553e+00,6.593750000000003553e+00,5.515625000000003553e+00,6.062500000000003553e+00,2.578125000000001332e+00,7.812499999999994449e-02,1.640625000000000888e+00,2.593750000000001776e+00,5.093750000000003553e+00,6.640625000000004441e+00,2.046875000000001776e+00,-2.078125000000000888e+00,-3.796875000000001776e+00,-5.234375000000002665e+00,-7.656250000000000000e-01,2.703125000000001776e+00,3.359375000000001776e+00,6.140625000000003553e+00,4.296875000000003553e+00,3.328125000000001776e+00,3.125000000000001776e+00,-1.562500000000000888e+00,-2.703125000000001776e+00,-3.031250000000001776e+00,-2.375000000000001332e+00,3.515625000000002665e+00,6.875000000000005329e+00,8.812500000000005329e+00,7.921875000000005329e+00,2.421875000000001332e+00,-8.593750000000006661e-01,-3.781250000000002665e+00,-3.328125000000001776e+00,1.453125000000000666e+00,3.218750000000001776e+00,4.984375000000003553e+00,5.765625000000003553e+00,1.875000000000001554e+00,1.062500000000000666e+00,6.562500000000002220e-01,-1.468750000000000444e+00,1.046875000000000888e+00,3.015625000000002220e+00,5.265625000000003553e+00,9.671875000000005329e+00,1.085937500000000533e+01,9.671875000000005329e+00,6.312500000000003553e+00,1.546875000000000888e+00,-3.546875000000001332e+00,-7.281250000000003553e+00,-8.984375000000003553e+00,-9.562500000000005329e+00,-6.468750000000003553e+00,-1.343750000000001332e+00,4.156250000000002665e+00,8.515625000000005329e+00,8.609375000000005329e+00,5.671875000000003553e+00,7.187500000000006661e-01,-4.671875000000002665e+00,-6.937500000000003553e+00,-7.468750000000005329e+00,-5.109375000000003553e+00,1.250000000000000222e+00,5.843750000000003553e+00,9.234375000000003553e+00,9.015625000000003553e+00,1.640625000000000888e+00,-4.687500000000003553e+00,-8.609375000000005329e+00,-9.484375000000005329e+00,-3.218750000000001776e+00,1.875000000000001776e+00,2.750000000000001776e+00,1.281250000000000666e+00,-4.140625000000003553e+00,-1.015625000000000711e+01,-1.300000000000001066e+01,-1.353125000000001066e+01,-1.403125000000001066e+01,-1.126562500000000711e+01,-7.140625000000005329e+00,-4.421875000000003553e+00,7.812500000000002220e-01,4.031250000000002665e+00,3.890625000000002665e+00,3.843750000000002665e+00,1.859375000000001332e+00,-4.218750000000002776e-01,-1.421875000000000888e+00,-6.250000000000004441e-01,-2.031250000000001665e-01,-2.343750000000001665e-01,1.062500000000000666e+00,-1.531250000000000888e+00,-1.687500000000000888e+00,-1.125000000000000888e+00,-2.843750000000002220e+00,-1.203125000000000888e+00,-3.343750000000002665e+00,-4.015625000000003553e+00,-3.234375000000001776e+00,-2.281250000000001332e+00,1.390625000000001110e+00,2.031250000000001776e+00,2.640625000000001776e+00,-3.749999999999997780e-01,-2.234375000000001332e+00,-8.281250000000002220e-01,-6.718749999999998890e-01,4.109375000000002665e+00,5.375000000000003553e+00,2.781250000000001776e+00,2.062500000000000888e+00,-1.234375000000000888e+00,-3.468750000000002665e+00,-1.421875000000000888e+00,3.124999999999988898e-02,7.812500000000013878e-02,2.875000000000001776e+00,2.015625000000000888e+00,-1.031250000000000444e+00,-7.343750000000006661e-01,-3.281250000000002665e+00,-3.781250000000003109e+00,-1.562500000000044409e-02,2.406250000000001332e+00,4.812500000000003553e+00,6.000000000000004441e+00,2.171875000000001332e+00,-3.015625000000001776e+00,-7.562500000000005329e+00,-9.203125000000007105e+00,-5.531250000000003553e+00,-6.250000000000044409e-02,7.000000000000004441e+00,9.937500000000007105e+00,7.406250000000005329e+00,4.687500000000003553e+00,6.718750000000006661e-01,-1.656250000000000888e+00,1.046875000000000888e+00,2.359375000000001776e+00,9.062500000000006661e-01,1.296875000000000888e+00,-1.312500000000000666e+00,-3.703125000000002220e+00,-3.125000000000000000e-01,6.718750000000005551e-01,5.781250000000003331e-01,3.281250000000001776e+00,7.343750000000000000e-01,-2.234375000000001776e+00,-1.718750000000002220e-01,-1.765625000000000888e+00,-1.687500000000000888e+00,1.656250000000001110e+00,-1.671875000000001110e+00,-2.906250000000002220e+00,-2.046875000000001776e+00,-5.015625000000003553e+00,-1.750000000000001776e+00,1.062500000000000444e+00,1.984375000000000888e+00,5.859375000000003553e+00,4.968750000000003553e+00,3.453125000000002220e+00,1.109375000000000888e+00,-1.890625000000000888e+00,-1.046875000000000666e+00,7.500000000000008882e-01,4.453125000000003553e+00,5.468750000000003553e+00,3.125000000000002665e+00,-5.312500000000002220e-01,-5.625000000000003553e+00,-6.593750000000004441e+00,-6.421875000000004441e+00,-3.484375000000002665e+00,9.531250000000007772e-01,3.109375000000001776e+00,6.843750000000003553e+00,7.390625000000003553e+00,5.578125000000003553e+00,3.921875000000002665e+00,1.265625000000000666e+00,-3.125000000000001388e-02,-1.562500000000001388e-02,-5.468750000000004441e-01,-2.750000000000001776e+00,-4.765625000000003553e+00,-4.109375000000002665e+00,-2.218750000000001332e+00,1.453125000000000888e+00,4.437500000000002665e+00,1.937500000000001332e+00,-1.406250000000000666e+00,-5.500000000000003553e+00,-8.296875000000005329e+00,-7.562500000000005329e+00,-5.265625000000003553e+00,-2.812500000000004441e-01,3.156250000000002220e+00,7.937500000000007105e+00,1.081250000000000888e+01,8.234375000000007105e+00,7.437500000000005329e+00,2.218750000000001776e+00,-2.953125000000002220e+00,-2.843750000000001776e+00,-5.750000000000003553e+00,-4.546875000000002665e+00,-3.015625000000001776e+00,-3.593750000000001776e+00,-1.171875000000000666e+00,-3.125000000000001110e-01,2.500000000000001332e+00,4.578125000000002665e+00,6.531250000000003553e+00,6.515625000000003553e+00,4.203125000000001776e+00,1.625000000000000444e+00,-2.546875000000002220e+00,-2.609375000000001776e+00,-3.484375000000001776e+00,-1.453125000000000444e+00,1.250000000000004441e-01,-2.187500000000001332e+00,-1.375000000000001110e+00,-3.609375000000002665e+00,-3.859375000000002665e+00,-2.093750000000000888e+00,-1.406250000000000666e+00,1.062500000000000666e+00,1.906250000000001332e+00,3.765625000000002220e+00,1.937500000000001332e+00,-1.359375000000000444e+00,-2.359375000000001332e+00,-6.078125000000003553e+00,-2.734375000000001776e+00,1.468750000000000888e+00,3.453125000000002220e+00,7.265625000000005329e+00,4.296875000000002665e+00,2.265625000000001776e+00,9.375000000000007772e-01,-1.125000000000000666e+00,4.843750000000002220e-01,7.500000000000003331e-01,1.093750000000000666e+00,1.359375000000000888e+00,6.562500000000004441e-01,2.500000000000003331e-01,-2.078125000000001332e+00,-3.140625000000001776e+00,-4.468750000000003553e+00,-6.218750000000004441e+00,-3.265625000000002220e+00,-1.562500000000000888e+00,1.421875000000001110e+00,4.750000000000003553e+00,4.406250000000002665e+00,4.015625000000001776e+00,2.421875000000001332e+00,2.203125000000001332e+00,1.531250000000001110e+00,1.734375000000001332e+00,3.218750000000001776e+00,2.343750000000001332e+00,2.140625000000001332e+00,1.359375000000000444e+00,-2.984375000000001776e+00,-6.515625000000005329e+00,-7.328125000000005329e+00,-9.015625000000005329e+00,-6.250000000000004441e+00,-2.062500000000001332e+00,-5.468750000000003331e-01,4.062500000000002665e+00,5.421875000000003553e+00,5.281250000000003553e+00,5.140625000000003553e+00,5.000000000000004441e-01,-1.078125000000000666e+00,-1.703125000000001332e+00,-2.109375000000001776e+00,1.250000000000000555e-01,3.281250000000002220e-01,-1.359375000000000666e+00,-3.343750000000001776e+00,-4.281250000000002665e+00,-6.937500000000003553e+00,-8.984375000000005329e+00,-8.593750000000005329e+00,-9.828125000000007105e+00,-6.281250000000003553e+00,1.296875000000000888e+00,5.390625000000003553e+00,8.765625000000005329e+00,8.406250000000003553e+00,1.515625000000000666e+00,-2.390625000000001332e+00,-3.515625000000001776e+00,-3.890625000000002220e+00,1.828125000000000888e+00,5.593750000000003553e+00,5.093750000000002665e+00,6.062500000000003553e+00,8.750000000000008882e-01,-3.421875000000001776e+00,-2.281250000000001332e+00,-4.890625000000003553e+00,-1.437500000000001332e+00,2.359375000000001332e+00,5.937500000000004441e-01,4.687500000000002665e+00,4.734375000000002665e+00,1.531250000000001332e+00,2.656250000000002220e+00,-2.875000000000002220e+00,-5.984375000000004441e+00,-3.750000000000002665e+00,-3.031250000000002665e+00,3.812500000000001776e+00,7.062500000000003553e+00,5.781250000000003553e+00,1.375000000000001332e+00,-8.406250000000005329e+00,-1.501562500000001066e+01,-1.742187500000001066e+01,-1.303125000000000711e+01,-4.296875000000002665e+00,6.078125000000003553e+00,1.068750000000000711e+01,9.296875000000005329e+00,7.781250000000005329e+00,2.328125000000001776e+00,4.734375000000002665e+00,1.045312500000000711e+01,1.198437500000000711e+01,1.557812500000001066e+01,1.148437500000000711e+01,5.921875000000003553e+00,2.921875000000002220e+00,-7.500000000000013323e-01,-2.140625000000002220e+00,-2.984375000000001776e+00,-2.500000000000001776e+00,-3.250000000000001776e+00,5.937500000000008882e-01,2.125000000000001776e+00,1.171875000000001554e+00,3.046875000000002220e+00,-3.906250000000002220e+00,-7.593750000000005329e+00,-1.090625000000000711e+01,-1.742187500000001066e+01,-1.375000000000000711e+01,-1.239062500000000711e+01,-7.562500000000005329e+00,1.421875000000001554e+00,9.843750000000013323e-01,4.593750000000003553e+00,1.843750000000000888e+00,-5.109375000000003553e+00,-3.093750000000002665e+00,-7.078125000000005329e+00,-3.953125000000003109e+00,1.968750000000000888e+00,-4.687500000000001388e-02,3.984375000000003109e+00,4.484375000000003553e+00,4.109375000000003553e+00,7.375000000000005329e+00,5.781250000000003553e+00,1.953125000000000888e+00,-1.421875000000001554e+00,-3.218750000000002220e+00,-3.062500000000002220e+00,1.093750000000000222e+00,3.109375000000001776e+00,2.531250000000001776e+00,2.765625000000001776e+00,7.343750000000006661e-01,1.593750000000001110e+00,3.343750000000002220e+00,2.515625000000001776e+00,2.796875000000001776e+00,2.375000000000001776e+00,5.156250000000003331e-01,2.343750000000001776e+00,2.296875000000001776e+00,-1.031250000000000444e+00,-7.656250000000001110e-01,-2.734375000000001332e+00,-8.750000000000000000e-01,6.750000000000003553e+00,9.937500000000007105e+00,1.131250000000000711e+01,8.234375000000005329e+00,-1.875000000000000000e-01,-7.515625000000004441e+00,-1.060937500000000711e+01,-1.276562500000000888e+01,-1.178125000000000711e+01,-7.296875000000005329e+00,-7.046875000000005329e+00,-3.687500000000002665e+00,-2.343750000000000888e+00,-4.218750000000001776e+00,-3.078125000000001776e+00,-3.218750000000001776e+00,-4.375000000000004441e-01,3.093750000000001776e+00,7.484375000000004441e+00,8.687500000000005329e+00,7.046875000000005329e+00,6.046875000000003553e+00,8.750000000000006661e-01,-1.031250000000000444e+00,-1.031250000000000666e+00,-2.546875000000001776e+00,-2.171875000000001776e+00,-2.296875000000001776e+00,-2.421875000000001776e+00,-1.875000000000001554e+00,2.515625000000001776e+00,8.234375000000007105e+00,1.045312500000000711e+01,1.325000000000000888e+01,8.875000000000007105e+00,-1.109375000000001332e+00,-6.406250000000005329e+00,-1.071875000000000711e+01,-7.718750000000006217e+00,1.953125000000001110e+00,8.390625000000005329e+00,1.007812500000000711e+01,4.750000000000002665e+00,-4.078125000000002665e+00,-1.225000000000000711e+01,-1.295312500000000711e+01,-9.437500000000005329e+00,-4.609375000000002665e+00,2.468750000000001332e+00,1.546875000000000444e+00,1.203125000000000444e+00,-1.156250000000001332e+00,-4.593750000000003553e+00,-1.937500000000000888e+00,-8.593750000000004441e-01,3.718750000000002665e+00,3.828125000000002665e+00,1.718750000000000444e+00,7.968750000000000000e-01,-3.734375000000002665e+00,5.468750000000004441e-01,4.343750000000003553e+00,4.187500000000003553e+00,6.375000000000005329e+00,-2.968750000000000000e-01,-4.500000000000003553e+00,-2.921875000000001776e+00,-4.031250000000002665e+00,2.015625000000001332e+00,2.515625000000001776e+00,-2.656250000000006661e-01,2.750000000000001332e+00,-1.187500000000000444e+00,5.000000000000008882e-01,1.390625000000001332e+00,-6.328125000000003553e+00,-8.203125000000005329e+00,-1.028125000000000711e+01,-9.859375000000007105e+00,1.874999999999986677e-01,7.812500000000004441e+00,1.018750000000000533e+01,1.123437500000000711e+01,3.609375000000002220e+00,-3.031250000000001776e+00,-5.078125000000003553e+00,-7.890625000000005329e+00,-5.640625000000003553e+00,-5.796875000000003553e+00,-5.421875000000003553e+00,-7.968750000000007772e-01,2.265625000000000888e+00,8.546875000000005329e+00,1.134375000000000711e+01,6.906250000000003553e+00,5.625000000000003553e+00,4.484375000000002665e+00,7.171875000000004441e+00,1.692187500000001066e+01,1.815625000000001421e+01,1.348437500000001066e+01,4.000000000000003553e+00,-1.279687500000000711e+01,-1.917187500000001421e+01,-1.842187500000001066e+01,-1.407812500000000711e+01,-2.250000000000001332e+00,2.750000000000001776e+00,2.031250000000001332e+00,5.937500000000001110e-01,-4.421875000000003553e+00,-7.359375000000005329e+00,-4.296875000000002665e+00,8.281250000000009992e-01,5.328125000000003553e+00,1.015625000000000711e+01,1.307812500000000888e+01,1.212500000000000711e+01,1.371875000000000711e+01,1.473437500000001066e+01,8.375000000000005329e+00,3.312500000000001776e+00,-8.250000000000005329e+00,-2.039062500000001421e+01,-2.128125000000001421e+01,-2.378125000000001421e+01,-1.581250000000001066e+01,-5.281250000000003553e+00,-3.125000000000001332e+00,5.609375000000003553e+00,6.093750000000003553e+00,3.140625000000002665e+00,6.218750000000004441e+00,1.875000000000001110e+00,-1.874999999999997780e-01,7.031250000000006661e-01,-1.078125000000000444e+00,1.718750000000001332e+00,6.843750000000003553e+00,8.968750000000005329e+00,8.562500000000005329e+00,5.687500000000003553e+00,-1.343750000000000000e+00,-5.328125000000003553e+00,-5.218750000000003553e+00,-5.593750000000003553e+00,-3.437500000000002220e+00,-2.312500000000001776e+00,-3.218750000000002665e+00,-2.296875000000001776e+00,2.031250000000001110e-01,1.796875000000001110e+00,3.265625000000001776e+00,4.921875000000002665e+00,2.500000000000001332e+00,6.718750000000005551e-01,-1.562500000000000888e+00,-3.984375000000002665e+00,-3.843750000000002665e+00,-4.062500000000002665e+00,-2.343750000000002220e-01,1.593750000000001110e+00,2.562500000000001332e+00,5.781250000000003553e+00,2.578125000000001776e+00,6.250000000000003331e-01,6.562500000000003331e-01,-3.546875000000002665e+00,-2.187500000000001776e+00,1.031250000000000666e+00,2.109375000000001776e+00,6.640625000000004441e+00,8.265625000000005329e+00,8.375000000000005329e+00,8.734375000000005329e+00,6.125000000000004441e+00,3.109375000000002665e+00,-2.875000000000001776e+00,-9.078125000000005329e+00,-1.089062500000000711e+01,-1.292187500000000888e+01,-1.093750000000000711e+01,-7.718750000000006217e+00,-7.109375000000005329e+00,-2.125000000000001332e+00,3.234375000000002220e+00,6.250000000000004441e+00,7.171875000000005329e+00,4.500000000000003553e+00,-2.437500000000001776e+00,-5.125000000000003553e+00,-3.765625000000002665e+00,-3.843750000000003109e+00,1.156250000000000444e+00,3.671875000000002665e+00,3.296875000000001776e+00,5.562500000000003553e+00,4.046875000000003553e+00,-2.812500000000004441e-01,-1.500000000000001110e+00,-3.625000000000003109e+00,-2.343750000000002220e+00,3.500000000000002220e+00,3.203125000000001776e+00,3.937500000000002665e+00,-4.375000000000000000e-01,-7.156250000000005329e+00,-5.343750000000003553e+00,-5.343750000000003553e+00,3.125000000000000000e-01,7.156250000000005329e+00,6.875000000000005329e+00,8.593750000000007105e+00,5.812500000000003553e+00,1.375000000000000888e+00,-7.187500000000002220e-01,-5.484375000000003553e+00,-6.890625000000004441e+00,-6.250000000000004441e+00,-4.312500000000003553e+00,7.500000000000002220e-01,2.937500000000001776e+00,1.609375000000000666e+00,-3.125000000000027756e-02,-4.890625000000002665e+00,-8.265625000000005329e+00,-6.515625000000003553e+00,-7.500000000000004441e+00,-4.546875000000002665e+00,1.546875000000001776e+00,4.046875000000003553e+00,1.145312500000000711e+01,1.406250000000000888e+01,9.500000000000005329e+00,5.906250000000003553e+00,-2.843750000000002220e+00,-6.078125000000004441e+00,-3.265625000000002220e+00,-5.000000000000006661e-01,4.796875000000003553e+00,5.296875000000003553e+00,4.609375000000002665e+00,2.718750000000001776e+00,1.203125000000000666e+00,7.656250000000003331e-01,-2.531250000000001776e+00,-2.562500000000001776e+00,-3.140625000000001776e+00,-1.125000000000000222e+00,2.984375000000002665e+00,3.359375000000002665e+00,3.500000000000002665e+00,2.500000000000002220e-01,-3.328125000000002665e+00,-3.765625000000002665e+00,-3.937500000000002665e+00,-2.781250000000001776e+00,1.187500000000000888e+00,1.343750000000000888e+00,1.250000000000000666e+00,4.078125000000002665e+00,8.906250000000004441e-01,1.390625000000000444e+00,1.781250000000000666e+00,-4.656250000000003553e+00,-5.250000000000003553e+00,-8.187500000000007105e+00,-1.164062500000000711e+01,-6.625000000000003553e+00,-5.968750000000003553e+00,-2.625000000000001332e+00,3.718750000000002220e+00,1.843750000000000888e+00,3.437500000000002220e+00,3.531250000000002220e+00,-1.046875000000000444e+00,1.546875000000000888e+00,3.453125000000001776e+00,3.000000000000001776e+00,7.171875000000003553e+00,5.578125000000002665e+00,6.249999999999977796e-02,-1.765625000000001332e+00,-6.500000000000003553e+00,-7.828125000000003553e+00,-2.578125000000000888e+00,-7.812499999999955591e-02,3.515625000000002665e+00,6.906250000000005329e+00,3.921875000000002665e+00,4.296875000000002665e+00,2.953125000000001776e+00,3.281250000000001110e-01,2.843750000000001776e+00,7.812500000000008882e-01,3.125000000000004441e-01,-1.093750000000000000e-01,-5.375000000000003553e+00,-7.000000000000005329e+00,-6.906250000000005329e+00,-7.281250000000005329e+00,-2.187500000000000888e+00,9.218750000000008882e-01,-8.906250000000003331e-01,1.468750000000001332e+00,-2.203125000000001332e+00,-3.718750000000002220e+00,1.562500000000022204e-02,-3.031250000000001332e+00,-6.406250000000000000e-01,-1.250000000000000888e+00,-4.671875000000003553e+00,-2.687500000000001776e+00,-3.250000000000001776e+00,-1.890625000000001332e+00,-5.625000000000002220e-01,-5.156250000000002220e-01,6.250000000000005551e-01,3.312500000000001776e+00,7.234375000000003553e+00,1.032812500000000711e+01,1.007812500000000711e+01,5.781250000000003553e+00,1.531250000000001332e+00,-2.609375000000001776e+00,-2.796875000000001776e+00,1.109375000000000444e+00,1.968750000000000888e+00,2.093750000000001332e+00,1.375000000000000666e+00,-3.000000000000001776e+00,-2.968750000000001776e+00,-2.250000000000001332e+00,-2.906250000000001776e+00,-1.203125000000000888e+00,-2.468750000000001776e+00,-6.562500000000004441e-01,1.515625000000000888e+00,2.375000000000001332e+00,4.765625000000002665e+00,1.328125000000000444e+00,-1.312500000000000888e+00,-8.750000000000005551e-01,-1.859375000000001332e+00,1.359375000000000666e+00,4.671875000000002665e+00,2.625000000000001776e+00,1.421875000000000888e+00,-2.250000000000001776e+00,-6.390625000000004441e+00,-5.359375000000003553e+00,-3.171875000000001776e+00,2.281250000000001776e+00,6.875000000000005329e+00,9.031250000000005329e+00,7.828125000000005329e+00,4.000000000000001776e+00,2.093750000000001332e+00,-1.437500000000000888e+00,-1.328125000000000888e+00,-1.062500000000000888e+00,-3.812500000000002665e+00,-2.906250000000001776e+00,-2.671875000000001776e+00,-2.937500000000001776e+00,5.625000000000004441e-01,2.187500000000001332e+00,2.812499999999998335e-01,1.203125000000000666e+00,2.031250000000002220e-01,-1.296875000000000888e+00,2.765625000000001332e+00,2.812500000000001332e+00,2.062500000000001332e+00,2.421875000000001776e+00,-2.281250000000000888e+00,-3.093750000000001776e+00,-2.109375000000001332e+00,-2.578125000000001776e+00,7.031250000000004441e-01,2.828125000000001776e+00,3.937500000000002220e+00,6.812500000000003553e+00,6.984375000000003553e+00,4.265625000000001776e+00,5.000000000000000000e-01,-3.375000000000001776e+00,-5.937500000000003553e+00,-5.593750000000003553e+00,-2.843750000000001776e+00,-2.234375000000001332e+00,-3.437500000000004441e-01,1.750000000000000888e+00,1.359375000000000888e+00,2.250000000000001332e+00,-5.156250000000004441e-01,-4.031250000000002665e+00,-4.671875000000002665e+00,-3.734375000000001776e+00,1.937500000000001110e+00,6.828125000000003553e+00,8.687500000000005329e+00,7.796875000000003553e+00,1.421875000000000888e+00,-3.734375000000001776e+00,-6.203125000000003553e+00,-6.718750000000003553e+00,-2.156250000000000888e+00,1.015625000000000888e+00,8.437500000000009992e-01,-4.843750000000001110e-01,-4.265625000000002665e+00,-6.281250000000003553e+00,-3.484375000000002220e+00,3.125000000000022204e-02,3.421875000000002220e+00,5.750000000000003553e+00,1.921875000000001332e+00,-2.203125000000000888e+00,-5.296875000000003553e+00,-9.234375000000005329e+00,-7.343750000000003553e+00,-4.125000000000002665e+00,-2.484375000000001776e+00
3.375000000000000000e+00,1.362500000000000533e+01,-4.562500000000001776e+00,-9.187500000000003553e+00,4.812500000000001776e+00,5.875000000000001776e+00,-4.625000000000001776e+00,-6.625000000000002665e+00,4.687500000000002665e+00,6.187500000000003553e+00,-5.562500000000002665e+00,-1.437500000000000888e+00,7.375000000000003553e+00,0.000000000000000000e+00,-1.000000000000000888e+00,5.562500000000002665e+00,-2.437500000000000000e+00,-1.131250000000000355e+01,-5.937500000000003553e+00,3.937500000000001332e+00,6.062500000000002665e+00,-1.125000000000000222e+00,-1.250000000000000000e-01,6.562500000000003553e+00,-6.250000000000000000e-02,-5.625000000000002665e+00,3.750000000000000000e-01,4.812500000000001776e+00,8.250000000000003553e+00,1.187500000000000533e+01,4.937500000000003553e+00,-9.312500000000003553e+00,-1.156250000000000533e+01,-6.250000000000008882e-01,1.250000000000000000e+00,-4.437500000000001776e+00,-6.250000000000000000e-02,3.812500000000001332e+00,-3.062500000000001332e+00,-5.250000000000001776e+00,1.875000000000001332e+00,2.187500000000001332e+00,-5.250000000000001776e+00,-8.125000000000003553e+00,-1.937500000000000888e+00,7.937500000000003553e+00,1.056250000000000355e+01,3.375000000000001776e+00,-7.125000000000003553e+00,-5.875000000000003553e+00,7.312500000000003553e+00,4.625000000000002665e+00,-8.750000000000003553e+00,-4.437500000000002665e+00,2.437500000000000888e+00,-6.875000000000003331e-01,4.562500000000001776e+00,1.337500000000000711e+01,1.081250000000000533e+01,1.062500000000000444e+00,-8.875000000000005329e+00,-7.250000000000003553e+00,3.125000000000001776e+00,-6.875000000000000000e-01,-5.312500000000001776e+00,2.250000000000000888e+00,1.312500000000000222e+00,1.375000000000000222e+00,7.187500000000003553e+00,3.625000000000001776e+00,8.125000000000011102e-01,-2.125000000000000000e+00,-1.043750000000000533e+01,-6.375000000000002665e+00,6.750000000000002665e+00,6.187500000000001776e+00,1.375000000000001110e+00,1.937500000000001332e+00,-2.937500000000001776e+00,-4.440892098500626162e-16,6.250000000000002665e+00,-1.000000000000000888e+00,5.062500000000003553e+00,1.562500000000000711e+01,-3.750000000000002665e+00,-2.225000000000000711e+01,-1.406250000000000355e+01,-2.437500000000000888e+00,2.500000000000001110e-01,-1.250000000000000833e-01,-3.125000000000001665e-01,-6.250000000000002776e-02,6.250000000000002776e-02,0.000000000000000000e+00,1.250000000000000555e-01,1.250000000000000555e-01,0.000000000000000000e+00,6.250000000000002776e-02,0.000000000000000000e+00,-1.875000000000000833e-01,-1.875000000000000833e-01,1.250000000000000833e-01,3.750000000000002220e-01,0.000000000000000000e+00,-3.750000000000002220e-01,-1.250000000000000833e-01,6.250000000000002776e-02,-6.250000000000002776e-02,6.250000000000002776e-02,3.125000000000001665e-01,1.875000000000001110e-01,-1.875000000000001110e-01,-3.125000000000001665e-01,-6.250000000000002776e-02,0.000000000000000000e+00,-1.875000000000000833e-01,1.250000000000000555e-01,4.375000000000002220e-01,-6.625000000000003553e+00,-1.950000000000001066e+01,-1.650000000000000711e+01,-5.624999999999982236e-01,6.062500000000003553e+00,6.750000000000001776e+00,3.937500000000001776e+00,-7.812500000000004441e+00,-1.031250000000000533e+01,5.375000000000003553e+00,1.118750000000000533e+01,6.812500000000001776e+00,9.187500000000003553e+00,1.937500000000001332e+00,-7.062500000000003553e+00,-2.625000000000001776e+00,-2.437500000000001776e+00,-5.500000000000003553e+00,5.625000000000000000e-01,5.687500000000002665e+00,5.937500000000002665e+00,8.687500000000003553e+00,2.500000000000000444e+00,-1.175000000000000533e+01,-7.250000000000003553e+00,9.250000000000003553e+00,6.625000000000003553e+00,-3.187500000000000888e+00,3.312500000000000888e+00,4.812500000000001776e+00,-7.375000000000002665e+00,-9.437500000000003553e+00,1.812500000000000888e+00,1.081250000000000355e+01,4.625000000000001776e+00,-3.250000000000001776e+00,5.312500000000002665e+00,8.687500000000003553e+00,-4.562500000000002665e+00,-1.300000000000000711e+01,-4.687500000000001776e+00,8.500000000000003553e+00,3.750000000000002220e+00,-4.312500000000001776e+00,3.875000000000001776e+00,2.750000000000001776e+00,-3.250000000000001332e+00,2.937500000000001332e+00,-9.375000000000000000e-01,-9.187500000000003553e+00,-5.312500000000001776e+00,1.875000000000001332e+00,7.562500000000003553e+00,4.000000000000001776e+00,-5.250000000000001776e+00,-8.812500000000003553e+00,-6.250000000000003553e+00,2.562500000000002220e+00,6.625000000000003553e+00,3.750000000000001332e+00,7.499999999999998890e-01,-6.062500000000003553e+00,-2.125000000000000888e+00,1.325000000000000711e+01,9.562500000000005329e+00,-7.812500000000003553e+00,-1.306250000000000711e+01,-3.500000000000001776e+00,1.293750000000000711e+01,1.425000000000000711e+01,-2.937500000000001776e+00,-7.625000000000004441e+00,-2.812500000000001776e+00,-6.625000000000002665e+00,-1.625000000000000000e+00,1.043750000000000533e+01,7.000000000000003553e+00,-6.687500000000003553e+00,-7.125000000000003553e+00,9.062500000000003553e+00,9.250000000000003553e+00,-6.687500000000002665e+00,-3.437500000000001332e+00,2.000000000000000888e+00,-7.750000000000003553e+00,-3.687500000000001776e+00,1.093750000000000533e+01,8.312500000000003553e+00,-2.250000000000001332e+00,1.625000000000000444e+00,5.312500000000001776e+00,-8.375000000000003553e+00,-1.206250000000000355e+01,3.875000000000002665e+00,1.100000000000000533e+01,4.812500000000002665e+00,-3.937500000000001332e+00,-4.812500000000002665e+00,5.562500000000001776e+00,3.187500000000001776e+00,-7.500000000000002665e+00,5.000000000000000000e-01,5.625000000000001776e+00,-4.062500000000001776e+00,-1.687500000000000444e+00,9.500000000000005329e+00,9.500000000000005329e+00,2.250000000000001332e+00,-4.187500000000001776e+00,-6.812500000000003553e+00,-4.375000000000004441e-01,5.062500000000001776e+00,-3.250000000000002220e+00,-1.206250000000000533e+01,-6.250000000000002665e+00,6.937500000000002665e+00,1.218750000000000533e+01,5.312500000000002665e+00,-3.187500000000001332e+00,-3.062500000000001332e+00,1.937500000000000444e+00,-8.750000000000004441e-01,-8.437500000000003553e+00,-3.437500000000000888e+00,4.000000000000001776e+00,-1.812500000000000888e+00,1.875000000000004441e-01,1.400000000000000533e+01,1.206250000000000355e+01,-7.125000000000003553e+00,-2.000000000000000711e+01,-8.750000000000001776e+00,9.437500000000005329e+00,4.812500000000001776e+00,-6.250000000000000000e-01,9.812500000000005329e+00,9.375000000000000000e-01,-1.850000000000000711e+01,-6.750000000000001776e+00,9.750000000000003553e+00,-2.125000000000001776e+00,-1.268750000000000711e+01,-6.125000000000003553e+00,2.312500000000000888e+00,7.187500000000003553e+00,1.312500000000000000e+00,-5.312500000000002665e+00,4.187500000000002665e+00,7.875000000000003553e+00,-5.062500000000003553e+00,-6.687500000000003553e+00,2.937500000000001776e+00,1.000000000000000888e+00,-1.125000000000000444e+00,4.250000000000001776e+00,4.375000000000004441e-01,-4.937500000000001776e+00,-2.625000000000000888e+00,1.187500000000000444e+00,3.312500000000001776e+00,1.250000000000002220e-01,-2.625000000000001332e+00,-3.500000000000001776e+00,-4.125000000000001776e+00,6.250000000000000000e-02,5.562500000000002665e+00,6.125000000000002665e+00,5.625000000000000000e-01,-5.437500000000002665e+00,-8.375000000000003553e+00,-1.187500000000000000e+00,1.050000000000000355e+01,3.875000000000000888e+00,-2.875000000000001776e+00,4.562500000000001776e+00,-2.125000000000000888e+00,-9.812500000000003553e+00,3.250000000000001776e+00,5.812500000000003553e+00,-4.187500000000001776e+00,-3.750000000000004441e-01,2.937500000000001332e+00,1.437500000000000888e+00,2.812500000000001776e+00,-5.437500000000002665e+00,-7.312500000000003553e+00,4.687500000000001776e+00,1.875000000000000000e+00,-4.625000000000001776e+00,7.062500000000003553e+00,1.062500000000000355e+01,-3.437500000000001776e+00,-8.812500000000003553e+00,-4.812500000000002665e+00,-6.000000000000003553e+00,-2.312500000000001776e+00,8.750000000000003553e+00,8.000000000000003553e+00,3.500000000000001776e+00,4.312500000000001776e+00,-5.687500000000002665e+00,-1.143750000000000533e+01,2.375000000000000888e+00,8.937500000000003553e+00,4.562500000000001776e+00,1.000000000000000666e+00,-9.062500000000003553e+00,-6.750000000000002665e+00,8.687500000000003553e+00,1.875000000000001776e+00,-6.250000000000001776e+00,5.250000000000003553e+00,3.312500000000002220e+00,-3.562500000000001332e+00,8.750000000000007772e-01,-4.875000000000002665e+00,-4.125000000000002665e+00,9.062500000000003553e+00,3.562500000000001776e+00,-5.062500000000002665e+00,-3.062500000000001332e+00,-4.437500000000001776e+00,-1.875000000000000000e-01,5.125000000000001776e+00,8.125000000000004441e-01,-2.750000000000000888e+00,-4.375000000000002220e-01,7.312500000000003553e+00,8.625000000000003553e+00,-5.375000000000002665e+00,-1.506250000000000711e+01,-2.687500000000001776e+00,1.387500000000000533e+01,8.937500000000003553e+00,-3.375000000000001776e+00,-2.437500000000001332e+00,-3.125000000000001110e-01,-5.875000000000003553e+00,-6.437500000000003553e+00,2.937500000000000888e+00,4.750000000000001776e+00,-2.062500000000000444e+00,-1.437500000000000444e+00,2.625000000000001332e+00,7.125000000000002665e+00,8.437500000000003553e+00,-5.062500000000001776e+00,-1.462500000000000711e+01,8.125000000000000000e-01,1.512500000000000711e+01,5.125000000000001776e+00,-9.250000000000005329e+00,-1.231250000000000533e+01,-5.875000000000001776e+00,9.312500000000003553e+00,1.406250000000000711e+01,-1.124999999999999112e+00,-8.000000000000003553e+00,-1.437500000000000888e+00,-1.875000000000000888e+00,-4.687500000000001776e+00,-5.000000000000000000e-01,5.625000000000006661e-01,-2.000000000000000888e+00,2.500000000000000888e+00,5.437500000000002665e+00,5.687500000000002665e+00,6.750000000000003553e+00,-3.562500000000002220e+00,-7.875000000000004441e+00,2.500000000000000888e+00,1.000000000000000444e+00,-5.000000000000001776e+00,-1.000000000000000444e+00,2.187500000000000888e+00,-2.500000000000000000e-01,-3.375000000000001332e+00,-1.187500000000000444e+00,3.500000000000001776e+00,4.562500000000001776e+00,1.250000000000000444e+00,8.750000000000005551e-01,3.625000000000001332e+00,2.499999999999993339e-01,-6.562500000000002665e+00,-6.500000000000002665e+00,2.500000000000000888e+00,6.250000000000002665e+00,3.187500000000001776e+00,-1.812500000000001110e+00,-1.093750000000000533e+01,-4.000000000000001776e+00,1.243750000000000533e+01,2.875000000000000888e+00,-1.381250000000000711e+01,-1.937500000000000000e+00,1.281250000000000711e+01,2.687500000000001776e+00,-2.937500000000000888e+00,1.000000000000000666e+00,-7.250000000000003553e+00,-7.500000000000003553e+00,3.750000000000001776e+00,5.750000000000002665e+00,3.125000000000001332e+00,4.375000000000001776e+00,2.812500000000001776e+00,-9.187500000000003553e+00,-8.687500000000003553e+00,1.218750000000000533e+01,1.068750000000000533e+01,-1.312500000000000533e+01,-9.500000000000003553e+00,1.368750000000000711e+01,8.812500000000003553e+00,-1.118750000000000355e+01,-6.875000000000002665e+00,5.562500000000002665e+00,2.937500000000001332e+00,-5.062500000000001776e+00,-8.812500000000003553e+00,6.250000000000000000e-02,1.143750000000000533e+01,6.000000000000003553e+00,-4.000000000000001776e+00,-4.000000000000001776e+00,-1.312500000000000444e+00,2.437500000000000888e+00,8.375000000000003553e+00,-1.250000000000008882e-01,-1.225000000000000711e+01,2.000000000000000000e+00,1.493750000000000711e+01,-1.250000000000000000e-01,-9.062500000000003553e+00,-4.875000000000001776e+00,-7.312500000000003553e+00,4.375000000000000000e-01,1.006250000000000355e+01,-3.312500000000001776e+00,-1.112500000000000533e+01,5.250000000000001776e+00,1.418750000000000711e+01,-1.875000000000000000e-01,-6.687500000000003553e+00,3.750000000000001776e+00,-2.812500000000000888e+00,-1.100000000000000533e+01,7.750000000000003553e+00,1.268750000000000533e+01,-8.375000000000005329e+00,-8.000000000000005329e+00,5.437500000000002665e+00,-2.562500000000001776e+00,-5.125000000000002665e+00,5.125000000000002665e+00,-3.500000000000001776e+00,-1.356250000000000711e+01,-4.562500000000001776e+00,7.375000000000001776e+00,1.500000000000000533e+01,8.812500000000003553e+00,-8.312500000000003553e+00,-8.812500000000003553e+00,6.250000000000022204e-02,6.250000000000022204e-02,2.500000000000000000e-01,4.375000000000003331e-01,2.812500000000001776e+00,8.750000000000003553e+00,2.625000000000000888e+00,-6.687500000000002665e+00,-8.062500000000003553e+00,-3.312500000000001332e+00,8.500000000000003553e+00,4.250000000000001776e+00,-8.062500000000003553e+00,1.312500000000000888e+00,5.125000000000001776e+00,-1.375000000000000888e+00,4.312500000000001776e+00,2.687500000000000888e+00,-5.312500000000001776e+00,-5.875000000000002665e+00,-6.437500000000003553e+00,6.250000000000000000e-02,1.131250000000000533e+01,1.062500000000000533e+01,-1.812500000000000000e+00,-6.812500000000003553e+00,-1.312500000000001110e+00,-7.750000000000003553e+00,-1.718750000000000711e+01,-4.312500000000001776e+00,1.250000000000000533e+01,1.068750000000000533e+01,8.062500000000003553e+00,3.750000000000000888e+00,-1.287500000000000711e+01,-1.137500000000000533e+01,7.500000000000003553e+00,1.568750000000000711e+01,1.181250000000000533e+01,-1.250000000000000000e+00,-7.000000000000002665e+00,5.625000000000004441e-01,2.312500000000001332e+00,-1.875000000000000555e-01,1.687500000000000888e+00,-1.625000000000000888e+00,-7.437500000000003553e+00,-1.937500000000000888e+00,5.437500000000002665e+00,7.687500000000004441e+00,8.125000000000008882e-01,-1.006250000000000533e+01,6.875000000000000000e-01,8.187500000000003553e+00,-9.750000000000005329e+00,-1.681250000000000711e+01,-4.187500000000001776e+00,7.062500000000002665e+00,2.000000000000000444e+00,-5.062500000000001776e+00,5.875000000000002665e+00,6.687500000000003553e+00,-3.312500000000001332e+00,-3.875000000000001776e+00,-7.437500000000002665e+00,-4.062500000000000888e+00,3.687500000000001332e+00,5.437500000000001776e+00,8.937500000000003553e+00,-4.375000000000001776e+00,-1.693750000000000711e+01,4.812500000000004441e+00,2.275000000000001066e+01,7.250000000000001776e+00,-1.237500000000000533e+01,-1.631250000000000711e+01,-5.062500000000002665e+00,1.468750000000000711e+01,1.475000000000000888e+01,-7.562500000000001776e+00,-1.412500000000000533e+01,4.500000000000001776e+00,1.306250000000000533e+01,-4.937500000000001776e+00,-1.037500000000000355e+01,1.125000000000000711e+01,1.125000000000000711e+01,-1.243750000000000533e+01,-1.081250000000000533e+01,8.687500000000003553e+00,1.368750000000000533e+01,1.875000000000000000e+00,-1.512500000000000711e+01,-1.193750000000000533e+01,6.250000000000003553e+00,1.112500000000000533e+01,1.087500000000000533e+01,7.437500000000003553e+00,-7.187500000000003553e+00,-1.087500000000000533e+01,-1.125000000000000444e+00,-7.500000000000000000e-01,-2.875000000000000888e+00,-2.687500000000001776e+00,-6.312500000000003553e+00,2.500000000000000000e-01,7.062500000000003553e+00,-1.875000000000000000e-01,-5.937500000000003553e+00,-4.000000000000002665e+00,1.250000000000000000e-01,1.937500000000001332e+00,8.750000000000006661e-01,3.875000000000001776e+00,1.068750000000000533e+01,1.437500000000000888e+00,-1.262500000000000711e+01,2.000000000000000000e+00,1.093750000000000355e+01,-9.875000000000005329e+00,-8.125000000000003553e+00,1.375000000000000711e+01,2.562500000000001776e+00,-1.537500000000000711e+01,-1.312500000000000888e+00,7.312500000000003553e+00,1.750000000000001110e+00,1.037500000000000355e+01,8.812500000000003553e+00,-4.687500000000002665e+00,-1.250000000000000888e+00,-4.375000000000001776e+00,-1.806250000000000711e+01,-7.625000000000003553e+00,1.712500000000000711e+01,2.225000000000001066e+01,5.187500000000001776e+00,-1.325000000000000533e+01,-1.643750000000000711e+01,-5.312500000000003553e+00,3.187500000000001776e+00,3.062500000000001776e+00,-1.000000000000000888e+00,-1.437500000000001110e+00,7.687500000000003553e+00,3.437500000000001776e+00,-1.118750000000000533e+01,-5.875000000000002665e+00,4.250000000000002665e+00,9.375000000000002220e-01,2.000000000000000888e+00,1.143750000000000533e+01,1.250000000000000000e-01,-1.643750000000000711e+01,-3.000000000000001776e+00,6.125000000000001776e+00,2.187500000000000888e+00,1.250000000000000711e+01,8.937500000000003553e+00,-1.506250000000000711e+01,-2.025000000000001066e+01,2.687500000000001776e+00,2.043750000000001066e+01,5.500000000000002665e+00,-9.875000000000003553e+00,-6.500000000000002665e+00,-3.000000000000001332e+00,7.375000000000003553e+00,8.687500000000003553e+00,-4.187500000000001776e+00,-2.437500000000000888e+00,-5.000000000000002665e+00,-1.493750000000000711e+01,-3.187500000000000888e+00,9.812500000000005329e+00,1.100000000000000533e+01,1.200000000000000711e+01,6.250000000000000000e-02,-1.343750000000000711e+01,-7.750000000000003553e+00,2.375000000000001332e+00,4.250000000000001776e+00,1.187500000000000444e+00,-2.062500000000000888e+00,-8.812500000000003553e+00,-8.875000000000003553e+00,8.875000000000003553e+00,1.693750000000000711e+01,7.062500000000004441e+00,-1.437500000000000222e+00,-1.325000000000000711e+01,-1.293750000000000711e+01,1.156250000000000711e+01,2.400000000000001066e+01,1.406250000000000533e+01,-8.750000000000000000e-01,-1.200000000000000533e+01,-1.468750000000000711e+01,-1.543750000000000711e+01,-3.062500000000000888e+00,1.475000000000000711e+01,3.187500000000000000e+00,-6.125000000000003553e+00,8.937500000000003553e+00,7.500000000000000000e-01,-1.693750000000000711e+01,-1.687500000000000000e+00,6.812500000000003553e+00,-5.687500000000002665e+00,6.000000000000002665e+00,1.881250000000000711e+01,-2.750000000000001776e+00,-1.381250000000000711e+01,5.312500000000001776e+00,1.912500000000000711e+01,1.293750000000000533e+01,-8.312500000000001776e+00,-1.968750000000000711e+01,-1.156250000000000533e+01,-4.125000000000001776e+00,4.375000000000004441e-01,-4.000000000000001776e+00,-3.375000000000001776e+00,1.143750000000000355e+01,2.187500000000000000e+00,-6.687500000000003553e+00,8.812500000000003553e+00,6.875000000000000000e-01,-1.093750000000000533e+01,8.187500000000001776e+00,1.037500000000000355e+01,-1.406250000000000711e+01,-1.406250000000000711e+01,1.387500000000000711e+01,2.462500000000001066e+01,2.312500000000000000e+00,-1.731250000000000711e+01,-8.562500000000003553e+00,1.625000000000000444e+00,1.687500000000000888e+00,7.562500000000004441e+00,1.875000000000000000e-01,-1.625000000000000711e+01,-1.312500000000000000e+00,1.668750000000000711e+01,-3.312500000000001776e+00,-1.400000000000000711e+01,9.500000000000007105e+00,1.412500000000000711e+01,-5.875000000000002665e+00,-9.937500000000003553e+00,7.500000000000008882e-01,4.312500000000002665e+00,2.500000000000002220e-01,-6.375000000000001776e+00,-7.437500000000002665e+00,9.875000000000007105e+00,1.487500000000000711e+01,-9.500000000000007105e+00,-1.025000000000000711e+01,1.018750000000000355e+01,4.375000000000001776e+00,-6.562500000000002665e+00,-5.562500000000001776e+00,-4.125000000000001776e+00,7.937500000000002665e+00,1.587500000000000711e+01,-1.500000000000000000e+00,-1.425000000000000711e+01,2.812500000000000888e+00,1.787500000000000711e+01,5.062500000000001776e+00,-1.043750000000000533e+01,-1.456250000000000711e+01,-1.193750000000000533e+01,6.625000000000001776e+00,1.681250000000000711e+01,-5.750000000000001776e+00,-2.343750000000000711e+01,-7.312500000000000888e+00,2.018750000000001066e+01,2.337500000000001066e+01,-3.937500000000001776e+00,-2.031250000000000711e+01,-3.437500000000001776e+00,4.687500000000001776e+00,-1.937500000000000666e+00,7.187500000000003553e+00,3.437500000000001776e+00,-1.406250000000000533e+01,1.875000000000000000e-01,1.931250000000000711e+01,4.500000000000001776e+00,-1.312500000000000533e+01,-8.687500000000003553e+00,1.875000000000000222e+00,2.437500000000000888e+00,2.062500000000000888e+00,9.687500000000003553e+00,4.312500000000002665e+00,-9.125000000000003553e+00,-1.118750000000000355e+01,-6.937500000000003553e+00,7.000000000000001776e+00,1.268750000000000533e+01,-1.562500000000000000e+00,-3.687500000000000888e+00,5.937500000000002665e+00,4.125000000000001776e+00,-3.687500000000001776e+00,-3.812500000000002220e+00,1.625000000000000444e+00,-1.937500000000000888e+00,-9.437500000000003553e+00,-4.125000000000001776e+00,9.250000000000003553e+00,1.425000000000000711e+01,-4.375000000000008882e-01,-1.768750000000000711e+01,-5.875000000000001776e+00,1.012500000000000355e+01,-1.562500000000001776e+00,-6.812500000000003553e+00,9.375000000000002220e-01,-3.062500000000001776e+00,-4.375000000000000000e-01,1.212500000000000533e+01,1.443750000000000711e+01,3.187500000000002220e+00,-1.150000000000000533e+01,-1.018750000000000355e+01,-1.812500000000000888e+00,-1.875000000000000278e-01,7.562500000000003553e+00,1.268750000000000533e+01,-8.750000000000017764e-01,-1.406250000000000711e+01,-3.937500000000001776e+00,1.225000000000000533e+01,1.100000000000000355e+01,-4.312500000000002665e+00,-1.962500000000001066e+01,-9.625000000000005329e+00,1.900000000000000711e+01,1.918750000000000711e+01,-1.087500000000000533e+01,-1.850000000000000711e+01,8.937500000000005329e+00,1.512500000000000711e+01,-1.287500000000000711e+01,-1.562500000000000711e+01,9.062500000000005329e+00,1.150000000000000533e+01,3.750000000000000000e-01,-5.375000000000002665e+00,-8.562500000000003553e+00,5.250000000000001776e+00,1.362500000000000533e+01,-2.812500000000001776e+00,-1.012500000000000533e+01,-4.687500000000001776e+00,-2.500000000000002220e-01,1.375000000000000666e+00,-5.187500000000001776e+00,-4.125000000000001776e+00,2.562500000000000888e+00,3.312500000000001776e+00,8.125000000000003553e+00,1.875000000000008882e-01,-1.200000000000000533e+01,1.875000000000000888e+00,7.937500000000003553e+00,-3.625000000000001776e+00,1.000000000000000000e+00,5.375000000000001776e+00,2.062500000000000888e+00,4.562500000000001776e+00,-5.312500000000001776e+00,-1.556250000000000711e+01,-2.812500000000001776e+00,9.937500000000003553e+00,7.875000000000002665e+00,-1.312500000000000888e+00,-5.750000000000002665e+00,3.000000000000001776e+00,6.375000000000003553e+00,-6.875000000000006661e-01,-4.000000000000001776e+00,-2.750000000000000888e+00,4.687500000000001776e+00,5.750000000000001776e+00,-3.125000000000001776e+00,-3.625000000000001776e+00,-4.750000000000001776e+00,-8.750000000000003553e+00,1.500000000000000000e+00,8.500000000000003553e+00,2.687500000000001332e+00,-1.875000000000000888e+00,-6.375000000000002665e+00,-1.187500000000000000e+00,4.562500000000002665e+00,-3.375000000000000888e+00,-1.062500000000000444e+00,4.750000000000001776e+00,-2.500000000000004441e-01,-4.250000000000001776e+00,-7.062500000000003553e+00,-1.812500000000000444e+00,1.075000000000000533e+01,6.375000000000002665e+00,-1.156250000000000355e+01,-9.937500000000003553e+00,8.000000000000003553e+00,1.093750000000000355e+01,3.937500000000001332e+00,5.437500000000001776e+00,6.875000000000000000e-01,-1.268750000000000533e+01,-6.500000000000002665e+00,7.437500000000002665e+00,4.250000000000001776e+00,3.250000000000001776e+00,4.125000000000001776e+00,-7.875000000000003553e+00,-8.812500000000003553e+00,3.312500000000001332e+00,5.500000000000002665e+00,1.562500000000000666e+00,-1.750000000000000888e+00,-6.875000000000002665e+00,-6.500000000000002665e+00,7.937500000000002665e+00,1.343750000000000533e+01,-2.687500000000001776e+00,-7.187500000000003553e+00,-1.437500000000000444e+00,-5.062500000000001776e+00,2.312500000000001776e+00,1.087500000000000533e+01,-1.312500000000000888e+00,-5.250000000000002665e+00,5.250000000000001776e+00,1.875000000000000444e+00,-1.043750000000000533e+01,-8.750000000000003553e+00,4.187500000000001776e+00,8.312500000000003553e+00,4.750000000000001776e+00,4.312500000000001776e+00,1.500000000000000888e+00,-6.500000000000003553e+00,-4.687500000000001776e+00,6.937500000000003553e+00,2.562500000000001776e+00,-5.937500000000003553e+00,1.375000000000000444e+00,-1.500000000000000000e+00,-7.875000000000002665e+00,5.125000000000002665e+00,6.062500000000002665e+00,-5.375000000000002665e+00,3.187500000000001776e+00,4.937500000000002665e+00,-1.025000000000000355e+01,-5.375000000000001776e+00,1.031250000000000533e+01,9.062500000000003553e+00,-3.750000000000001776e+00,-7.312500000000003553e+00,2.187500000000000888e+00,-3.125000000000000000e-01,-7.562500000000003553e+00,5.125000000000001776e+00,9.437500000000003553e+00,-6.875000000000003553e+00,-7.687500000000003553e+00,8.125000000000003553e+00,1.350000000000000711e+01,4.312500000000002665e+00,-1.081250000000000533e+01,-1.568750000000000888e+01,6.250000000000000000e-01,1.325000000000000711e+01,2.562500000000001776e+00,-8.000000000000003553e+00,-6.625000000000002665e+00,-4.375000000000000000e-01,1.050000000000000355e+01,1.106250000000000533e+01,-6.125000000000001776e+00,-1.743750000000000711e+01,-5.562500000000001776e+00,1.106250000000000533e+01,7.500000000000003553e+00,-2.125000000000001332e+00,2.437500000000000888e+00,8.562500000000003553e+00,9.375000000000000000e-01,-1.356250000000000533e+01,-1.162500000000000355e+01,6.000000000000002665e+00,8.687500000000003553e+00,4.374999999999997780e-01,1.937500000000000666e+00,-6.875000000000004441e-01,-1.025000000000000533e+01,-6.937500000000003553e+00,4.312500000000001776e+00,7.062500000000003553e+00,2.687500000000001332e+00,1.750000000000000888e+00,2.562500000000001332e+00,-7.250000000000003553e+00,-1.037500000000000355e+01,4.875000000000002665e+00,2.250000000000001776e+00,-1.125000000000000533e+01
8.750000000000001776e+00,1.700000000000000355e+01,-1.050000000000000178e+01,-1.250000000000000355e+01,1.800000000000000711e+01,-8.750000000000001776e+00,6.750000000000001776e+00,-1.050000000000000355e+01,0.000000000000000000e+00,1.825000000000000355e+01,-1.900000000000000355e+01,1.750000000000000888e+00,1.175000000000000355e+01,-5.500000000000001776e+00,-7.000000000000001776e+00,1.225000000000000355e+01,-7.500000000000008882e-01,-1.475000000000000355e+01,1.175000000000000178e+01,-1.300000000000000178e+01,1.750000000000000355e+01,-8.500000000000001776e+00,-6.500000000000001776e+00,1.550000000000000355e+01,-7.000000000000001776e+00,-4.250000000000000888e+00,3.250000000000000888e+00,2.500000000000000888e+00,-4.000000000000000888e+00,1.150000000000000178e+01,-2.250000000000000000e+00,1.000000000000000000e+00,-1.275000000000000355e+01,5.250000000000000888e+00,7.500000000000001776e+00,-1.400000000000000355e+01,7.750000000000001776e+00,0.000000000000000000e+00,1.750000000000000444e+00,-8.750000000000001776e+00,4.500000000000000888e+00,6.500000000000000888e+00,-1.225000000000000355e+01,9.500000000000003553e+00,-1.600000000000000355e+01,1.700000000000000355e+01,-5.500000000000001776e+00,6.250000000000001776e+00,-1.750000000000000000e+00,-1.200000000000000355e+01,1.050000000000000178e+01,7.250000000000001776e+00,-1.300000000000000355e+01,-3.000000000000000888e+00,1.550000000000000355e+01,-1.700000000000000355e+01,9.750000000000001776e+00,1.250000000000000222e+00,7.250000000000001776e+00,-5.000000000000000888e+00,5.000000000000000888e+00,-1.600000000000000355e+01,1.125000000000000355e+01,7.000000000000000888e+00,-2.400000000000000711e+01,2.225000000000000711e+01,-5.500000000000000888e+00,-1.350000000000000355e+01,2.725000000000000711e+01,-2.275000000000000355e+01,1.575000000000000355e+01,-7.500000000000000888e+00,2.500000000000000888e+00,-1.375000000000000355e+01,1.250000000000000355e+01,4.500000000000000888e+00,-1.350000000000000355e+01,1.550000000000000355e+01,-6.000000000000000888e+00,-1.175000000000000355e+01,2.275000000000000711e+01,-1.200000000000000355e+01,-1.050000000000000355e+01,3.075000000000000711e+01,-1.450000000000000533e+01,-1.000000000000000178e+01,-5.000000000000001110e-01,2.500000000000000555e-01,2.500000000000000555e-01,-2.500000000000000555e-01,0.000000000000000000e+00,-2.500000000000000555e-01,5.000000000000001110e-01,-5.000000000000001110e-01,2.500000000000000555e-01,2.500000000000000555e-01,-5.000000000000001110e-01,5.000000000000001110e-01,-2.500000000000000555e-01,0.000000000000000000e+00,0.000000000000000000e+00,-2.500000000000000555e-01,5.000000000000001110e-01,0.000000000000000000e+00,-5.000000000000001110e-01,2.500000000000000555e-01,0.000000000000000000e+00,0.000000000000000000e+00,-2.500000000000000555e-01,5.000000000000001110e-01,-2.500000000000000555e-01,2.500000000000000555e-01,-5.000000000000001110e-01,2.500000000000000555e-01,0.000000000000000000e+00,0.000000000000000000e+00,-5.000000000000001110e-01,1.000000000000000222e+00,-5.000000000000001110e-01,-2.500000000000000555e-01,-2.600000000000000711e+01,2.850000000000000711e+01,-2.250000000000000355e+01,2.100000000000000355e+01,-1.275000000000000355e+01,1.350000000000000355e+01,-2.325000000000000355e+01,1.075000000000000178e+01,1.400000000000000355e+01,-1.950000000000000355e+01,1.900000000000000355e+01,1.500000000000000444e+00,-1.925000000000000355e+01,1.925000000000000355e+01,-1.475000000000000355e+01,8.500000000000001776e+00,-1.300000000000000355e+01,1.875000000000000355e+01,-1.400000000000000355e+01,9.750000000000001776e+00,6.750000000000001776e+00,-1.350000000000000355e+01,-1.500000000000000000e+00,3.250000000000000888e+00,1.425000000000000355e+01,-2.000000000000000355e+01,9.500000000000001776e+00,9.000000000000001776e+00,-1.400000000000000355e+01,3.250000000000000888e+00,-4.000000000000000888e+00,5.750000000000001776e+00,9.250000000000001776e+00,-1.550000000000000355e+01,6.000000000000001776e+00,1.325000000000000178e+01,-1.500000000000000355e+01,6.750000000000001776e+00,-1.425000000000000178e+01,1.125000000000000178e+01,9.750000000000001776e+00,-2.225000000000000711e+01,1.475000000000000355e+01,7.000000000000001776e+00,-2.175000000000000711e+01,1.925000000000000711e+01,-2.250000000000000888e+00,-1.475000000000000355e+01,1.350000000000000355e+01,-1.250000000000000355e+01,9.000000000000001776e+00,7.250000000000001776e+00,-1.625000000000000355e+01,1.400000000000000355e+01,-1.750000000000000355e+01,8.500000000000003553e+00,6.250000000000001776e+00,-9.750000000000001776e+00,1.150000000000000355e+01,-6.000000000000001776e+00,-9.250000000000001776e+00,1.250000000000000178e+01,9.500000000000001776e+00,-1.700000000000000355e+01,8.500000000000001776e+00,-1.375000000000000355e+01,1.025000000000000355e+01,1.050000000000000178e+01,-5.250000000000000888e+00,-1.225000000000000355e+01,1.650000000000000355e+01,-1.250000000000000355e+01,-6.000000000000000888e+00,1.875000000000000355e+01,-1.200000000000000355e+01,1.375000000000000355e+01,-2.400000000000000711e+01,1.600000000000000355e+01,8.500000000000001776e+00,-1.150000000000000178e+01,-8.000000000000001776e+00,2.425000000000000711e+01,-2.525000000000000711e+01,7.000000000000000888e+00,3.500000000000000888e+00,6.000000000000001776e+00,-4.000000000000001776e+00,-7.750000000000001776e+00,1.850000000000000355e+01,-1.100000000000000355e+01,-1.075000000000000178e+01,9.250000000000001776e+00,4.750000000000000888e+00,-5.000000000000000888e+00,9.250000000000001776e+00,-1.600000000000000355e+01,8.000000000000001776e+00,1.275000000000000355e+01,-2.200000000000000711e+01,8.250000000000001776e+00,1.000000000000000178e+01,-1.225000000000000178e+01,5.000000000000002220e-01,7.000000000000000888e+00,1.250000000000000888e+00,1.250000000000000000e+00,-3.000000000000000888e+00,1.500000000000000888e+00,-1.100000000000000355e+01,1.850000000000000355e+01,-1.275000000000000355e+01,2.750000000000000444e+00,-1.050000000000000355e+01,9.750000000000003553e+00,7.500000000000000000e-01,5.500000000000000888e+00,-6.250000000000000888e+00,5.000000000000000000e-01,0.000000000000000000e+00,4.250000000000000888e+00,-5.000000000000000888e+00,-9.500000000000003553e+00,1.725000000000000355e+01,-1.000000000000000178e+01,-4.500000000000000888e+00,1.125000000000000355e+01,5.500000000000001776e+00,-5.500000000000001776e+00,-3.250000000000000888e+00,-1.575000000000000355e+01,1.900000000000000355e+01,2.000000000000000000e+00,-1.800000000000000355e+01,1.900000000000000355e+01,2.500000000000001776e+00,-1.475000000000000355e+01,-1.025000000000000178e+01,2.650000000000000711e+01,-1.500000000000000355e+01,-4.250000000000000888e+00,2.750000000000000444e+00,-2.750000000000000444e+00,2.000000000000000444e+00,1.100000000000000178e+01,-1.900000000000000355e+01,1.000000000000000178e+01,6.750000000000001776e+00,-5.250000000000001776e+00,-9.000000000000001776e+00,1.025000000000000178e+01,5.000000000000000000e-01,-1.050000000000000178e+01,1.100000000000000355e+01,2.250000000000000000e+00,-1.650000000000000355e+01,2.075000000000000355e+01,-2.375000000000000711e+01,2.375000000000000711e+01,-1.425000000000000355e+01,2.000000000000000444e+00,6.750000000000001776e+00,-1.625000000000000355e+01,1.675000000000000355e+01,-1.500000000000000355e+01,1.800000000000000355e+01,-1.050000000000000178e+01,1.750000000000000222e+00,1.250000000000000222e+00,-1.325000000000000355e+01,1.550000000000000355e+01,6.000000000000001776e+00,-2.325000000000000711e+01,2.375000000000000711e+01,-6.500000000000001776e+00,-1.125000000000000178e+01,3.750000000000000888e+00,1.550000000000000355e+01,-2.000000000000000355e+01,6.500000000000000888e+00,1.150000000000000355e+01,-2.200000000000000711e+01,2.475000000000000711e+01,-1.375000000000000178e+01,-5.750000000000001776e+00,6.750000000000001776e+00,8.500000000000001776e+00,-1.900000000000000711e+01,1.125000000000000355e+01,9.750000000000001776e+00,-1.075000000000000178e+01,1.000000000000000222e+00,-3.500000000000000888e+00,6.000000000000001776e+00,-1.550000000000000355e+01,1.500000000000000355e+01,3.250000000000000888e+00,-1.200000000000000355e+01,1.600000000000000355e+01,-6.000000000000001776e+00,-1.000000000000000178e+01,1.250000000000000000e+00,1.725000000000000355e+01,-2.100000000000000355e+01,2.125000000000000355e+01,-1.100000000000000178e+01,-1.275000000000000355e+01,1.675000000000000355e+01,5.250000000000000888e+00,-2.475000000000000711e+01,2.075000000000000355e+01,2.750000000000000888e+00,-2.075000000000000711e+01,2.150000000000000711e+01,-7.500000000000001776e+00,-1.525000000000000355e+01,2.125000000000000711e+01,-1.500000000000000000e+00,-1.675000000000000355e+01,2.050000000000000355e+01,-1.700000000000000355e+01,1.250000000000000000e+00,1.400000000000000355e+01,-1.675000000000000355e+01,1.550000000000000355e+01,-1.550000000000000355e+01,1.100000000000000178e+01,2.000000000000000444e+00,1.750000000000000888e+00,-1.300000000000000355e+01,1.000000000000000000e+00,4.750000000000001776e+00,1.450000000000000355e+01,-2.200000000000000711e+01,1.675000000000000355e+01,-1.125000000000000355e+01,8.250000000000001776e+00,-1.175000000000000355e+01,2.250000000000000888e+00,1.400000000000000355e+01,-1.900000000000000355e+01,1.375000000000000355e+01,-7.500000000000001776e+00,3.750000000000000888e+00,4.500000000000000888e+00,4.250000000000000888e+00,-1.775000000000000355e+01,3.500000000000000888e+00,1.250000000000000355e+01,-1.000000000000000000e+00,-6.750000000000001776e+00,0.000000000000000000e+00,-5.000000000000000888e+00,-1.250000000000000888e+00,1.825000000000000355e+01,-8.250000000000000000e+00,-1.025000000000000355e+01,1.425000000000000355e+01,-1.275000000000000355e+01,9.000000000000001776e+00,-1.375000000000000355e+01,1.900000000000000355e+01,-1.875000000000000355e+01,9.250000000000001776e+00,5.250000000000000888e+00,-1.050000000000000178e+01,1.400000000000000355e+01,-5.000000000000000000e-01,-1.825000000000000355e+01,1.625000000000000355e+01,1.000000000000000888e+00,-1.800000000000000355e+01,2.325000000000000711e+01,-2.525000000000000711e+01,2.850000000000000711e+01,-2.875000000000000711e+01,2.075000000000000711e+01,-1.275000000000000355e+01,8.250000000000001776e+00,3.250000000000001332e+00,-1.400000000000000355e+01,2.125000000000000711e+01,-1.875000000000000355e+01,1.475000000000000355e+01,-1.650000000000000355e+01,5.000000000000001776e+00,1.275000000000000178e+01,-1.975000000000000355e+01,2.400000000000000711e+01,-2.075000000000000711e+01,-2.000000000000000000e+00,1.250000000000000355e+01,5.000000000000000888e+00,-1.650000000000000355e+01,-5.000000000000000000e-01,1.325000000000000355e+01,3.250000000000000888e+00,-2.275000000000000711e+01,2.975000000000000711e+01,-2.050000000000000355e+01,-4.750000000000000888e+00,1.675000000000000355e+01,-1.625000000000000355e+01,1.900000000000000355e+01,-1.775000000000000355e+01,1.775000000000000355e+01,-6.750000000000000888e+00,-1.625000000000000355e+01,1.550000000000000355e+01,1.000000000000000355e+01,-1.250000000000000355e+01,-1.300000000000000355e+01,1.900000000000000711e+01,4.000000000000000000e+00,-1.075000000000000178e+01,-8.750000000000001776e+00,1.975000000000000355e+01,-1.500000000000000355e+01,9.500000000000001776e+00,-6.500000000000001776e+00,-1.100000000000000355e+01,2.475000000000000711e+01,-1.625000000000000355e+01,1.275000000000000355e+01,-1.750000000000000355e+01,1.775000000000000355e+01,-1.675000000000000355e+01,1.250000000000000355e+01,6.750000000000000888e+00,-1.925000000000000355e+01,2.750000000000000888e+00,1.600000000000000355e+01,-2.250000000000000000e+00,-1.900000000000000355e+01,2.225000000000000711e+01,-1.825000000000000711e+01,-1.750000000000000000e+00,1.725000000000000355e+01,-6.000000000000000888e+00,-1.400000000000000355e+01,1.150000000000000178e+01,2.500000000000000000e-01,1.300000000000000355e+01,-2.875000000000000711e+01,2.375000000000000711e+01,-1.500000000000000000e+00,-1.950000000000000711e+01,9.500000000000003553e+00,1.725000000000000355e+01,-1.550000000000000355e+01,-9.250000000000001776e+00,1.800000000000000355e+01,-3.750000000000000888e+00,-1.875000000000000355e+01,2.450000000000000711e+01,-9.000000000000001776e+00,-1.175000000000000178e+01,7.750000000000000888e+00,-3.250000000000000888e+00,4.250000000000001776e+00,1.275000000000000178e+01,-1.125000000000000178e+01,-1.000000000000000178e+01,1.900000000000000355e+01,-1.900000000000000355e+01,1.350000000000000355e+01,-5.750000000000001776e+00,0.000000000000000000e+00,1.250000000000000000e+00,1.575000000000000355e+01,-2.975000000000000711e+01,3.000000000000000711e+01,-3.250000000000000711e+01,2.100000000000000355e+01,7.500000000000000888e+00,-2.200000000000000355e+01,8.500000000000000000e+00,1.475000000000000355e+01,-2.425000000000000711e+01,1.700000000000000355e+01,4.500000000000000888e+00,-2.050000000000000355e+01,2.200000000000000355e+01,-2.125000000000000355e+01,7.000000000000000888e+00,6.250000000000001776e+00,-3.750000000000000888e+00,1.600000000000000355e+01,-3.100000000000000711e+01,2.950000000000000711e+01,-1.950000000000000711e+01,3.750000000000001332e+00,-1.600000000000000355e+01,2.125000000000000355e+01,-1.750000000000000222e+00,-1.025000000000000178e+01,2.525000000000000711e+01,-2.150000000000000355e+01,-7.750000000000002665e+00,1.775000000000000355e+01,-9.250000000000001776e+00,1.300000000000000355e+01,3.000000000000000000e+00,-2.350000000000000711e+01,2.825000000000000711e+01,-2.500000000000000711e+01,2.375000000000000711e+01,-2.525000000000000711e+01,2.950000000000000711e+01,-2.975000000000000711e+01,1.275000000000000178e+01,5.000000000000001776e+00,-1.475000000000000355e+01,2.950000000000000711e+01,-3.150000000000000711e+01,6.250000000000000888e+00,2.050000000000000355e+01,-2.025000000000000355e+01,-2.750000000000000888e+00,5.250000000000001776e+00,-1.125000000000000355e+01,2.800000000000000711e+01,-3.450000000000000711e+01,1.775000000000000355e+01,1.500000000000000355e+01,-3.300000000000000711e+01,3.225000000000000711e+01,-2.200000000000000711e+01,-4.000000000000001776e+00,2.225000000000000711e+01,-2.550000000000000711e+01,2.125000000000000355e+01,4.750000000000000888e+00,-3.100000000000000711e+01,1.850000000000000355e+01,4.000000000000000888e+00,1.150000000000000355e+01,-2.200000000000000711e+01,1.350000000000000355e+01,-2.150000000000000355e+01,1.625000000000000355e+01,1.175000000000000178e+01,-1.325000000000000178e+01,-2.000000000000000444e+00,-6.000000000000000888e+00,2.075000000000000355e+01,-7.750000000000000888e+00,-1.525000000000000355e+01,1.075000000000000355e+01,1.725000000000000355e+01,-1.975000000000000355e+01,-7.250000000000000888e+00,1.800000000000000355e+01,-1.000000000000000355e+01,1.550000000000000355e+01,-1.200000000000000355e+01,-1.550000000000000355e+01,2.150000000000000711e+01,-8.250000000000001776e+00,3.000000000000000888e+00,1.150000000000000355e+01,-9.000000000000003553e+00,-7.000000000000001776e+00,4.250000000000000888e+00,6.000000000000001776e+00,-1.700000000000000355e+01,1.900000000000000355e+01,-1.375000000000000355e+01,-7.750000000000002665e+00,2.925000000000000711e+01,-3.350000000000000711e+01,3.150000000000000711e+01,-3.500000000000000711e+01,3.200000000000000711e+01,-2.650000000000000711e+01,2.300000000000000711e+01,-1.825000000000000355e+01,1.250000000000000178e+01,9.500000000000001776e+00,-2.025000000000000355e+01,-2.000000000000000000e+00,2.850000000000000711e+01,-2.250000000000000355e+01,-9.000000000000003553e+00,1.950000000000000711e+01,5.000000000000000000e+00,-2.350000000000000711e+01,5.250000000000001776e+00,1.900000000000000355e+01,-2.375000000000000711e+01,1.275000000000000355e+01,1.725000000000000355e+01,-2.800000000000000711e+01,1.650000000000000355e+01,1.500000000000000000e+00,-1.525000000000000355e+01,-3.500000000000000000e+00,1.075000000000000178e+01,7.000000000000001776e+00,5.250000000000001776e+00,-1.350000000000000355e+01,4.500000000000000888e+00,-1.800000000000000355e+01,2.800000000000000711e+01,-2.975000000000000711e+01,3.125000000000000711e+01,-2.825000000000000711e+01,1.250000000000000355e+01,1.850000000000000355e+01,-3.650000000000000711e+01,2.700000000000000711e+01,-2.025000000000000711e+01,2.300000000000000711e+01,-2.500000000000000711e+01,1.975000000000000355e+01,7.250000000000002665e+00,-2.475000000000000711e+01,2.000000000000001776e+00,2.600000000000000711e+01,-3.625000000000000711e+01,3.025000000000000711e+01,-7.500000000000000000e-01,-9.500000000000001776e+00,-6.500000000000001776e+00,-4.500000000000000000e+00,1.475000000000000355e+01,1.425000000000000355e+01,-3.925000000000000711e+01,3.900000000000000711e+01,-3.175000000000000711e+01,9.750000000000003553e+00,2.275000000000000355e+01,-3.200000000000000711e+01,1.900000000000000355e+01,-1.500000000000000000e+00,-1.250000000000000355e+01,-5.000000000000001776e+00,2.225000000000000711e+01,-2.025000000000000355e+01,1.925000000000000355e+01,4.500000000000001776e+00,-2.675000000000000711e+01,2.350000000000000711e+01,-2.450000000000000711e+01,2.850000000000000711e+01,-2.475000000000000711e+01,1.950000000000000711e+01,-1.425000000000000355e+01,2.250000000000000888e+00,-1.200000000000000355e+01,3.650000000000000711e+01,-3.325000000000000711e+01,2.750000000000000711e+01,-1.625000000000000355e+01,-9.250000000000001776e+00,4.750000000000000000e+00,2.225000000000000711e+01,-1.800000000000000355e+01,2.475000000000000355e+01,-2.850000000000000711e+01,1.175000000000000355e+01,-5.000000000000000888e+00,-2.000000000000000355e+01,2.975000000000000711e+01,-3.000000000000000000e+00,-2.250000000000000711e+01,2.175000000000000711e+01,5.750000000000001776e+00,-2.475000000000000711e+01,3.000000000000001776e+00,2.400000000000000711e+01,-2.750000000000000711e+01,6.000000000000001776e+00,1.925000000000000711e+01,-3.000000000000001776e+00,-2.475000000000000711e+01,2.300000000000000711e+01,-6.000000000000001776e+00,9.250000000000001776e+00,8.250000000000001776e+00,-3.575000000000000711e+01,2.925000000000000711e+01,-2.350000000000000711e+01,7.000000000000000888e+00,1.525000000000000355e+01,-3.650000000000000711e+01,3.400000000000000711e+01,1.500000000000000000e+00,-3.350000000000000711e+01,3.425000000000000711e+01,-2.750000000000000000e+00,-2.675000000000000711e+01,2.275000000000000355e+01,2.500000000000000888e+00,-4.000000000000000888e+00,-2.175000000000000355e+01,2.200000000000000355e+01,-2.500000000000000000e-01,1.550000000000000355e+01,-2.825000000000000711e+01,8.250000000000001776e+00,5.500000000000001776e+00,-8.250000000000001776e+00,1.750000000000000444e+00,1.900000000000000355e+01,-2.875000000000000711e+01,3.000000000000001776e+00,1.775000000000000355e+01,1.750000000000000000e+00,-3.000000000000000711e+01,2.225000000000000355e+01,1.025000000000000355e+01,-1.825000000000000355e+01,9.000000000000001776e+00,-1.325000000000000355e+01,2.200000000000000711e+01,-2.325000000000000711e+01,2.225000000000000355e+01,-2.325000000000000711e+01,5.000000000000001776e+00,2.400000000000000711e+01,-1.575000000000000355e+01,-1.825000000000000355e+01,2.850000000000000711e+01,-6.500000000000000888e+00,-1.550000000000000355e+01,2.275000000000000711e+01,-2.675000000000000711e+01,1.675000000000000355e+01,1.500000000000000444e+00,9.500000000000003553e+00,-2.375000000000000711e+01,9.250000000000001776e+00,9.000000000000001776e+00,5.250000000000001776e+00,-1.675000000000000355e+01,1.050000000000000355e+01,-1.325000000000000355e+01,-6.500000000000001776e+00,3.250000000000000711e+01,-2.200000000000000355e+01,-5.000000000000004441e-01,-1.250000000000000355e+01,1.475000000000000355e+01,1.075000000000000178e+01,-2.500000000000000000e-01,-1.650000000000000355e+01,-6.000000000000001776e+00,3.200000000000000711e+01,-3.950000000000000711e+01,2.525000000000000355e+01,6.250000000000000888e+00,-2.175000000000000355e+01,1.750000000000000000e+00,1.700000000000000355e+01,3.000000000000000000e+00,-2.200000000000000355e+01,1.825000000000000355e+01,-2.250000000000000711e+01,3.075000000000000711e+01,-3.150000000000000711e+01,2.300000000000000711e+01,4.750000000000001776e+00,-2.300000000000000711e+01,2.025000000000000355e+01,-2.150000000000000711e+01,7.000000000000002665e+00,1.525000000000000355e+01,-9.250000000000001776e+00,-1.025000000000000178e+01,2.225000000000000711e+01,-2.050000000000000711e+01,2.250000000000000711e+01,-2.925000000000000711e+01,2.700000000000000711e+01,-1.725000000000000355e+01,8.000000000000001776e+00,-1.500000000000000355e+01,1.625000000000000355e+01,-6.250000000000001776e+00,1.650000000000000355e+01,-2.150000000000000711e+01,-6.000000000000001776e+00,2.250000000000000711e+01,-8.000000000000001776e+00,-1.700000000000000355e+01,2.575000000000000711e+01,-1.875000000000000355e+01,2.500000000000000000e-01,1.325000000000000355e+01,-7.000000000000001776e+00,1.475000000000000355e+01,-1.250000000000000355e+01,-1.100000000000000178e+01,2.100000000000000355e+01,-2.350000000000000711e+01,1.725000000000000355e+01,-1.750000000000000444e+00,6.750000000000001776e+00,-1.125000000000000178e+01,-9.250000000000001776e+00,2.300000000000000355e+01,-1.400000000000000178e+01,1.525000000000000355e+01,-1.575000000000000355e+01,-1.275000000000000355e+01,2.000000000000000355e+01,5.750000000000000888e+00,-2.500000000000000000e-01,-2.400000000000000711e+01,1.100000000000000355e+01,2.125000000000000355e+01,-1.900000000000000355e+01,-1.100000000000000178e+01,1.050000000000000178e+01,1.625000000000000355e+01,-2.875000000000000711e+01,3.250000000000000711e+01,-3.150000000000000711e+01,8.250000000000003553e+00,2.050000000000000355e+01,-1.700000000000000355e+01,-2.000000000000000888e+00,8.500000000000001776e+00,-1.500000000000000355e+01,1.525000000000000355e+01,-4.000000000000000000e+00,-1.850000000000000355e+01,3.125000000000000711e+01,-2.975000000000000711e+01,1.975000000000000355e+01,6.250000000000000888e+00,-2.325000000000000711e+01,7.000000000000002665e+00,1.875000000000000355e+01,-2.275000000000000711e+01,5.500000000000000888e+00,1.800000000000000355e+01,-2.875000000000000711e+01,2.925000000000000711e+01,-1.375000000000000355e+01,-5.250000000000000888e+00,-6.000000000000000888e+00,1.900000000000000355e+01,-1.650000000000000355e+01,2.100000000000000711e+01,-2.350000000000000711e+01,9.750000000000001776e+00,1.150000000000000178e+01,-1.950000000000000355e+01,1.900000000000000355e+01,-1.750000000000000355e+01,6.500000000000001776e+00,1.150000000000000178e+01,-1.525000000000000355e+01,6.500000000000001776e+00,5.000000000000000000e-01,-6.000000000000001776e+00,-8.750000000000003553e+00,2.750000000000000711e+01,-2.800000000000000711e+01,2.200000000000000711e+01,-1.050000000000000178e+01,-1.300000000000000355e+01,2.950000000000000711e+01,-2.475000000000000711e+01,2.750000000000000000e+00,1.900000000000000711e+01,-2.725000000000000711e+01,2.775000000000000711e+01,-2.725000000000000711e+01,1.550000000000000355e+01,-1.050000000000000178e+01,2.300000000000000711e+01,-2.075000000000000711e+01,-3.000000000000000000e+00,8.750000000000001776e+00,3.250000000000000888e+00,-7.500000000000002220e-01,-4.750000000000000888e+00,1.750000000000000355e+01,-2.000000000000000711e+01,-2.500000000000000000e+00,1.400000000000000355e+01,-4.500000000000000888e+00,-6.250000000000000888e+00,1.550000000000000355e+01,-7.500000000000001776e+00,-1.700000000000000355e+01,2.575000000000000711e+01,-2.175000000000000355e+01,2.125000000000000355e+01,-1.850000000000000355e+01,1.400000000000000355e+01,-1.525000000000000355e+01,2.250000000000000000e+00,1.900000000000000711e+01,-1.075000000000000355e+01,-1.100000000000000178e+01,1.950000000000000355e+01,-1.675000000000000355e+01,-1.000000000000000000e+00,1.725000000000000355e+01,-6.250000000000000888e+00,-1.425000000000000355e+01,2.125000000000000355e+01,-1.275000000000000178e+01,7.750000000000001776e+00,-1.775000000000000355e+01,1.250000000000000355e+01,3.250000000000000888e+00,-8.000000000000001776e+00,1.350000000000000355e+01,-1.250000000000000355e+01,1.500000000000000355e+01,-2.500000000000000711e+01,2.050000000000000711e+01,1.750000000000000000e+00,-1.725000000000000355e+01,1.175000000000000355e+01,5.250000000000000888e+00,-1.875000000000000355e+01,7.750000000000001776e+00,1.725000000000000355e+01,-2.525000000000000711e+01,9.500000000000001776e+00,1.525000000000000355e+01,-2.150000000000000711e+01,1.500000000000000000e+00,1.150000000000000355e+01,-5.750000000000000888e+00,1.075000000000000178e+01,-1.975000000000000355e+01,1.100000000000000178e+01,8.000000000000001776e+00,-2.100000000000000355e+01,1.050000000000000178e+01,1.075000000000000178e+01,-9.500000000000001776e+00,-9.750000000000001776e+00,1.500000000000000355e+01,-5.000000000000000888e+00,1.100000000000000178e+01,-1.025000000000000178e+01,-2.750000000000000888e+00,-9.750000000000001776e+00,2.275000000000000355e+01,-8.750000000000000000e+00,-6.750000000000001776e+00,8.500000000000001776e+00,-1.325000000000000355e+01,1.125000000000000178e+01,5.500000000000001776e+00,-3.000000000000000888e+00,-8.500000000000001776e+00,-5.750000000000000888e+00,1.075000000000000178e+01,6.250000000000001776e+00,-1.375000000000000355e+01,1.025000000000000178e+01,-2.750000000000000444e+00,8.000000000000001776e+00,-8.500000000000001776e+00,-9.500000000000001776e+00,5.500000000000001776e+00,1.450000000000000178e+01,-2.050000000000000355e+01,1.725000000000000355e+01,-7.750000000000001776e+00,2.750000000000000888e+00,-1.575000000000000355e+01,1.925000000000000711e+01,-1.350000000000000355e+01,1.600000000000000355e+01,-1.600000000000000355e+01,1.350000000000000355e+01,-1.500000000000000888e+00,-1.675000000000000355e+01,9.000000000000001776e+00,1.550000000000000355e+01,-2.800000000000000711e+01
