-4.894750000000001933e+01,-2.707250000000000512e+01,-6.322499999999992681e+00,1.430250000000001975e+01,3.513062500000003041e+01,5.380250000000004462e+01,7.222437500000006594e+01,9.305250000000008015e+01,1.106306250000000944e+02,1.303181250000000944e+02,1.515525000000000944e+02,1.751462500000001228e+02,2.009275000000001796e+02,2.309118750000001796e+02,2.635993750000001796e+02,2.941931250000001796e+02,3.289587500000002365e+02,3.619743750000002365e+02,3.950212500000003502e+02,4.247868750000003502e+02,4.503650000000003502e+02,4.704118750000003502e+02,4.852556250000003502e+02,4.974431250000003502e+02,5.046775000000003502e+02,5.095681250000003502e+02,5.114743750000003502e+02,5.122400000000003502e+02,5.125837500000003502e+02,5.128493750000003502e+02,5.130525000000003502e+02,5.131775000000003502e+02,5.132556250000003502e+02,5.133337500000003502e+02,5.133337500000003502e+02,5.132868750000003502e+02,5.132243750000003502e+02,5.131618750000003502e+02,5.131462500000003502e+02,5.131618750000003502e+02,5.131775000000003502e+02,5.131775000000003502e+02,5.132243750000003502e+02,5.133181250000003502e+02,5.134118750000003502e+02,5.135368750000003502e+02,5.136462500000003502e+02,5.137243750000003502e+02,5.138181250000003502e+02,5.139431250000003502e+02,5.140681250000003502e+02,5.141618750000003502e+02,5.142556250000003502e+02,5.143181250000003502e+02,5.143650000000003502e+02,5.144118750000003502e+02,5.144431250000003502e+02,5.144275000000003502e+02,5.143962500000003502e+02,5.143650000000003502e+02,5.143337500000003502e+02,5.143025000000003502e+02,5.142556250000003502e+02,5.142712500000003502e+02,5.142712500000003502e+02,5.142712500000003502e+02,5.142712500000003502e+02,5.142712500000003502e+02,5.142868750000003502e+02,5.142868750000003502e+02,5.143493750000003502e+02,5.143650000000003502e+02,5.144118750000003502e+02,5.144900000000003502e+02,5.145525000000003502e+02,5.146150000000003502e+02,5.146618750000003502e+02,5.147400000000003502e+02,5.147556250000003502e+02,5.147868750000003502e+02,5.147868750000003502e+02,5.147712500000003502e+02,5.147712500000003502e+02,5.147400000000003502e+02,5.146931250000003502e+02,5.146462500000003502e+02,5.145681250000003502e+02,5.144431250000003502e+02,5.143337500000003502e+02,5.142087500000003502e+02,5.140681250000003502e+02,5.139743750000003502e+02,5.139118750000003502e+02,5.138025000000003502e+02,5.137400000000003502e+02,5.137087500000003502e+02,5.136775000000003502e+02,5.136618750000003502e+02,5.136775000000003502e+02,5.136775000000003502e+02,5.136306250000003502e+02,5.135993750000003502e+02,5.135681250000003502e+02,5.135368750000003502e+02,5.134743750000003502e+02,5.133806250000003502e+02,5.131775000000003502e+02,5.128493750000003502e+02,5.116931250000003502e+02,5.093181250000003502e+02,5.051462500000003502e+02,5.000993750000003502e+02,4.941931250000003502e+02,4.868650000000003502e+02,4.772087500000003502e+02,4.644431250000003502e+02,4.497556250000003502e+02,4.350056250000003502e+02,4.206462500000003502e+02,4.037400000000003502e+02,3.849275000000003502e+02,3.647400000000002365e+02,3.445525000000001796e+02,3.267087500000001796e+02,3.096775000000001796e+02,2.903493750000001796e+02,2.704587500000001796e+02,2.545681250000001796e+02,2.378337500000001796e+02,2.203337500000001796e+02,2.025056250000001796e+02,1.815212500000001512e+02,1.605525000000001228e+02,1.417087500000000944e+02,1.213962500000000944e+02,9.700562500000006594e+01,7.311500000000005173e+01,4.978687500000003752e+01,2.792750000000002331e+01,9.583750000000014424e+00,-8.963124999999996234e+00,-2.832250000000001222e+01,-4.547875000000001933e+01,-6.435375000000003354e+01,-8.096312500000004775e+01,-9.605687500000006196e+01,-1.135881250000000762e+02,-1.340256250000000762e+02,-1.551662500000000762e+02,-1.753225000000001046e+02,-1.962912500000001614e+02,-2.128693750000001614e+02,-2.301037500000001614e+02,-2.456662500000001614e+02,-2.574787500000001614e+02,-2.676193750000001614e+02,-2.757600000000001614e+02,-2.851350000000001614e+02,-2.950568750000001614e+02,-3.041037500000001614e+02,-3.131350000000001614e+02,-3.240100000000001614e+02,-3.372912500000001614e+02,-3.502443750000001614e+02,-3.635256250000002183e+02,-3.759318750000002183e+02,-3.861662500000003320e+02,-3.977600000000003320e+02,-4.088225000000003320e+02,-4.199006250000003320e+02,-4.286975000000003320e+02,-4.358381250000003320e+02,-4.428381250000003320e+02,-4.484943750000003320e+02,-4.544943750000003320e+02,-4.603381250000003320e+02,-4.654631250000003320e+02,-4.688693750000003320e+02,-4.727131250000003320e+02,-4.772131250000003320e+02,-4.806506250000003320e+02,-4.837756250000003320e+02,-4.861350000000003320e+02,-4.873381250000003320e+02,-4.882912500000003320e+02,-4.892756250000003320e+02,-4.897756250000003320e+02,-4.898225000000003320e+02,-4.899006250000003320e+02,-4.899787500000003320e+02,-4.900412500000003320e+02,-4.900881250000003320e+02,-4.901193750000003320e+02,-4.901350000000003320e+02,-4.900881250000003320e+02,-4.900725000000003320e+02,-4.900412500000003320e+02,-4.896975000000003320e+02,-4.891193750000003320e+02,-4.885568750000003320e+02,-4.879943750000003320e+02,-4.873537500000003320e+02,-4.863537500000003320e+02,-4.851350000000003320e+02,-4.825881250000003320e+02,-4.803225000000003320e+02,-4.776350000000003320e+02,-4.736975000000003320e+02,-4.689943750000003320e+02,-4.641818750000003320e+02,-4.588381250000003320e+02,-4.512600000000003320e+02,-4.438225000000003320e+02,-4.358225000000003320e+02,-4.274162500000003320e+02,-4.191818750000003320e+02,-4.100568750000003320e+02,-3.999006250000003320e+02,-3.906975000000003320e+02,-3.841193750000003320e+02,-3.793225000000002183e+02,-3.742600000000001614e+02,-3.695100000000001614e+02,-3.652756250000001614e+02,-3.628225000000001614e+02,-3.600256250000001614e+02,-3.555881250000001614e+02,-3.497600000000001614e+02,-3.425568750000001614e+02,-3.359006250000001614e+02,-3.306818750000001614e+02,-3.267443750000001614e+02,-3.220725000000001614e+02,-3.179006250000001614e+02,-3.151818750000001614e+02,-3.130568750000001614e+02,-3.109006250000001614e+02,-3.066193750000001614e+02,-2.980412500000001614e+02,-2.867912500000001614e+02,-2.751506250000001614e+02,-2.644787500000001614e+02,-2.537600000000001614e+02,-2.436818750000001614e+02,-2.330568750000001614e+02,-2.257443750000001614e+02,-2.236662500000001614e+02,-2.229631250000001614e+02,-2.222912500000001614e+02,-2.203537500000001614e+02,-2.174787500000001614e+02,-2.146193750000001614e+02,-2.131506250000001614e+02,-2.099631250000001614e+02,-2.054162500000001614e+02,-2.008850000000001614e+02,-1.978225000000001614e+02,-1.968381250000001614e+02,-1.957600000000001614e+02,-1.927756250000001330e+02,-1.889787500000001046e+02,-1.852443750000001046e+02,-1.799006250000000762e+02,-1.746975000000000762e+02,-1.663225000000000762e+02,-1.570881250000000762e+02,-1.485100000000000762e+02,-1.414787500000000762e+02,-1.340256250000000762e+02,-1.265100000000000762e+02,-1.185725000000000762e+02,-1.103225000000000762e+02,-1.057600000000000762e+02,-1.005256250000000762e+02,-9.632250000000006196e+01,-9.197875000000004775e+01,-8.966625000000003354e+01,-8.769750000000003354e+01,-8.747875000000003354e+01,-8.796312500000003354e+01,-8.693187500000003354e+01,-8.596312500000003354e+01,-8.336937500000003354e+01,-8.172875000000003354e+01,-7.766625000000003354e+01,-7.394750000000003354e+01,-7.074437500000003354e+01,-6.657250000000003354e+01,-6.244750000000003354e+01,-5.794750000000003354e+01,-5.397875000000003354e+01,-4.805687500000003354e+01,-4.418187500000002643e+01,-4.021312500000001933e+01,-3.555687500000001222e+01,-3.282250000000001222e+01,-2.958812500000001222e+01,-2.740062500000001222e+01,-2.599437500000001222e+01,-2.593187500000001222e+01,-2.513500000000001222e+01,-2.271312500000000512e+01,-2.133812500000000512e+01,-1.872875000000000512e+01,-1.707250000000000156e+01,-1.557250000000000156e+01,-1.305687499999999979e+01,-1.029124999999999801e+01,-7.322499999999996234e+00,-7.322499999999996234e+00,-4.197499999999993570e+00,-6.662499999999911271e-01,3.177500000000011315e+00,7.958750000000014424e+00,1.061500000000001620e+01,1.228687500000001975e+01,1.283375000000001975e+01,1.383375000000001975e+01,1.189625000000001798e+01,8.646250000000016200e+00,5.068125000000012648e+00,-4.124999999999090505e-02,-2.478749999999992681e+00,-4.275624999999993570e+00,-3.838124999999993570e+00,-3.150624999999992681e+00,-2.041249999999992237e+00,1.150000000000090949e-01,2.661875000000010427e+00,6.396250000000012648e+00,8.490000000000014424e+00,1.138062500000001620e+01,1.238062500000001798e+01,1.531812500000001798e+01,1.906812500000002331e+01,2.313062500000002686e+01,2.789625000000003041e+01,3.322437500000003041e+01,3.952125000000003752e+01,4.416187500000003752e+01,4.930250000000005173e+01,5.239625000000005173e+01,5.570875000000005173e+01,5.942750000000005173e+01,6.077125000000005173e+01,5.966187500000005173e+01,5.866187500000005173e+01,5.967750000000005173e+01,6.047437500000005173e+01,6.356812500000005173e+01,6.611500000000005173e+01,6.602125000000005173e+01,6.680250000000005173e+01,7.019312500000005173e+01,7.247437500000005173e+01,7.330250000000005173e+01,7.480250000000005173e+01,7.514625000000005173e+01,7.567750000000005173e+01,7.764625000000005173e+01,8.174000000000005173e+01,8.417750000000005173e+01,8.609937500000005173e+01,8.914625000000005173e+01,9.034937500000005173e+01,9.042750000000005173e+01,8.938062500000005173e+01,8.906812500000005173e+01,8.764625000000005173e+01,8.627125000000005173e+01,8.597437500000005173e+01,8.416187500000005173e+01,8.489625000000005173e+01,8.506812500000005173e+01,8.689625000000005173e+01,8.963062500000005173e+01,9.033375000000005173e+01,9.158375000000005173e+01,9.309937500000005173e+01,9.664625000000006594e+01,9.816187500000009436e+01,1.010681250000000944e+02,1.031931250000000944e+02,1.031306250000000944e+02,1.047712500000000944e+02,1.074431250000000944e+02,1.093181250000000944e+02,1.077712500000000944e+02,1.059587500000000944e+02,1.043493750000000944e+02,1.013025000000000944e+02,9.877125000000009436e+01,9.608375000000008015e+01,9.030250000000006594e+01,8.316187500000005173e+01,7.849000000000005173e+01,7.550562500000005173e+01,7.027125000000005173e+01,6.563062500000005173e+01,5.858375000000005173e+01,4.986500000000004462e+01,4.288062500000003752e+01,3.634937500000003041e+01,2.719312500000002331e+01,1.530250000000001620e+01,2.849375000000011315e+00,-1.179124999999999623e+01,-2.585375000000000512e+01,-4.182250000000001933e+01,-6.104125000000003354e+01,-8.216625000000004775e+01,-1.035881250000000477e+02,-1.260256250000000762e+02,-1.493381250000000762e+02,-1.725568750000001046e+02,-1.956037500000001614e+02,-2.159631250000001614e+02,-2.332912500000001614e+02,-2.464318750000001614e+02,-2.566506250000001614e+02,-2.634787500000001614e+02,-2.644631250000001614e+02,-2.594162500000001614e+02,-2.497912500000001614e+02,-2.395881250000001614e+02,-2.299006250000001614e+02,-2.229787500000001614e+02,-2.187287500000001614e+02,-2.178381250000001614e+02,-2.222443750000001614e+02,-2.318068750000001614e+02,-2.461037500000001614e+02,-2.595568750000001614e+02,-2.711975000000001614e+02,-2.788225000000001614e+02,-2.794943750000001614e+02,-2.724006250000001614e+02,-2.589787500000001614e+02,-2.403850000000001614e+02,-2.171818750000001614e+02,-1.900568750000001330e+02,-1.582912500000001046e+02,-1.249943750000000762e+02,-9.349437500000004775e+01,-6.261937500000001933e+01,-3.140062500000000867e+01,-4.162499999999900169e-01,3.136500000000002686e+01,6.177125000000005173e+01,8.800562500000006594e+01,1.127400000000000944e+02,1.372712500000000944e+02,1.605681250000001228e+02,1.817087500000001228e+02,2.027087500000001796e+02,2.218962500000001796e+02,2.383962500000001796e+02,2.553806250000001796e+02,2.706618750000001796e+02,2.842400000000001796e+02,2.942712500000001796e+02,3.016931250000001796e+02,3.052712500000001796e+02,3.056931250000001796e+02,3.052243750000001796e+02,3.016462500000001796e+02,2.958650000000001796e+02,2.871775000000001796e+02,2.762868750000001796e+02,2.645212500000001796e+02,2.507868750000001796e+02,2.361931250000001796e+02,2.194587500000001796e+02,2.004431250000001796e+02,1.804118750000001228e+02,1.585212500000001228e+02,1.370212500000000944e+02,1.148962500000000944e+02,9.375562500000006594e+01,7.306812500000005173e+01,5.341187500000003752e+01,3.664625000000003041e+01,2.128687500000002331e+01,1.000562500000001620e+01,7.087500000000095390e-01,-7.478749999999994458e+00,-1.346312499999999801e+01,-1.663500000000000156e+01,-1.936937500000000512e+01,-2.151000000000000512e+01,-2.263500000000000512e+01,-2.526000000000001222e+01,-2.713500000000001222e+01,-2.808812500000001222e+01,-2.901000000000001222e+01,-3.102562500000001222e+01,-3.186937500000001222e+01,-3.226000000000001222e+01,-3.293187500000001222e+01,-3.102562500000001222e+01,-2.905687500000001222e+01,-2.616625000000000867e+01,-2.322875000000000512e+01,-1.941625000000000512e+01,-1.411937499999999979e+01,-7.931874999999995346e+00,-1.037499999999904610e-01,7.505625000000012648e+00,1.669312500000001975e+01,2.636500000000002331e+01,3.672437500000003041e+01,4.670875000000003752e+01,5.620875000000005173e+01,6.341187500000005173e+01,7.069312500000005173e+01,7.728687500000005173e+01,8.077125000000005173e+01,8.383375000000005173e+01,8.575562500000005173e+01,8.688062500000005173e+01,8.591187500000005173e+01,8.716187500000005173e+01,8.666187500000005173e+01,8.441187500000005173e+01,8.377125000000005173e+01,8.153687500000005173e+01,7.927125000000005173e+01,7.709937500000005173e+01,7.564625000000005173e+01,7.286500000000005173e+01,7.089625000000005173e+01,7.042750000000005173e+01,6.958375000000005173e+01,6.884937500000005173e+01,6.802125000000005173e+01,6.749000000000005173e+01,6.831812500000005173e+01,6.820875000000005173e+01,6.613062500000005173e+01,6.411500000000005173e+01,6.181812500000005173e+01,6.067750000000005173e+01,5.980250000000005173e+01,5.883375000000005173e+01,5.638062500000005173e+01,5.461500000000005173e+01,5.499000000000005173e+01,5.558375000000005173e+01,5.641187500000005173e+01,5.641187500000005173e+01,5.636500000000005173e+01,5.683375000000005173e+01,5.714625000000005173e+01,5.872437500000005173e+01,5.917750000000005173e+01,5.742750000000005173e+01,5.528687500000005173e+01,5.267750000000005173e+01,4.925562500000005173e+01,4.453687500000003752e+01,4.066187500000003752e+01,3.503687500000003041e+01,2.934937500000003041e+01,2.608375000000003041e+01,2.241187500000002331e+01,2.061500000000002331e+01,1.892750000000001975e+01,1.953687500000001975e+01,1.967750000000001975e+01,1.999000000000001975e+01,2.199000000000002331e+01,2.286500000000002331e+01,2.570875000000003041e+01,2.695875000000003041e+01,2.869312500000003041e+01,2.839625000000003041e+01,2.780250000000003041e+01,2.856812500000003041e+01,2.678687500000003041e+01,2.552125000000003041e+01,2.128687500000002331e+01,1.720875000000001975e+01,1.280250000000001620e+01,8.693125000000014424e+00,4.193125000000011759e+00,-1.603749999999991793e+00,-5.134999999999994458e+00,-9.916249999999998010e+00,-1.300999999999999979e+01,-1.574437500000000156e+01,-1.746312500000000156e+01,-1.921312500000000156e+01,-2.049437500000000156e+01,-2.174437500000000512e+01,-2.494750000000000867e+01,-2.724437500000001222e+01,-2.866625000000001222e+01,-3.105687500000001222e+01,-3.468187500000001222e+01,-3.794750000000001222e+01,-3.983812500000001222e+01,-4.091625000000001222e+01,-4.127562500000001222e+01,-4.040062500000001222e+01,-4.168187500000001222e+01,-4.218187500000001222e+01,-4.118187500000001222e+01,-4.158812500000001222e+01,-4.460375000000001933e+01,-4.851000000000002643e+01,-5.190062500000003354e+01,-5.705687500000003354e+01,-6.119750000000003354e+01,-6.461937500000003354e+01,-6.951000000000003354e+01,-7.313500000000003354e+01,-7.461937500000003354e+01,-7.613500000000003354e+01,-7.791625000000003354e+01,-8.011937500000003354e+01,-8.182250000000003354e+01,-8.552562500000003354e+01,-8.863500000000003354e+01,-9.113500000000004775e+01,-9.438500000000006196e+01,-9.736937500000007617e+01,-1.000725000000000762e+02,-1.012756250000000762e+02,-1.027912500000000762e+02,-1.027756250000000762e+02,-1.035100000000000762e+02,-1.043693750000000762e+02,-1.054006250000000762e+02,-1.059006250000000762e+02,-1.074475000000000762e+02,-1.090100000000000762e+02,-1.100881250000000762e+02,-1.103850000000000762e+02,-1.098225000000000762e+02,-1.094943750000000762e+02,-1.088537500000000762e+02,-1.076350000000000762e+02,-1.051818750000000762e+02,-1.021975000000000762e+02,-9.960375000000007617e+01,-9.743187500000007617e+01,-9.461937500000006196e+01,-9.205687500000004775e+01,-8.866625000000003354e+01,-8.493187500000003354e+01,-8.054125000000003354e+01,-7.683812500000003354e+01,-7.266625000000003354e+01,-6.899437500000003354e+01,-6.546312500000003354e+01,-6.105687500000003354e+01,-5.627562500000003354e+01,-5.277562500000003354e+01,-4.883812500000003354e+01,-4.482250000000002643e+01,-3.946312500000001933e+01,-3.254125000000001222e+01,-2.535375000000000867e+01,-1.811937500000000512e+01,-1.163499999999999801e+01,-3.900624999999994014e+00,1.865000000000009983e+00,8.083750000000014424e+00,1.169312500000001620e+01,1.333375000000001798e+01,1.538062500000001975e+01,1.716187500000001975e+01,1.933375000000001975e+01,2.064625000000001975e+01,2.272437500000002331e+01,2.419312500000002686e+01,2.644312500000003041e+01,2.959937500000003041e+01,3.231812500000003041e+01,3.491187500000003041e+01,3.655250000000003041e+01,3.897437500000003041e+01,4.231812500000003752e+01,4.595875000000004462e+01,5.095875000000005173e+01,5.494312500000005173e+01,5.691187500000005173e+01,5.691187500000005173e+01,5.602125000000005173e+01,5.242750000000005173e+01,4.744312500000003752e+01,4.167750000000003752e+01,3.281812500000003041e+01,2.419312500000002331e+01,1.628687500000001975e+01,9.099375000000014424e+00,2.193125000000009983e+00,-2.634999999999992681e+00,-9.838124999999996234e+00,-2.055687500000000156e+01,-3.457250000000000512e+01,-5.343187500000001933e+01,-7.616625000000003354e+01,-1.018068750000000477e+02,-1.286193750000000762e+02,-1.566037500000001046e+02,-1.796506250000001046e+02,-1.940256250000001614e+02,-1.968850000000001614e+02,-1.887287500000001330e+02,-1.689162500000001046e+02,-1.358381250000000762e+02,-9.397875000000004775e+01,-4.682250000000001933e+01,1.880625000000014424e+00,4.795875000000003752e+01,9.064625000000006594e+01,1.306306250000000944e+02,1.631306250000001228e+02,1.836775000000001512e+02,1.940368750000001796e+02,1.970368750000001796e+02,1.932087500000001796e+02,1.843025000000001512e+02,1.687087500000001228e+02,1.443337500000000944e+02,1.158962500000000944e+02,8.525562500000006594e+01,5.491187500000003752e+01,2.414625000000002331e+01,-8.384999999999998010e+00,-4.168187500000001933e+01,-7.399437500000003354e+01,-1.011818750000000477e+02,-1.245725000000000762e+02,-1.431350000000000762e+02,-1.590568750000000762e+02,-1.716818750000000762e+02,-1.779475000000000762e+02,-1.794943750000000762e+02,-1.778381250000000762e+02,-1.743850000000000762e+02,-1.683693750000000762e+02,-1.599475000000000762e+02,-1.484162500000000762e+02,-1.343068750000000762e+02,-1.195100000000000762e+02,-1.039475000000000620e+02,-8.686937500000004775e+01,-7.018187500000003354e+01,-5.483812500000001933e+01,-4.172875000000001933e+01,-3.110375000000001222e+01,-2.297875000000000512e+01,-1.638500000000000156e+01,-1.066624999999999801e+01,-6.228749999999994458e+00,-2.244374999999992237e+00,4.900000000000094835e-01,2.568125000000010871e+00,4.536875000000011759e+00,6.036875000000012648e+00,5.005625000000012648e+00,3.177500000000011315e+00,-3.224999999999909051e-01,-4.369374999999992681e+00,-7.666249999999994458e+00,-1.161937499999999801e+01,-1.608812500000000156e+01,-1.969750000000000156e+01,-2.152562500000000512e+01,-2.496312500000000867e+01,-2.736937500000001222e+01,-2.994750000000001222e+01,-3.324437500000001222e+01,-3.457250000000001222e+01,-3.485375000000001222e+01,-3.582250000000001222e+01,-3.647875000000001222e+01,-3.499437500000001222e+01,-3.399437500000001222e+01,-3.165062500000001222e+01,-2.765062500000001222e+01,-2.524437500000001222e+01,-2.349437500000000867e+01,-2.147875000000000512e+01,-1.947875000000000156e+01,-1.663500000000000156e+01,-1.275999999999999801e+01,-1.025999999999999801e+01,-8.838124999999996234e+00,-5.322499999999994458e+00,-1.150624999999991571e+00,4.583750000000011759e+00,1.084937500000001620e+01,1.559937500000001975e+01,2.124000000000002331e+01,2.814625000000003041e+01,3.658375000000003752e+01,4.384937500000003752e+01,5.106812500000005173e+01,5.677125000000005173e+01,6.275562500000005173e+01,6.956812500000005173e+01,7.584937500000005173e+01,8.252125000000005173e+01,8.842750000000006594e+01,9.524000000000009436e+01,1.030837500000000944e+02,1.115993750000000944e+02,1.197087500000000944e+02,1.287556250000000944e+02,1.370993750000000944e+02,1.447556250000000944e+02,1.509118750000000944e+02,1.555212500000000944e+02,1.579900000000000944e+02,1.604275000000000944e+02,1.625368750000000944e+02,1.622087500000000944e+02,1.611306250000000944e+02,1.582243750000000944e+02,1.563337500000000944e+02,1.542400000000000944e+02,1.525056250000000944e+02,1.489587500000000944e+02,1.428650000000000944e+02,1.362556250000000944e+02,1.292556250000000944e+02,1.225525000000000944e+02,1.134431250000000944e+02,1.038337500000000944e+02,9.249000000000008015e+01,8.124000000000006594e+01,7.138062500000005173e+01,6.200562500000005173e+01,5.175562500000004462e+01,4.189625000000003752e+01,3.330250000000003041e+01,2.475562500000002331e+01,1.805250000000001975e+01,1.106812500000001620e+01,3.771250000000012204e+00,-3.713124999999993125e+00,-9.822499999999998010e+00,-1.694750000000000156e+01,-2.382250000000000512e+01,-2.997875000000001222e+01,-3.643187500000001222e+01,-4.208812500000001933e+01,-4.635375000000002643e+01,-5.086937500000003354e+01,-5.596312500000003354e+01,-5.904125000000003354e+01,-6.143187500000003354e+01,-6.451000000000003354e+01,-6.852562500000003354e+01,-7.219750000000003354e+01,-7.738500000000003354e+01,-8.179125000000003354e+01,-8.541625000000004775e+01,-9.051000000000004775e+01,-9.590062500000007617e+01,-1.004787500000000762e+02,-1.033693750000000762e+02,-1.072756250000000762e+02,-1.099631250000000762e+02,-1.116975000000000762e+02,-1.143850000000000762e+02,-1.162912500000000762e+02,-1.184162500000000762e+02,-1.213850000000000762e+02,-1.259475000000000762e+02,-1.288381250000000762e+02,-1.327756250000000762e+02,-1.384787500000000762e+02,-1.427443750000000762e+02,-1.473225000000000762e+02,-1.528850000000000762e+02,-1.572600000000000762e+02,-1.600256250000000762e+02,-1.639475000000000762e+02,-1.660412500000000762e+02,-1.663537500000000762e+02,-1.679787500000000762e+02,-1.689162500000000762e+02,-1.676662500000000762e+02,-1.671350000000000762e+02,-1.672443750000000762e+02,-1.667131250000000762e+02,-1.677912500000000762e+02,-1.693850000000000762e+02,-1.692756250000000762e+02,-1.699318750000000762e+02,-1.714475000000000762e+02,-1.721350000000000762e+02,-1.729006250000000762e+02,-1.733381250000000762e+02,-1.720100000000000762e+02,-1.708068750000000762e+02,-1.700100000000000762e+02,-1.684318750000000762e+02,-1.671818750000000762e+02,-1.655256250000000762e+02,-1.628850000000000762e+02,-1.610100000000000762e+02,-1.606975000000000762e+02,-1.600568750000000762e+02,-1.601506250000000762e+02,-1.605881250000000762e+02,-1.604006250000000762e+02,-1.617756250000000762e+02,-1.635725000000000762e+02,-1.641037500000000762e+02,-1.640100000000000762e+02,-1.637756250000000762e+02,-1.629006250000000762e+02,-1.616662500000000762e+02,-1.598225000000000762e+02,-1.565256250000000762e+02,-1.539943750000000762e+02,-1.531193750000000762e+02,-1.529631250000000762e+02,-1.549006250000000762e+02,-1.576975000000000762e+02,-1.603068750000000762e+02,-1.650881250000000762e+02,-1.711350000000000762e+02,-1.756037500000000762e+02,-1.786037500000000762e+02,-1.796350000000000762e+02,-1.767131250000000762e+02,-1.714631250000000762e+02,-1.660256250000000762e+02,-1.571037500000000762e+02,-1.461350000000000762e+02,-1.357131250000000762e+02,-1.247912500000000762e+02,-1.132600000000000762e+02,-1.032131250000000762e+02,-9.507250000000006196e+01,-8.680687500000004775e+01,-8.013500000000003354e+01,-7.361937500000003354e+01,-6.724437500000003354e+01,-6.196312500000003354e+01,-5.833812500000003354e+01,-5.560375000000003354e+01,-5.255687500000003354e+01,-4.952562500000003354e+01,-4.780687500000001933e+01,-4.727562500000001933e+01,-4.677562500000001933e+01,-4.563500000000001222e+01,-4.543187500000001222e+01,-4.497875000000001222e+01,-4.454125000000001222e+01,-4.540062500000001222e+01,-4.549437500000001222e+01,-4.676000000000001933e+01,-4.857250000000003354e+01,-5.172875000000003354e+01,-5.396312500000003354e+01,-5.724437500000003354e+01,-6.115062500000003354e+01,-6.443187500000003354e+01,-6.854125000000003354e+01,-7.116625000000003354e+01,-7.410375000000003354e+01,-7.685375000000003354e+01,-8.054125000000003354e+01,-8.315062500000003354e+01,-8.561937500000003354e+01,-8.954125000000004775e+01,-9.229125000000004775e+01,-9.654125000000006196e+01,-1.006193750000000762e+02,-1.042756250000000762e+02,-1.076037500000000762e+02,-1.117131250000000762e+02,-1.163381250000000762e+02,-1.194943750000000762e+02,-1.241818750000000762e+02,-1.276350000000000762e+02,-1.308850000000000762e+02,-1.336662500000000762e+02,-1.361818750000000762e+02,-1.380100000000000762e+02,-1.378381250000000762e+02,-1.379162500000000762e+02,-1.367443750000000762e+02,-1.355881250000000762e+02,-1.343225000000000762e+02,-1.323850000000000762e+02,-1.277131250000000762e+02,-1.208693750000000762e+02,-1.129006250000000762e+02,-1.011506250000000620e+02,-8.668187500000004775e+01,-6.988500000000003354e+01
2.375000000000002665e+00,1.737500000000001421e+01,1.956250000000001421e+01,1.350000000000001066e+01,4.046875000000003553e+00,-6.375000000000003553e+00,-7.984375000000003553e+00,-4.875000000000002665e+00,-1.890625000000001110e+00,-2.656250000000011102e-01,-4.375000000000003553e+00,-7.093750000000006217e+00,-1.506250000000000888e+01,-1.717187500000000711e+01,-1.598437500000000711e+01,-1.789062500000000711e+01,-5.718750000000003553e+00,4.140625000000002665e+00,1.696875000000001066e+01,3.132812500000001776e+01,3.312500000000002132e+01,3.151562500000002132e+01,2.323437500000001421e+01,1.317187500000000711e+01,6.562500000000003553e+00,2.109375000000001776e+00,5.781250000000004441e-01,1.875000000000001665e-01,1.562500000000001388e-01,1.406250000000001110e-01,2.500000000000001665e-01,3.125000000000002220e-01,3.593750000000002220e-01,4.062500000000003331e-01,2.187500000000001943e-01,1.562500000000001735e-02,-1.718750000000001388e-01,-2.968750000000002220e-01,-2.187500000000001665e-01,-1.093750000000000971e-01,-6.938893903907228378e-18,-6.938893903907228378e-18,-4.687500000000004163e-02,-7.812500000000005551e-02,-1.093750000000000833e-01,-4.687500000000002776e-02,-3.125000000000001388e-02,1.562500000000002082e-02,4.687500000000003469e-02,4.687500000000002776e-02,1.093750000000000833e-01,1.562500000000000694e-02,-1.562500000000000694e-02,-1.562500000000000694e-02,-6.250000000000004163e-02,1.406250000000000833e-01,2.343750000000001388e-01,2.500000000000001110e-01,2.812500000000001665e-01,1.387778780781445676e-17,-1.562500000000001110e-01,-2.500000000000001665e-01,-3.281250000000002220e-01,-9.375000000000005551e-02,3.125000000000003469e-02,1.562500000000001110e-01,2.187500000000001665e-01,9.375000000000005551e-02,1.562500000000001041e-02,-1.093750000000000833e-01,-1.718750000000001110e-01,-1.875000000000001388e-01,-1.718750000000001110e-01,-1.250000000000001110e-01,-1.387778780781445676e-17,1.250000000000000833e-01,2.031250000000001110e-01,3.125000000000002220e-01,1.718750000000001388e-01,1.562500000000001735e-02,-1.093750000000000694e-01,-2.812500000000002220e-01,-1.562500000000001110e-01,6.250000000000005551e-02,2.343750000000001665e-01,4.062500000000003331e-01,3.593750000000002776e-01,1.093750000000000833e-01,-9.375000000000004163e-02,-2.187500000000001110e-01,-2.656250000000001665e-01,-1.093750000000000694e-01,1.562500000000001041e-02,-6.938893903907229918e-18,0.000000000000000000e+00,-9.375000000000008327e-02,-1.250000000000001110e-01,-4.687500000000004163e-02,-6.938893903907228378e-18,6.250000000000004163e-02,4.687500000000003469e-02,1.562500000000001041e-02,4.687500000000004163e-02,7.812500000000006939e-02,1.406250000000001110e-01,1.718750000000001665e-01,1.875000000000001665e-01,3.281250000000002776e-01,1.296875000000000888e+00,3.484375000000001776e+00,7.218750000000003553e+00,1.132812500000000711e+01,1.298437500000001066e+01,1.125000000000000711e+01,5.281250000000003553e+00,-7.812499999999966693e-02,-3.281249999999997224e-01,3.421875000000003997e+00,1.084375000000000888e+01,1.387500000000001066e+01,8.062500000000007105e+00,3.124999999999991118e-01,-7.437500000000006217e+00,-1.134375000000000711e+01,-5.375000000000002665e+00,7.812499999999956979e-02,2.031250000000001332e+00,3.921875000000002220e+00,-7.187500000000000000e-01,-4.843750000000001776e+00,-2.765625000000000888e+00,4.406250000000002665e+00,1.225000000000000711e+01,1.821875000000000711e+01,1.665625000000000711e+01,-1.265625000000000888e+00,-1.362500000000000888e+01,-1.829687500000001066e+01,-1.818750000000001066e+01,1.031250000000000000e+00,9.640625000000007105e+00,4.562500000000002665e+00,-3.437500000000000000e-01,-1.428125000000000888e+01,-1.573437500000001066e+01,-1.203125000000000888e+00,1.357812500000000711e+01,2.326562500000001421e+01,2.403125000000001776e+01,9.375000000000005329e+00,-1.221875000000000533e+01,-2.307812500000001421e+01,-3.159375000000002132e+01,-2.646875000000001421e+01,-1.065625000000000711e+01,-1.203125000000001554e+00,9.875000000000007105e+00,1.268750000000000711e+01,9.921875000000005329e+00,7.218750000000004441e+00,3.562500000000002665e+00,5.000000000000002220e-01,-4.531250000000003553e+00,-3.578125000000003109e+00,-3.984375000000003109e+00,-6.406250000000008882e-01,5.781250000000003553e+00,1.312500000000000666e+00,-6.875000000000009992e-01,-7.171875000000005329e+00,-1.337500000000001066e+01,-8.484375000000005329e+00,-5.921875000000003553e+00,-3.906250000000008882e-01,4.234375000000002665e+00,2.078125000000001776e+00,1.140625000000000666e+00,-2.656250000000002220e-01,-2.671875000000001776e+00,-3.296875000000002220e+00,-3.796875000000002220e+00,-4.546875000000002665e+00,-3.687500000000002220e+00,-2.234375000000001776e+00,-1.093750000000000888e+00,-4.687500000000005551e-02,2.656250000000001665e-01,1.250000000000000833e-01,-4.687500000000004163e-02,-1.562500000000001110e-01,-2.187500000000001665e-01,-2.343750000000001665e-01,-2.031250000000001665e-01,-1.875000000000001388e-01,-4.687500000000003469e-02,6.250000000000004163e-02,1.562500000000001110e-01,-6.250000000000005551e-02,-7.031250000000004441e-01,-1.390625000000000888e+00,-2.078125000000001332e+00,-1.593750000000000888e+00,-3.437500000000002220e-01,8.125000000000005551e-01,6.406250000000004441e-01,-1.437500000000001110e+00,-4.562500000000003553e+00,-8.250000000000005329e+00,-7.390625000000005329e+00,-4.640625000000003553e+00,-6.093750000000006661e-01,4.687500000000003553e+00,2.562500000000001776e+00,-1.500000000000001332e+00,-6.843750000000005329e+00,-1.076562500000000711e+01,-6.328125000000004441e+00,7.812500000000066613e-02,9.000000000000007105e+00,1.385937500000001066e+01,1.312500000000001066e+01,1.162500000000000711e+01,4.375000000000002665e+00,-7.343750000000002220e-01,-5.687500000000002665e+00,-1.192187500000000711e+01,-1.048437500000000711e+01,-9.062500000000005329e+00,-5.515625000000002665e+00,2.328125000000001776e+00,5.609375000000003553e+00,1.135937500000000711e+01,1.650000000000001066e+01,1.339062500000000711e+01,8.671875000000003553e+00,-4.328125000000003553e+00,-1.817187500000001066e+01,-2.239062500000001421e+01,-2.459375000000001421e+01,-1.528125000000000888e+01,-4.734375000000003553e+00,5.312500000000004441e-01,1.337500000000000711e+01,1.804687500000001066e+01,2.129687500000001776e+01,2.473437500000001776e+01,1.203125000000000888e+01,1.578125000000001332e+00,-6.531250000000005329e+00,-1.665625000000001066e+01,-1.353125000000000711e+01,-8.828125000000007105e+00,-6.609375000000004441e+00,3.578125000000001776e+00,9.156250000000005329e+00,1.068750000000000711e+01,1.356250000000000888e+01,6.765625000000004441e+00,-2.375000000000001332e+00,-6.921875000000003553e+00,-1.403125000000000711e+01,-1.557812500000001066e+01,-1.060937500000000711e+01,-6.812500000000004441e+00,6.875000000000004441e-01,7.828125000000005329e+00,8.062500000000005329e+00,5.406250000000003553e+00,3.015625000000001776e+00,-2.500000000000002220e+00,-4.062500000000002665e+00,-1.937500000000001332e+00,-2.687500000000001776e+00,1.765625000000001110e+00,7.750000000000004441e+00,1.128125000000000711e+01,1.453125000000000888e+01,1.212500000000000711e+01,1.968750000000001332e+00,-6.296875000000003553e+00,-1.301562500000000711e+01,-1.492187500000000888e+01,-6.953125000000004441e+00,-9.062500000000011102e-01,4.968750000000002665e+00,7.437500000000004441e+00,3.421875000000002665e+00,-8.125000000000002220e-01,-2.875000000000001776e+00,-3.937500000000001776e+00,-4.031250000000001776e+00,-8.281250000000002220e-01,-2.265625000000001332e+00,-1.296875000000000666e+00,2.984375000000002220e+00,5.750000000000003553e+00,1.107812500000000711e+01,1.145312500000000711e+01,6.921875000000003553e+00,-2.328125000000001332e+00,-9.750000000000007105e+00,-1.348437500000000888e+01,-1.192187500000000711e+01,-1.406250000000000444e+00,4.812500000000003553e+00,1.306250000000000888e+01,1.329687500000000888e+01,3.906250000000002665e+00,-1.562500000000000222e+00,-1.375000000000000888e+01,-1.525000000000001066e+01,-7.593750000000005329e+00,-2.437500000000002665e+00,7.406250000000005329e+00,1.125000000000000711e+01,7.953125000000005329e+00,7.281250000000005329e+00,8.343750000000005329e+00,6.281250000000004441e+00,8.281250000000007105e+00,5.296875000000003553e+00,-4.343750000000003553e+00,-8.156250000000007105e+00,-1.523437500000000888e+01,-1.673437500000001066e+01,-1.042187500000000711e+01,-4.781250000000002665e+00,4.875000000000002665e+00,1.276562500000000711e+01,1.253125000000000711e+01,7.625000000000003553e+00,-1.390625000000001776e+00,-1.201562500000000888e+01,-1.401562500000001066e+01,-1.051562500000000711e+01,-2.578125000000001332e+00,5.468750000000003553e+00,6.515625000000005329e+00,3.531250000000003553e+00,-2.734375000000000888e+00,-4.812500000000002665e+00,-2.812499999999995559e-01,7.718750000000006217e+00,1.381250000000001066e+01,1.409375000000001066e+01,5.953125000000005329e+00,-5.734375000000003553e+00,-9.875000000000007105e+00,-1.160937500000000711e+01,-8.265625000000005329e+00,-7.500000000000001110e-01,-1.562499999999998890e-01,2.500000000000002220e+00,7.859375000000005329e+00,8.328125000000005329e+00,9.250000000000005329e+00,4.937500000000002665e+00,-5.781250000000003553e+00,-1.275000000000000888e+01,-1.540625000000001066e+01,-1.131250000000000711e+01,-3.750000000000004441e-01,9.953125000000007105e+00,1.440625000000001066e+01,1.601562500000001066e+01,9.312500000000005329e+00,-1.562500000000088818e-02,-1.828125000000001776e+00,-9.406250000000007105e+00,-7.843750000000005329e+00,-3.234375000000001776e+00,-5.921875000000003553e+00,2.843750000000001332e+00,3.421875000000001776e+00,2.156250000000001776e+00,3.296875000000002220e+00,-4.468750000000002665e+00,-6.718750000000004441e+00,-6.359375000000004441e+00,-2.218750000000001776e+00,3.703125000000002665e+00,7.046875000000005329e+00,6.671875000000004441e+00,1.671875000000001110e+00,-1.718750000000000888e+00,-4.265625000000002665e+00,-3.015625000000001776e+00,7.187500000000006661e-01,5.156250000000003553e+00,1.095312500000000711e+01,1.350000000000001066e+01,1.053125000000000711e+01,2.468750000000001776e+00,-6.687500000000002665e+00,-1.385937500000000711e+01,-1.050000000000000711e+01,6.093750000000008882e-01,8.406250000000005329e+00,1.360937500000000711e+01,1.009375000000000711e+01,1.375000000000000666e+00,-2.765625000000001776e+00,-1.609375000000000444e+00,1.796875000000001998e+00,5.562500000000004441e+00,9.765625000000007105e+00,8.468750000000005329e+00,7.968750000000003553e+00,1.006250000000000533e+01,7.093750000000004441e+00,6.906250000000005329e+00,6.953125000000006217e+00,1.390625000000002220e+00,4.531250000000002220e-01,-2.265625000000002665e+00,-7.593750000000007105e+00,-7.109375000000006217e+00,-1.234375000000000711e+01,-1.889062500000001066e+01,-2.273437500000001421e+01,-2.959375000000002132e+01,-2.854687500000002132e+01,-2.084375000000001421e+01,-1.484375000000000888e+01,-5.109375000000003553e+00,3.703125000000002665e+00,1.115625000000000711e+01,2.821875000000001421e+01,4.195312500000002842e+01,4.804687500000002842e+01,4.379687500000002842e+01,1.684375000000001066e+01,-1.532812500000000888e+01,-4.318750000000002842e+01,-6.056250000000004263e+01,-5.589062500000004263e+01,-4.017187500000002842e+01,-2.284375000000001776e+01,-8.125000000000007105e+00,-7.656250000000011102e-01,4.843750000000001665e-01,4.062500000000001665e-01,-1.406250000000000555e-01,-3.953125000000001776e+00,-5.890625000000002665e+00,-4.171875000000001776e+00,-7.812500000000000000e-01,7.500000000000004441e+00,1.434375000000000888e+01,1.542187500000001066e+01,1.312500000000000711e+01,7.906250000000004441e+00,2.796875000000001776e+00,-9.687500000000003331e-01,-2.281250000000000888e+00,-2.031250000000000888e+00,1.031250000000000888e+00,6.546875000000003553e+00,1.345312500000000711e+01,1.843750000000001066e+01,1.709375000000001066e+01,1.523437500000001066e+01,8.718750000000005329e+00,6.046875000000003553e+00,9.703125000000005329e+00,9.343750000000007105e+00,1.312500000000000888e+01,9.437500000000007105e+00,3.390625000000003109e+00,3.156250000000002220e+00,7.031249999999998890e-01,7.546875000000005329e+00,1.140625000000000711e+01,1.129687500000000711e+01,1.076562500000000711e+01,2.156250000000001776e+00,-5.937500000000000000e-01,-4.281250000000003553e+00,-5.953125000000003553e+00,-4.078125000000003553e+00,-9.046875000000007105e+00,-1.003125000000000711e+01,-1.304687500000000711e+01,-1.639062500000001066e+01,-1.221875000000000711e+01,-9.781250000000005329e+00,-5.671875000000002665e+00,4.375000000000007772e-01,8.593750000000008882e-01,-5.000000000000002220e-01,-1.187500000000000666e+00,-2.500000000000001776e+00,-1.812500000000001554e+00,3.328125000000002665e+00,5.250000000000003553e+00,1.703125000000001110e+00,-2.656250000000004996e-01,-8.562500000000005329e+00,-1.176562500000000711e+01,-6.671875000000004441e+00,-5.203125000000003553e+00,3.531250000000002220e+00,4.656250000000002665e+00,3.125000000000044409e-02,-1.453125000000000222e+00,-1.064062500000000711e+01,-1.096875000000000711e+01,-8.703125000000003553e+00,-7.765625000000004441e+00,1.687500000000000888e+00,3.578125000000002665e+00,5.093750000000002665e+00,8.281250000000005329e+00,4.515625000000003553e+00,6.671875000000003553e+00,7.140625000000004441e+00,6.156250000000004441e+00,5.906250000000003553e+00,1.984375000000001332e+00,1.609375000000000888e+00,-1.171875000000000888e+00,7.656250000000008882e-01,3.515625000000002665e+00,1.703125000000001332e+00,3.468750000000002220e+00,1.515625000000000888e+00,-7.187500000000003331e-01,-1.718750000000001388e-01,2.187500000000001943e-01,-7.500000000000003331e-01,-1.093750000000000666e+00,-2.000000000000001332e+00,-5.968750000000004441e+00,-4.671875000000003553e+00,-2.593750000000002220e+00,4.374999999999995559e-01,6.921875000000003553e+00,6.718750000000003553e+00,5.296875000000003553e+00,1.562500000000001554e+00,-2.640625000000001776e+00,-1.875000000000001332e+00,-3.562500000000002220e+00,-1.656250000000001110e+00,-2.703125000000001776e+00,-4.437500000000003553e+00,3.125000000000002220e-01,-2.812500000000000000e-01,2.578125000000001776e+00,2.890625000000001776e+00,-3.250000000000002665e+00,-2.281250000000001776e+00,-3.156250000000002665e+00,-1.859375000000001998e+00,4.750000000000003553e+00,5.500000000000003553e+00,6.328125000000003553e+00,9.187500000000007105e+00,6.484375000000004441e+00,4.765625000000003553e+00,3.265625000000002220e+00,-4.921875000000002665e+00,-7.734375000000003553e+00,-9.468750000000005329e+00,-9.234375000000005329e+00,-2.562500000000001332e+00,-5.000000000000003331e-01,2.265625000000001332e+00,-3.124999999999995559e-01,-3.750000000000001776e+00,-4.750000000000002665e+00,-4.937500000000002665e+00,1.093750000000001110e+00,2.468750000000002220e+00,6.359375000000003553e+00,5.406250000000003553e+00,2.062500000000000888e+00,4.171875000000002665e+00,6.406250000000005551e-01,2.531250000000001776e+00,3.390625000000002220e+00,2.156250000000001332e+00,4.437500000000002665e+00,3.484375000000002665e+00,1.734375000000001332e+00,-1.031250000000000444e+00,-5.562500000000004441e+00,-7.718750000000006217e+00,-6.750000000000005329e+00,-4.765625000000003553e+00,1.078125000000000444e+00,2.640625000000001776e+00,2.046875000000001332e+00,2.421875000000001332e+00,-1.437500000000001110e+00,1.171875000000000000e+00,3.343750000000001332e+00,3.234375000000001332e+00,4.046875000000001776e+00,-2.312500000000001776e+00,-5.734375000000003553e+00,-8.343750000000005329e+00,-9.796875000000007105e+00,-4.796875000000003553e+00,-1.203125000000000666e+00,4.859375000000002665e+00,8.859375000000005329e+00,1.064062500000000711e+01,9.218750000000005329e+00,3.687500000000001776e+00,2.890625000000001332e+00,-2.203125000000001776e+00,-3.562500000000002220e+00,-2.453125000000000888e+00,-7.750000000000003553e+00,-5.625000000000003553e+00,-5.265625000000003553e+00,-3.375000000000001776e+00,3.406250000000001776e+00,4.359375000000002665e+00,7.875000000000003553e+00,7.078125000000003553e+00,3.250000000000001776e+00,9.375000000000006661e-01,-5.125000000000002665e+00,-8.328125000000005329e+00,-9.187500000000007105e+00,-7.109375000000005329e+00,-1.781250000000001332e+00,3.140625000000001776e+00,7.125000000000004441e+00,6.234375000000003553e+00,2.890625000000001776e+00,-2.343750000000000000e-01,-4.562500000000002665e+00,-3.812500000000002665e+00,-1.921875000000001110e+00,-1.312500000000000666e+00,4.375000000000001110e-01,-2.765625000000001776e+00,-4.968750000000003553e+00,-4.375000000000002665e+00,-3.328125000000001776e+00,1.562500000000000666e+00,3.843750000000002220e+00,2.609375000000001776e+00,2.968749999999997780e-01,-3.203125000000002220e+00,-4.406250000000002665e+00,-3.140625000000001776e+00,-7.812500000000004441e-01,-2.343750000000002776e-01,-9.375000000000011102e-02,2.343750000000001943e-01,2.656250000000002220e-01,3.109375000000001776e+00,4.203125000000001776e+00,2.390625000000001332e+00,-1.296875000000000888e+00,-6.437500000000003553e+00,-8.734375000000005329e+00,-9.031250000000005329e+00,-4.531250000000002665e+00,-7.031250000000008882e-01,2.250000000000000888e+00,7.265625000000004441e+00,6.625000000000003553e+00,8.343750000000005329e+00,8.734375000000005329e+00,5.906250000000003553e+00,4.984375000000003553e+00,1.140625000000000888e+00,-4.031250000000003553e+00,-9.156250000000007105e+00,-1.042187500000000711e+01,-8.578125000000005329e+00,-1.406250000000000000e-01,1.076562500000000711e+01,1.360937500000001066e+01,1.232812500000000888e+01,1.312500000000000888e+00,-1.279687500000000888e+01,-1.720312500000001066e+01,-1.640625000000001066e+01,-6.781250000000004441e+00,8.234375000000007105e+00,1.620312500000001066e+01,2.057812500000001421e+01,2.159375000000001421e+01,1.481250000000000888e+01,8.859375000000007105e+00,1.437500000000000888e+00,-8.140625000000003553e+00,-1.214062500000000711e+01,-1.223437500000000711e+01,-6.109375000000002665e+00,2.109375000000001332e+00,8.062500000000005329e+00,1.057812500000000711e+01,7.859375000000003553e+00,1.006250000000000711e+01,1.998437500000001421e+01,3.128125000000002487e+01,4.198437500000002842e+01,3.504687500000002842e+01,4.343750000000005329e+00,-3.598437500000002842e+01,-8.085937500000005684e+01,-1.059375000000000853e+02,-9.971875000000007105e+01,-7.353125000000005684e+01,-3.067187500000002842e+01,5.656250000000000000e+00,2.106250000000001066e+01,2.298437500000001421e+01,1.659375000000001066e+01,1.290625000000001066e+01,2.204687500000001776e+01,3.710937500000002842e+01,4.556250000000002842e+01,4.976562500000004263e+01,4.589062500000002842e+01,3.396875000000002132e+01,2.737500000000002132e+01,1.628125000000001066e+01,5.281250000000003553e+00,2.343750000000000888e+00,-6.406250000000011102e-01,6.140625000000004441e+00,1.103125000000000711e+01,8.312500000000003553e+00,1.796875000000000888e+00,-1.345312500000000711e+01,-2.220312500000001421e+01,-2.706250000000001776e+01,-2.843750000000002132e+01,-2.307812500000001776e+01,-2.145312500000001421e+01,-1.700000000000001066e+01,-1.001562500000000711e+01,-6.671875000000004441e+00,-2.687500000000001776e+00,-1.890625000000001110e+00,-7.437500000000003553e+00,-1.178125000000000711e+01,-1.595312500000001066e+01,-1.850000000000001066e+01,-1.156250000000000711e+01,-1.890625000000001554e+00,1.054687500000000711e+01,2.307812500000001421e+01,2.434375000000001776e+01,2.134375000000001421e+01,1.178125000000000711e+01,-1.437500000000000222e+00,-5.968750000000003553e+00,-9.906250000000007105e+00,-7.640625000000005329e+00,1.375000000000000666e+00,5.421875000000003553e+00,1.257812500000000711e+01,1.595312500000001066e+01,1.104687500000000711e+01,7.750000000000005329e+00,3.750000000000013323e-01,-5.578125000000002665e+00,-6.281250000000003553e+00,-5.515625000000003553e+00,-2.421875000000001776e+00,1.250000000000001110e-01,2.703125000000001776e+00,1.828125000000001110e+00,-1.562500000000011102e-02,2.500000000000000555e-01,-1.265625000000000666e+00,-1.875000000000000888e+00,-1.343750000000000666e+00,-5.000000000000002665e+00,-8.656250000000005329e+00,-7.265625000000005329e+00,-5.640625000000003553e+00,-2.968750000000004441e-01,6.515625000000003553e+00,6.234375000000003553e+00,2.984375000000001776e+00,-4.062500000000000000e-01,-3.718750000000001776e+00,-4.062500000000002665e+00,-5.625000000000004441e-01,6.250000000000011102e-02,-1.546875000000000888e+00,-8.125000000000004441e-01,-2.734375000000001332e+00,-3.343750000000001776e+00,-2.234375000000001332e+00,-3.921875000000001776e+00,-4.750000000000002665e+00,-2.093750000000000888e+00,-3.124999999999980571e-02,1.328125000000001110e+00,4.796875000000003553e+00,2.468750000000001776e+00,1.859375000000000666e+00,3.796875000000001776e+00,2.031249999999997780e-01,3.125000000000000000e-02,-3.187500000000001776e+00,-8.875000000000005329e+00,-7.656250000000004441e+00,-5.859375000000003553e+00,-1.093750000000000444e+00,6.109375000000004441e+00,8.328125000000005329e+00,7.609375000000005329e+00,5.453125000000003553e+00,3.406250000000001776e+00,4.125000000000002665e+00,8.125000000000003553e+00,9.765625000000005329e+00,7.156250000000004441e+00,1.171875000000000444e+00,-5.984375000000003553e+00,-7.156250000000005329e+00,-3.062500000000002665e+00,5.296875000000002665e+00,1.090625000000000711e+01,1.181250000000000711e+01,8.984375000000007105e+00,2.859375000000001332e+00,1.312500000000000666e+00,-5.156250000000004441e-01,-4.687500000000004441e-01,2.500000000000001776e+00,1.375000000000001110e+00,1.859375000000001332e+00,1.359375000000001110e+00,-3.890625000000002665e+00,-6.031250000000004441e+00,-7.187500000000004441e+00,-6.828125000000004441e+00,-1.750000000000001332e+00,2.171875000000001776e+00,3.968750000000002665e+00,3.515625000000002665e+00,1.562500000000001110e+00,-1.125000000000000888e+00,-2.687500000000001776e+00,-2.406250000000001332e+00,-2.640625000000001776e+00,-2.796875000000001776e+00,-3.656250000000002665e+00,-4.078125000000002665e+00,-3.359375000000002665e+00,-1.468750000000001110e+00,2.546875000000001332e+00,3.312500000000001776e+00,2.390625000000001332e+00,1.937500000000001110e+00,-5.625000000000003331e-01,1.093750000000000888e+00,2.906250000000001776e+00,2.750000000000001776e+00,1.140625000000000444e+00,-4.093750000000003553e+00,-7.140625000000005329e+00,-8.984375000000007105e+00,-6.171875000000004441e+00,-3.750000000000003331e-01,4.437500000000002665e+00,7.468750000000004441e+00,5.593750000000003553e+00,3.312500000000001776e+00,-1.187500000000001110e+00,-2.421875000000001776e+00,8.906250000000002220e-01,1.156250000000000666e+00,3.171875000000001776e+00,3.312500000000001776e+00,-1.625000000000000888e+00,-3.937500000000002665e+00,-4.671875000000002665e+00,-6.062500000000003553e+00,-4.593750000000003553e+00,-2.968750000000001776e+00,-3.156250000000002220e+00,-2.843750000000001776e+00,-7.187500000000003331e-01,1.562500000000000888e+00,2.296875000000001332e+00,4.578125000000002665e+00,4.531250000000002665e+00,1.312500000000000666e+00,1.328125000000000666e+00,-8.906250000000006661e-01,-4.812500000000002665e+00,-3.687500000000001776e+00,-3.359375000000001776e+00,-2.609375000000001332e+00,2.000000000000001332e+00,1.984375000000001110e+00,-1.125000000000000666e+00,-2.203125000000000888e+00,-4.578125000000002665e+00,-4.234375000000002665e+00,1.375000000000000888e+00,4.500000000000002665e+00,5.500000000000003553e+00,6.296875000000003553e+00,2.765625000000001776e+00,2.031250000000000278e-01,-2.343750000000002220e-01,-1.171875000000000888e+00,-7.500000000000005551e-01,-9.687500000000007772e-01,-1.125000000000000888e+00,-3.671875000000002220e+00,-5.359375000000003553e+00,-4.218750000000002665e+00,-5.312500000000003553e+00,-7.343750000000008882e-01,3.234375000000001776e+00,3.296875000000001776e+00,9.078125000000005329e+00,1.076562500000000711e+01,1.150000000000000711e+01,1.335937500000001066e+01,6.140625000000004441e+00,-2.937500000000002665e+00,-1.203125000000001066e+01,-1.890625000000001421e+01,-1.893750000000001066e+01,-1.554687500000001066e+01,-9.484375000000005329e+00,-6.421875000000003553e+00,-5.343750000000003553e+00,-2.125000000000001776e+00,-6.093750000000009992e-01,3.093750000000001776e+00,8.312500000000005329e+00,7.453125000000004441e+00,5.812500000000004441e+00,3.484375000000002665e+00,-5.625000000000005551e-01,5.468750000000004441e-01,1.796875000000001332e+00,3.078125000000002665e+00,4.140625000000003553e+00,3.031250000000002665e+00,3.734375000000002665e+00,2.765625000000001776e+00,3.546875000000002665e+00,3.078125000000002220e+00,-3.593750000000004996e-01,-6.250000000000027756e-02,-3.078125000000002220e+00,-3.156250000000002665e+00,5.312500000000002220e-01,1.015625000000000666e+00,5.046875000000003553e+00,7.312500000000005329e+00,5.562500000000003553e+00,4.593750000000002665e+00,1.390625000000000888e+00,-2.765625000000001776e+00,-3.109375000000001776e+00,-3.828125000000002665e+00,-1.718750000000000888e+00,1.656250000000000888e+00,1.031250000000000444e+00,2.781250000000001776e+00,-5.312500000000004441e-01,-2.484375000000001332e+00,-3.906250000000003331e-01,-1.468750000000000888e+00,2.531250000000001776e+00,4.718750000000003553e+00,3.234375000000002665e+00,2.203125000000001776e+00,-9.687500000000003331e-01,-5.171875000000003553e+00,-5.359375000000003553e+00,-2.453125000000001776e+00,6.718750000000011102e-01,6.375000000000003553e+00,6.312500000000003553e+00,1.656250000000000888e+00,-4.953125000000002665e+00,-1.312500000000000711e+01,-1.485937500000001066e+01,-1.078125000000000711e+01,-2.203125000000000888e+00,7.078125000000003553e+00,1.293750000000000711e+01,1.012500000000000711e+01,-2.343750000000000000e-01,-1.332812500000000711e+01,-2.892187500000001421e+01,-3.517187500000002132e+01,-2.932812500000001776e+01,-1.668750000000001066e+01
8.812500000000003553e+00,2.293750000000001421e+01,1.200000000000000711e+01,7.687500000000003553e+00,1.062500000000000000e+00,-2.043750000000001066e+01,-1.325000000000000533e+01,1.206250000000000711e+01,6.000000000000003553e+00,-4.812500000000002665e+00,7.312500000000002665e+00,1.437500000000000888e+00,-2.087500000000001066e+01,-5.750000000000003553e+00,1.137500000000000711e+01,-6.812500000000002665e+00,-1.575000000000000711e+01,-7.875000000000003553e+00,7.000000000000003553e+00,2.237500000000001066e+01,1.900000000000001066e+01,7.312500000000003553e+00,1.500000000000000888e+00,1.250000000000000833e-01,2.500000000000001665e-01,6.250000000000005551e-02,-6.250000000000002776e-02,6.250000000000002776e-02,0.000000000000000000e+00,0.000000000000000000e+00,1.875000000000000833e-01,0.000000000000000000e+00,-1.250000000000000555e-01,2.500000000000001110e-01,4.375000000000002220e-01,1.875000000000001110e-01,-3.125000000000001665e-01,-6.250000000000003331e-01,-1.875000000000001110e-01,4.375000000000002220e-01,3.125000000000001665e-01,-1.875000000000001110e-01,-1.875000000000001110e-01,0.000000000000000000e+00,-6.250000000000002776e-02,0.000000000000000000e+00,1.250000000000000555e-01,0.000000000000000000e+00,-1.250000000000000555e-01,0.000000000000000000e+00,6.250000000000002776e-02,6.250000000000002776e-02,2.500000000000001110e-01,-6.250000000000000000e-02,-5.625000000000002220e-01,-6.250000000000005551e-02,5.625000000000002220e-01,3.125000000000001665e-01,-1.875000000000001110e-01,-1.250000000000000833e-01,3.125000000000001110e-01,-6.250000000000005551e-02,-6.875000000000004441e-01,-1.875000000000001110e-01,4.375000000000002220e-01,3.125000000000001110e-01,0.000000000000000000e+00,-1.250000000000000555e-01,-6.250000000000002776e-02,6.250000000000002776e-02,6.250000000000002776e-02,-1.875000000000001110e-01,-2.500000000000001110e-01,1.250000000000000833e-01,1.875000000000001110e-01,-2.500000000000001110e-01,-1.250000000000000555e-01,4.375000000000002220e-01,3.125000000000001665e-01,-6.250000000000002776e-02,-1.875000000000000833e-01,-2.500000000000001110e-01,-1.250000000000000555e-01,-6.250000000000002776e-02,6.250000000000002776e-02,4.375000000000002220e-01,3.125000000000001665e-01,-6.250000000000004163e-02,-1.387778780781445676e-17,-2.500000000000001110e-01,-5.625000000000002220e-01,1.250000000000001110e-01,5.625000000000003331e-01,-6.250000000000000000e-02,-2.500000000000001110e-01,1.250000000000000555e-01,-6.250000000000005551e-02,-3.750000000000002220e-01,6.250000000000000000e-02,5.000000000000002220e-01,6.250000000000000000e-02,-3.750000000000002220e-01,-1.250000000000000833e-01,1.250000000000000555e-01,1.250000000000000555e-01,1.875000000000000833e-01,1.250000000000000555e-01,-1.875000000000001110e-01,-2.500000000000001110e-01,1.875000000000000833e-01,6.250000000000003331e-01,8.125000000000004441e-01,3.562500000000001776e+00,1.012500000000000533e+01,1.175000000000000533e+01,-6.250000000000008882e-01,-1.868750000000001066e+01,-1.668750000000000711e+01,1.050000000000000533e+01,2.887500000000001421e+01,1.825000000000001066e+01,-9.312500000000003553e+00,-2.962500000000001421e+01,-1.312500000000000533e+01,1.793750000000000711e+01,1.081250000000000533e+01,-7.250000000000003553e+00,-1.500000000000000888e+00,1.250000000000000000e-01,3.250000000000000888e+00,9.000000000000003553e+00,-1.843750000000000711e+01,-2.856250000000001066e+01,3.006250000000001066e+01,5.593750000000002132e+01,-3.500000000000003553e+00,-3.950000000000001421e+01,-2.300000000000001066e+01,-5.750000000000003553e+00,6.125000000000002665e+00,1.031250000000000355e+01,2.425000000000000711e+01,2.256250000000000711e+01,-3.412500000000001421e+01,-5.106250000000002132e+01,7.750000000000003553e+00,3.200000000000001421e+01,1.350000000000000355e+01,1.487500000000000711e+01,6.937500000000004441e+00,-1.550000000000000711e+01,-1.256250000000000711e+01,-8.062500000000003553e+00,-1.562500000000000711e+01,-1.512500000000000711e+01,4.312500000000000888e+00,2.962500000000001421e+01,1.393750000000000888e+01,-2.262500000000000711e+01,-1.137500000000000533e+01,2.081250000000000711e+01,1.100000000000000711e+01,-1.118750000000000355e+01,-6.937500000000003553e+00,-5.000000000000001776e+00,-4.687500000000001776e+00,8.375000000000003553e+00,1.343750000000000711e+01,4.500000000000002665e+00,-1.143750000000000355e+01,-1.393750000000000533e+01,-3.937500000000001776e+00,-2.500000000000000888e+00,6.625000000000002665e+00,1.375000000000000533e+01,-4.500000000000001776e+00,-1.243750000000000533e+01,3.875000000000001776e+00,8.125000000000003553e+00,-2.750000000000000888e+00,-5.812500000000002665e+00,-1.937500000000000888e+00,-1.875000000000000833e-01,6.250000000000002776e-02,3.750000000000001665e-01,3.125000000000001110e-01,0.000000000000000000e+00,-6.250000000000002776e-02,-6.250000000000002776e-02,-1.250000000000000555e-01,0.000000000000000000e+00,6.250000000000002776e-02,-1.875000000000001110e-01,-1.875000000000001110e-01,1.250000000000000555e-01,0.000000000000000000e+00,-1.250000000000000555e-01,2.500000000000001110e-01,3.125000000000001110e-01,-6.250000000000002776e-02,-1.875000000000000833e-01,-1.312500000000000444e+00,-3.562500000000001332e+00,-9.375000000000004441e-01,5.937500000000001776e+00,5.250000000000001776e+00,-3.312500000000001332e+00,-6.812500000000003553e+00,-5.375000000000001776e+00,-4.937500000000001776e+00,2.937500000000000888e+00,7.562500000000002665e+00,-1.750000000000000888e+00,2.812500000000001776e+00,1.175000000000000711e+01,-1.131250000000000355e+01,-3.262500000000001421e+01,-2.937500000000001776e+00,3.668750000000001421e+01,1.775000000000000711e+01,-2.156250000000001066e+01,-1.062500000000000355e+01,2.087500000000001066e+01,1.450000000000000711e+01,-1.575000000000000711e+01,-1.581250000000000711e+01,4.812500000000001776e+00,-1.937500000000000888e+00,-9.437500000000003553e+00,7.562500000000002665e+00,9.062500000000003553e+00,-6.125000000000001776e+00,-5.187500000000001776e+00,1.200000000000000533e+01,2.175000000000000711e+01,5.875000000000000888e+00,-1.668750000000001066e+01,-2.500000000000001421e+01,-1.737500000000000711e+01,5.562500000000001776e+00,1.512500000000000711e+01,2.687500000000001332e+00,-9.625000000000005329e+00,-1.112500000000000533e+01,1.500000000000000533e+01,3.325000000000001421e+01,8.125000000000003553e+00,-1.037500000000000711e+01,-1.393750000000000711e+01,-1.725000000000000711e+01,4.750000000000003553e+00,1.568750000000000888e+01,-9.000000000000005329e+00,-1.762500000000001066e+01,1.000000000000000888e+00,2.043750000000001066e+01,1.850000000000000711e+01,-7.187500000000003553e+00,-1.212500000000000533e+01,3.687500000000001332e+00,-3.250000000000001776e+00,-8.687500000000003553e+00,1.250000000000000444e+00,-6.750000000000002665e+00,-1.162500000000000355e+01,9.250000000000003553e+00,2.168750000000000711e+01,7.312500000000002665e+00,-1.600000000000000711e+01,-1.775000000000000711e+01,1.137500000000000533e+01,1.850000000000000711e+01,-1.256250000000000711e+01,-1.600000000000000711e+01,8.062500000000003553e+00,8.937500000000003553e+00,2.875000000000000888e+00,1.106250000000000355e+01,1.000000000000000355e+01,-7.250000000000002665e+00,-1.881250000000000711e+01,-8.625000000000003553e+00,3.562500000000000888e+00,-3.750000000000008882e-01,3.687500000000002220e+00,1.150000000000000711e+01,1.312500000000000888e+00,-5.625000000000002665e+00,-2.937500000000001332e+00,-6.625000000000001776e+00,-7.500000000000000000e-01,1.137500000000000355e+01,1.874999999999991118e-01,-1.050000000000000533e+01,-1.937500000000000888e+00,2.562500000000000888e+00,3.500000000000000888e+00,8.687500000000003553e+00,9.562500000000003553e+00,3.500000000000001776e+00,-7.375000000000003553e+00,-2.006250000000001066e+01,-1.225000000000000711e+01,1.262500000000000355e+01,1.250000000000000355e+01,-6.750000000000003553e+00,-4.250000000000001776e+00,2.237500000000000711e+01,1.762500000000000711e+01,-2.718750000000001421e+01,-2.956250000000001421e+01,4.500000000000001776e+00,1.075000000000000355e+01,7.375000000000002665e+00,7.125000000000002665e+00,-5.000000000000000000e-01,-2.125000000000000888e+00,-3.437500000000001776e+00,-2.687500000000001332e+00,1.456250000000000711e+01,1.337500000000000711e+01,-9.625000000000003553e+00,-1.087500000000000355e+01,-1.500000000000000666e+00,-2.687500000000000888e+00,-8.437500000000003553e+00,-7.437500000000003553e+00,5.750000000000002665e+00,9.062500000000003553e+00,1.562500000000000888e+00,1.087500000000000355e+01,1.400000000000000533e+01,-1.437500000000000533e+01,-2.981250000000001421e+01,-6.062500000000003553e+00,1.768750000000000711e+01,9.875000000000003553e+00,-5.500000000000001776e+00,1.437500000000000888e+00,1.081250000000000533e+01,-4.500000000000002665e+00,-2.512500000000001421e+01,-9.937500000000003553e+00,2.900000000000001421e+01,3.187500000000001421e+01,-4.125000000000001776e+00,-2.043750000000000711e+01,-1.256250000000000533e+01,-8.875000000000003553e+00,7.937500000000005329e+00,1.762500000000000711e+01,-8.375000000000005329e+00,-1.381250000000000711e+01,7.187500000000003553e+00,2.437500000000001776e+00,1.687500000000001776e+00,2.150000000000001066e+01,7.125000000000003553e+00,-2.968750000000001066e+01,-2.200000000000000711e+01,1.356250000000000533e+01,8.187500000000003553e+00,-1.556250000000000711e+01,7.437500000000003553e+00,3.287500000000001421e+01,5.000000000000000000e-01,-2.287500000000001066e+01,2.500000000000000000e-01,7.000000000000003553e+00,-4.687500000000001776e+00,-6.750000000000003553e+00,5.000000000000000000e-01,6.000000000000003553e+00,-6.750000000000003553e+00,-1.562500000000001776e+00,1.881250000000000711e+01,1.625000000000000000e+00,-1.837500000000000711e+01,-5.750000000000001776e+00,3.125000000000000000e-01,-4.375000000000001776e+00,1.362500000000000711e+01,2.162500000000001066e+01,-1.056250000000000355e+01,-2.406250000000001066e+01,5.812500000000003553e+00,1.643750000000000711e+01,-8.000000000000001776e+00,-1.037500000000000355e+01,8.687500000000003553e+00,5.437500000000002665e+00,3.437500000000001776e+00,1.943750000000001066e+01,4.125000000000003553e+00,-3.131250000000001421e+01,-2.175000000000001066e+01,7.125000000000003553e+00,1.306250000000000711e+01,2.075000000000001066e+01,1.631250000000000711e+01,-1.750000000000001066e+01,-2.712500000000001421e+01,2.750000000000001776e+00,2.050000000000001066e+01,9.375000000000005329e+00,-8.625000000000003553e+00,-1.118750000000000355e+01,1.087500000000000355e+01,1.725000000000000711e+01,-7.562500000000001776e+00,-8.250000000000001776e+00,1.087500000000000533e+01,5.125000000000001776e+00,-4.625000000000001776e+00,-1.187499999999999556e+00,4.375000000000009437e-01,-4.687500000000002665e+00,-8.125000000000005329e+00,4.562500000000001776e+00,7.125000000000003553e+00,-1.893750000000000711e+01,-2.625000000000001066e+01,-7.250000000000003553e+00,3.375000000000001776e+00,1.068750000000000533e+01,9.437500000000003553e+00,-1.143750000000000533e+01,-1.950000000000000711e+01,9.125000000000003553e+00,4.893750000000002132e+01,4.125000000000002132e+01,-7.000000000000000000e+00,-1.687500000000000711e+01,-4.875000000000001776e+00,-2.987500000000001421e+01,-4.737500000000002132e+01,-1.468750000000000355e+01,2.506250000000001066e+01,2.200000000000000711e+01,-1.306250000000000533e+01,-2.418750000000001066e+01,4.875000000000002665e+00,2.087500000000001421e+01,2.937500000000002665e+00,-9.750000000000003553e+00,-1.218750000000000533e+01,-1.206250000000000711e+01,8.875000000000003553e+00,2.387500000000001421e+01,4.312500000000001776e+00,-8.125000000000003553e+00,5.312500000000002665e+00,4.625000000000001776e+00,-8.750000000000005329e+00,-6.875000000000008882e-01,8.625000000000003553e+00,-5.187500000000001776e+00,-1.143750000000000533e+01,5.375000000000001776e+00,1.556250000000000711e+01,1.187500000000000533e+01,6.812500000000002665e+00,-4.500000000000002665e+00,-9.750000000000005329e+00,-1.187500000000001332e+00,8.250000000000003553e+00,1.375000000000000711e+01,6.875000000000003553e+00,-2.937500000000001332e+00,-7.437500000000003553e+00,-9.000000000000003553e+00,3.000000000000000888e+00,1.337500000000000711e+01,9.500000000000005329e+00,1.312500000000000000e+00,-2.937500000000001776e+00,-9.375000000000001110e-01,-4.625000000000002665e+00,-5.562500000000002665e+00,3.750000000000002665e+00,6.875000000000003553e+00,-2.125000000000001332e+00,-1.550000000000000711e+01,-8.875000000000003553e+00,7.750000000000002665e+00,-2.250000000000001776e+00,-1.212500000000000533e+01,1.437500000000000000e+00,8.250000000000003553e+00,6.250000000000003553e+00,1.562500000000000888e+00,-1.400000000000000711e+01,-1.156250000000000711e+01,1.300000000000000711e+01,1.125000000000000711e+01,-4.437500000000001776e+00,2.625000000000000444e+00,2.812500000000000000e+00,-1.231250000000000533e+01,-1.581250000000000711e+01,-1.000000000000001776e+00,1.687500000000000711e+01,9.062500000000003553e+00,-6.125000000000002665e+00,-4.437500000000001776e+00,-2.187500000000000888e+00,-1.687500000000000666e+00,-6.062500000000002665e+00,-7.687500000000003553e+00,2.437500000000000888e+00,5.687500000000002665e+00,6.687500000000003553e+00,3.500000000000001776e+00,-8.187500000000003553e+00,-1.375000000000001776e+00,9.312500000000003553e+00,2.562500000000000888e+00,7.500000000000000000e-01,5.000000000000001776e+00,-4.250000000000002665e+00,-8.750000000000003553e+00,7.062500000000002665e+00,4.062500000000001776e+00,-8.625000000000003553e+00,9.000000000000005329e+00,1.143750000000000711e+01,-1.631250000000000711e+01,-1.118750000000000533e+01,1.762500000000000711e+01,9.625000000000005329e+00,-1.556250000000000711e+01,-9.187500000000003553e+00,1.362500000000000711e+01,9.312500000000003553e+00,-1.968750000000000711e+01,-1.743750000000000711e+01,1.775000000000000711e+01,2.231250000000000711e+01,-2.187500000000001776e+00,-1.093750000000000533e+01,-4.937500000000001776e+00,-2.812500000000001332e+00,2.750000000000000888e+00,1.131250000000000533e+01,-9.375000000000000000e-01,-1.443750000000000711e+01,-5.062500000000002665e+00,5.437500000000002665e+00,9.000000000000003553e+00,4.687500000000002665e+00,-3.375000000000001776e+00,-6.062500000000003553e+00,-9.000000000000003553e+00,3.750000000000017764e-01,1.231250000000000711e+01,1.562500000000001776e+00,-3.375000000000001776e+00,3.625000000000000888e+00,-2.000000000000000888e+00,2.687500000000001776e+00,1.331250000000000711e+01,-2.375000000000000888e+00,-1.412500000000000533e+01,-3.625000000000000888e+00,1.062500000000000444e+00,-5.312500000000001776e+00,-1.687500000000000444e+00,1.193750000000000533e+01,6.625000000000002665e+00,-9.250000000000003553e+00,-8.500000000000003553e+00,-6.875000000000004441e-01,-1.312500000000000444e+00,8.125000000000008882e-01,1.243750000000000533e+01,6.187500000000001776e+00,-1.012500000000000533e+01,-7.750000000000003553e+00,5.062500000000001776e+00,1.293750000000000711e+01,3.125000000000000000e-01,-1.412500000000000711e+01,-1.000000000000000000e+00,1.381250000000000711e+01,5.562500000000002665e+00,-5.875000000000002665e+00,-4.812500000000001776e+00,-1.875000000000000888e+00,-3.500000000000001776e+00,-2.500000000000001332e+00,-6.250000000000001110e-01,6.250000000000011102e-02,1.018750000000000355e+01,9.062500000000003553e+00,-1.387500000000000711e+01,-1.418750000000000711e+01,8.562500000000003553e+00,1.431250000000000533e+01,3.125000000000000888e+00,-3.750000000000001776e+00,-5.187500000000002665e+00,-1.025000000000000533e+01,-2.187500000000000888e+00,1.118750000000000711e+01,-4.125000000000001776e+00,-1.593750000000000711e+01,8.062500000000003553e+00,2.218750000000001066e+01,1.625000000000000000e+00,-8.187500000000003553e+00,-7.500000000000000000e-01,-5.250000000000002665e+00,2.000000000000000888e+00,1.206250000000000533e+01,-6.500000000000003553e+00,-1.500000000000000711e+01,1.125000000000000000e+00,7.000000000000002665e+00,-3.750000000000000888e+00,-3.500000000000000888e+00,1.118750000000000355e+01,6.437500000000002665e+00,-6.625000000000002665e+00,-3.125000000000000000e-01,4.750000000000001776e+00,-2.062500000000001332e+00,-7.250000000000003553e+00,-8.375000000000003553e+00,-4.687500000000001776e+00,7.375000000000003553e+00,1.312500000000000711e+01,8.750000000000008882e-01,-7.250000000000003553e+00,3.750000000000004441e-01,4.750000000000002665e+00,-2.937500000000000888e+00,-1.175000000000000533e+01,-2.312500000000001776e+00,1.612500000000000711e+01,9.250000000000003553e+00,-1.343750000000000711e+01,-1.700000000000000711e+01,1.000000000000000888e+00,1.362500000000000711e+01,4.000000000000001776e+00,-4.687500000000002665e+00,2.312500000000000888e+00,2.000000000000000888e+00,-8.437500000000003553e+00,-6.937500000000003553e+00,4.062500000000001776e+00,8.062500000000003553e+00,3.500000000000001776e+00,-6.500000000000003553e+00,-1.006250000000000533e+01,2.437500000000000888e+00,1.106250000000000355e+01,4.875000000000001776e+00,-8.750000000000003331e-01,-3.750000000000002220e+00,-9.312500000000003553e+00,-7.937500000000003553e+00,3.125000000000000888e+00,6.562500000000002665e+00,8.750000000000004441e-01,-4.625000000000001776e+00,-2.250000000000000888e+00,1.181250000000000355e+01,9.562500000000003553e+00,-8.750000000000003553e+00,-4.875000000000001776e+00,9.437500000000005329e+00,5.187500000000002665e+00,-4.250000000000002665e+00,-7.562500000000003553e+00,-1.187500000000000533e+01,-7.062500000000003553e+00,7.375000000000003553e+00,1.606250000000000711e+01,1.500000000000000711e+01,2.625000000000001332e+00,-9.437500000000003553e+00,-1.662500000000000711e+01,-2.056250000000000711e+01,-1.187500000000000000e+00,2.031250000000000711e+01,9.125000000000003553e+00,-7.499999999999997780e-01,7.375000000000003553e+00,5.750000000000002665e+00,1.937500000000000444e+00,3.125000000000000888e+00,-9.375000000000002220e-01,-5.062500000000001776e+00,-1.106250000000000533e+01,-1.500000000000000711e+01,2.187500000000000888e+00,2.356250000000001066e+01,1.050000000000000533e+01,-1.156250000000000533e+01,-1.500000000000000000e+00,2.187500000000001776e+00,-1.237500000000000533e+01,1.281250000000000355e+01,5.456250000000002132e+01,3.825000000000001421e+01,-2.337500000000001421e+01,-5.912500000000002842e+01,-4.268750000000001421e+01,-2.906250000000001421e+01,-3.881250000000002132e+01,-1.825000000000000711e+01,2.656250000000001421e+01,4.675000000000001421e+01,2.662500000000000711e+01,-2.481250000000001421e+01,-4.531250000000002132e+01,5.062500000000003553e+00,4.600000000000001421e+01,2.625000000000000711e+01,6.437500000000002665e+00,5.312500000000002665e+00,1.312500000000000888e+00,8.062500000000003553e+00,1.650000000000000711e+01,9.375000000000005329e+00,-9.750000000000005329e+00,-2.387500000000001066e+01,-6.562500000000001776e+00,2.281250000000001066e+01,2.681250000000001066e+01,3.875000000000000000e+00,-2.081250000000001066e+01,-2.212500000000001066e+01,-8.375000000000003553e+00,5.062500000000001776e+00,3.875000000000001776e+00,-1.462500000000000711e+01,-1.706250000000000711e+01,-1.000000000000000444e+00,7.000000000000003553e+00,7.812500000000003553e+00,-7.500000000000000000e-01,-1.187500000000000533e+01,-1.312500000000001776e+00,8.500000000000003553e+00,-8.750000000000003553e+00,-2.275000000000000711e+01,-8.250000000000005329e+00,1.587500000000000711e+01,1.750000000000001066e+01,4.625000000000002665e+00,8.250000000000003553e+00,1.093750000000000355e+01,-3.937500000000001776e+00,-1.487500000000000711e+01,-1.012500000000000533e+01,6.625000000000002665e+00,7.875000000000003553e+00,-9.500000000000003553e+00,-2.875000000000000888e+00,1.625000000000000711e+01,1.418750000000000711e+01,2.062500000000000444e+00,-1.056250000000000355e+01,-1.056250000000000355e+01,4.937500000000002665e+00,5.375000000000003553e+00,-8.750000000000003553e+00,-4.937500000000002665e+00,8.312500000000003553e+00,5.625000000000002665e+00,3.750000000000004996e-01,-3.312500000000001332e+00,-1.050000000000000533e+01,1.187500000000000000e+00,1.518750000000000711e+01,-1.437500000000000000e+00,-1.262500000000000533e+01,-1.250000000000000444e+00,-4.375000000000001776e+00,-7.812500000000003553e+00,8.375000000000003553e+00,1.425000000000000533e+01,5.500000000000002665e+00,-4.875000000000000888e+00,-1.606250000000000711e+01,-8.562500000000003553e+00,1.406250000000000711e+01,1.268750000000000711e+01,-5.125000000000001776e+00,-1.037500000000000355e+01,-7.375000000000003553e+00,4.750000000000001776e+00,1.387500000000000711e+01,-2.187500000000000000e+00,-1.575000000000000711e+01,-4.312500000000002665e+00,5.437500000000001776e+00,6.062500000000002665e+00,5.625000000000002665e+00,-2.750000000000000888e+00,-6.125000000000002665e+00,-6.250000000000001110e-01,3.937500000000002220e+00,8.937500000000003553e+00,5.000000000000000000e-01,-1.187500000000000533e+01,-5.937500000000003553e+00,-7.500000000000002220e-01,-1.625000000000000444e+00,3.625000000000001332e+00,5.562500000000002665e+00,5.125000000000002665e+00,6.375000000000003553e+00,-2.937500000000001776e+00,-1.312500000000000711e+01,-2.312500000000001776e+00,1.543750000000000533e+01,1.637500000000000711e+01,2.437500000000001332e+00,-1.250000000000000533e+01,-1.718750000000000711e+01,-7.437500000000003553e+00,1.018750000000000533e+01,1.762500000000000711e+01,8.562500000000003553e+00,-4.500000000000001776e+00,-7.875000000000003553e+00,-1.875000000000000888e+00,3.812500000000001776e+00,7.375000000000003553e+00,-9.999999999999991118e-01,-1.262500000000000533e+01,2.000000000000000000e+00,1.637500000000000711e+01,6.250000000000000000e-01,-1.187500000000000711e+01,-6.875000000000003553e+00,-2.187500000000001332e+00,1.187500000000000444e+00,3.000000000000001776e+00,3.250000000000001776e+00,4.937500000000001776e+00,-2.500000000000008882e-01,-8.437500000000003553e+00,-5.000000000000000000e-01,8.375000000000003553e+00,-4.437500000000001776e+00,-1.012500000000000355e+01,7.750000000000005329e+00,9.437500000000005329e+00,-1.268750000000000711e+01,-1.325000000000000711e+01,7.875000000000003553e+00,1.218750000000000533e+01,4.625000000000001776e+00,-2.750000000000001776e+00,-1.256250000000000533e+01,-5.312500000000001776e+00,1.325000000000000533e+01,1.000000000000000355e+01,-6.250000000000002665e+00,-4.937500000000001776e+00,2.750000000000001332e+00,-5.250000000000002665e+00,-9.375000000000005329e+00,-4.375000000000000000e-01,4.187500000000001776e+00,7.062500000000002665e+00,1.006250000000000355e+01,-1.187500000000001776e+00,-1.287500000000000711e+01,-7.500000000000000000e-01,6.125000000000003553e+00,-4.437500000000001776e+00,3.562500000000001776e+00,1.025000000000000355e+01,-6.000000000000002665e+00,-5.562500000000002665e+00,3.687500000000001332e+00,-7.500000000000003553e+00,-5.625000000000001776e+00,1.106250000000000533e+01,2.125000000000000888e+00,-1.150000000000000533e+01,-1.875000000000000888e+00,3.312500000000001776e+00,9.375000000000005551e-01,7.625000000000004441e+00,1.750000000000001776e+00,-9.187500000000003553e+00,1.937500000000001776e+00,7.562500000000003553e+00,-2.000000000000001332e+00,-3.687500000000002220e+00,-6.250000000000001776e+00,-5.062500000000001776e+00,8.250000000000003553e+00,6.562500000000003553e+00,-2.875000000000000888e+00,8.750000000000006661e-01,-3.000000000000000444e+00,-1.100000000000000355e+01,-2.000000000000000888e+00,8.750000000000003553e+00,1.093750000000000355e+01,4.000000000000000888e+00,-1.137500000000000355e+01,-7.375000000000002665e+00,1.287500000000000355e+01,6.687500000000001776e+00,-1.393750000000000533e+01,-6.437500000000001776e+00,1.212500000000000533e+01,6.437500000000002665e+00,-8.000000000000003553e+00,-1.037500000000000533e+01,-2.375000000000000888e+00,7.250000000000002665e+00,1.500000000000000000e+00,-2.937500000000001332e+00,6.875000000000003553e+00,3.750000000000008882e-01,-6.062500000000002665e+00,1.068750000000000533e+01,1.568750000000000711e+01,2.562500000000001332e+00,-9.375000000000005329e+00,-1.950000000000001066e+01,-1.468750000000000888e+01,7.750000000000003553e+00,1.018750000000000533e+01,-1.056250000000000533e+01,-6.562500000000003553e+00,9.000000000000003553e+00,-4.687500000000000888e+00,-9.812500000000003553e+00,1.068750000000000355e+01,1.125000000000000355e+01,-1.000000000000000444e+00,8.125000000000002220e-01,-1.562500000000000888e+00,-1.068750000000000533e+01,-2.562500000000001776e+00,1.662500000000000711e+01,1.068750000000000711e+01,-1.468750000000000711e+01,-1.293750000000000711e+01,1.325000000000000711e+01,1.600000000000000711e+01,-8.562500000000003553e+00,-1.162500000000000533e+01,7.937500000000003553e+00,5.750000000000002665e+00,-6.375000000000002665e+00,-5.750000000000002665e+00,-1.375000000000000888e+00,6.687500000000003553e+00,7.937500000000004441e+00,-1.500000000000000888e+00,-1.875000000000001332e+00,3.312500000000001332e+00,1.000000000000000444e+00,-3.000000000000001332e+00,-4.750000000000001776e+00,-3.000000000000000888e+00,1.500000000000000888e+00,5.812500000000002665e+00,5.062500000000001776e+00,-3.437500000000001776e+00,-4.625000000000001776e+00,-2.000000000000000888e+00,-2.000000000000000888e+00,6.250000000000003553e+00,4.062500000000002665e+00,-6.625000000000002665e+00,3.312500000000001776e+00,1.056250000000000533e+01,-6.125000000000001776e+00,-1.256250000000000533e+01,-8.125000000000004441e-01,3.250000000000000888e+00,2.000000000000000888e+00,5.312500000000001776e+00,8.250000000000003553e+00,1.625000000000000444e+00,-1.012500000000000533e+01,-1.356250000000000711e+01,-9.562500000000003553e+00,1.875000000000004441e-01,1.150000000000000533e+01,9.375000000000003553e+00,5.000000000000002220e-01,5.187500000000003553e+00,5.687500000000003553e+00,-1.243750000000000533e+01,-2.168750000000000711e+01,-2.000000000000000711e+01,-1.418750000000000711e+01
7.500000000000000000e+00,1.950000000000000355e+01,-7.500000000000001776e+00,-2.750000000000000888e+00,1.850000000000000711e+01,-1.625000000000000355e+01,-2.325000000000000711e+01,3.750000000000000711e+01,-1.700000000000000355e+01,5.000000000000000000e-01,-2.750000000000000000e+00,1.925000000000000355e+01,-1.625000000000000355e+01,-3.425000000000000711e+01,7.675000000000001421e+01,-7.875000000000001421e+01,5.325000000000000711e+01,-4.050000000000000711e+01,1.775000000000000355e+01,6.250000000000002665e+00,5.250000000000000888e+00,5.000000000000001110e-01,-2.500000000000000555e-01,0.000000000000000000e+00,2.500000000000000555e-01,0.000000000000000000e+00,-2.500000000000000555e-01,2.500000000000000555e-01,0.000000000000000000e+00,-2.500000000000000555e-01,2.500000000000000555e-01,2.500000000000000555e-01,-7.500000000000002220e-01,7.500000000000002220e-01,-2.500000000000000555e-01,2.500000000000000555e-01,0.000000000000000000e+00,-5.000000000000001110e-01,0.000000000000000000e+00,2.500000000000000555e-01,2.500000000000000555e-01,-2.500000000000000555e-01,-2.500000000000000555e-01,5.000000000000001110e-01,-5.000000000000001110e-01,2.500000000000000555e-01,0.000000000000000000e+00,0.000000000000000000e+00,0.000000000000000000e+00,-2.500000000000000555e-01,5.000000000000001110e-01,-5.000000000000001110e-01,2.500000000000000555e-01,5.000000000000001110e-01,-1.000000000000000222e+00,2.500000000000000555e-01,5.000000000000001110e-01,-2.500000000000000555e-01,2.500000000000000555e-01,-5.000000000000001110e-01,2.500000000000000555e-01,7.500000000000002220e-01,-1.500000000000000444e+00,7.500000000000002220e-01,0.000000000000000000e+00,0.000000000000000000e+00,2.500000000000000555e-01,-5.000000000000001110e-01,5.000000000000001110e-01,-5.000000000000001110e-01,5.000000000000001110e-01,-2.500000000000000555e-01,-2.500000000000000555e-01,2.500000000000000555e-01,0.000000000000000000e+00,2.500000000000000555e-01,-1.000000000000000222e+00,1.250000000000000444e+00,-5.000000000000001110e-01,0.000000000000000000e+00,2.500000000000000555e-01,-5.000000000000001110e-01,2.500000000000000555e-01,0.000000000000000000e+00,-2.500000000000000555e-01,2.500000000000000555e-01,5.000000000000001110e-01,-7.500000000000002220e-01,5.000000000000001110e-01,0.000000000000000000e+00,-5.000000000000001110e-01,-2.500000000000000555e-01,1.250000000000000444e+00,-1.000000000000000222e+00,2.500000000000000555e-01,0.000000000000000000e+00,2.500000000000000555e-01,-5.000000000000001110e-01,0.000000000000000000e+00,5.000000000000001110e-01,0.000000000000000000e+00,-5.000000000000001110e-01,2.500000000000000555e-01,0.000000000000000000e+00,0.000000000000000000e+00,0.000000000000000000e+00,2.500000000000000555e-01,-2.500000000000000555e-01,0.000000000000000000e+00,-2.500000000000000555e-01,7.500000000000002220e-01,-5.000000000000001110e-01,1.000000000000000222e+00,-5.000000000000001110e-01,1.150000000000000355e+01,-6.000000000000001776e+00,3.000000000000000000e+00,-2.400000000000000711e+01,1.575000000000000355e+01,8.250000000000001776e+00,7.500000000000001776e+00,-3.000000000000000000e+00,-8.750000000000003553e+00,-2.250000000000000355e+01,2.850000000000000711e+01,6.500000000000001776e+00,-2.650000000000000711e+01,1.875000000000000355e+01,5.000000000000000000e-01,-2.100000000000000355e+01,3.300000000000000711e+01,-1.375000000000000178e+01,-2.350000000000000711e+01,-8.250000000000000000e+00,8.175000000000001421e+01,-4.950000000000001421e+01,-1.225000000000000355e+01,1.325000000000000355e+01,-2.125000000000000355e+01,1.200000000000000178e+01,1.575000000000000355e+01,-3.875000000000000711e+01,7.500000000000001421e+01,-4.550000000000001421e+01,-3.850000000000000711e+01,2.925000000000000711e+01,1.675000000000000355e+01,-1.200000000000000355e+01,-3.000000000000000444e+00,4.175000000000000711e+01,-5.825000000000001421e+01,3.425000000000000711e+01,-1.350000000000000355e+01,-1.050000000000000355e+01,1.200000000000000355e+01,-2.775000000000000355e+01,3.400000000000000711e+01,1.025000000000000178e+01,-2.750000000000000355e+01,-4.000000000000000888e+00,1.550000000000000355e+01,1.625000000000000355e+01,-3.125000000000000711e+01,1.350000000000000355e+01,8.250000000000003553e+00,-3.300000000000000711e+01,3.975000000000000711e+01,-2.625000000000000711e+01,2.375000000000000711e+01,-9.750000000000001776e+00,-2.025000000000000711e+01,2.500000000000000711e+01,-1.900000000000000355e+01,1.000000000000000000e+00,2.025000000000000711e+01,-9.500000000000003553e+00,-1.350000000000000355e+01,1.100000000000000178e+01,5.000000000000001776e+00,-7.000000000000001776e+00,0.000000000000000000e+00,0.000000000000000000e+00,-2.500000000000000555e-01,2.500000000000000555e-01,-2.500000000000000555e-01,7.500000000000002220e-01,-7.500000000000002220e-01,5.000000000000001110e-01,-2.500000000000000555e-01,0.000000000000000000e+00,0.000000000000000000e+00,0.000000000000000000e+00,2.500000000000000555e-01,-7.500000000000002220e-01,7.500000000000002220e-01,-2.500000000000000555e-01,-2.500000000000000555e-01,2.500000000000000555e-01,2.500000000000000555e-01,-2.500000000000000555e-01,0.000000000000000000e+00,0.000000000000000000e+00,0.000000000000000000e+00,-5.000000000000000888e+00,5.750000000000000888e+00,3.250000000000000888e+00,-3.750000000000000888e+00,-1.500000000000000222e+00,-3.500000000000000888e+00,7.500000000000001776e+00,-2.075000000000000355e+01,3.375000000000000711e+01,-2.525000000000000711e+01,4.250000000000000888e+00,1.325000000000000355e+01,0.000000000000000000e+00,-2.425000000000000711e+01,-5.500000000000000000e+00,2.375000000000000355e+01,2.325000000000000711e+01,-4.250000000000001421e+01,1.200000000000000355e+01,4.000000000000000888e+00,1.625000000000000355e+01,-1.100000000000000355e+01,-2.350000000000000355e+01,2.800000000000000711e+01,-6.500000000000001776e+00,-1.775000000000000355e+01,1.375000000000000355e+01,1.175000000000000178e+01,-2.175000000000000711e+01,1.550000000000000355e+01,-1.675000000000000355e+01,2.850000000000000711e+01,-5.750000000000001776e+00,-9.500000000000001776e+00,-1.250000000000000222e+00,-1.025000000000000178e+01,-7.750000000000001776e+00,3.750000000000000711e+01,-3.900000000000000711e+01,3.275000000000000711e+01,-2.850000000000000711e+01,-2.500000000000000000e+00,4.450000000000001421e+01,-2.175000000000000711e+01,-8.500000000000001776e+00,2.150000000000000355e+01,-3.400000000000000711e+01,7.000000000000001776e+00,2.950000000000000711e+01,-2.650000000000000711e+01,-2.250000000000000000e+00,7.000000000000001776e+00,-8.500000000000001776e+00,3.150000000000000711e+01,-1.900000000000000355e+01,-1.200000000000000178e+01,1.575000000000000355e+01,5.000000000000000888e+00,-3.275000000000000711e+01,3.700000000000000711e+01,-2.200000000000000711e+01,-3.000000000000000000e+00,1.750000000000000000e+00,1.550000000000000355e+01,-1.500000000000000888e+00,-4.250000000000000888e+00,-8.500000000000001776e+00,-1.400000000000000178e+01,5.450000000000001421e+01,-5.025000000000001421e+01,1.250000000000000355e+01,-2.750000000000000888e+00,1.850000000000000355e+01,-2.500000000000000711e+01,2.325000000000000711e+01,-2.750000000000000000e+00,-2.750000000000000888e+00,-5.000000000000000000e-01,-2.275000000000000355e+01,3.250000000000000711e+01,-2.325000000000000711e+01,3.750000000000000000e+00,1.575000000000000355e+01,-1.025000000000000178e+01,7.500000000000002220e-01,-3.000000000000000888e+00,1.025000000000000355e+01,-2.750000000000000711e+01,3.325000000000000711e+01,-9.000000000000003553e+00,-1.825000000000000355e+01,2.225000000000000711e+01,-1.875000000000000355e+01,1.575000000000000355e+01,-1.100000000000000355e+01,1.625000000000000355e+01,-8.500000000000001776e+00,3.000000000000000444e+00,-1.000000000000000000e+00,-2.575000000000000355e+01,2.525000000000000355e+01,5.500000000000000888e+00,-1.900000000000000355e+01,1.775000000000000355e+01,-3.125000000000000711e+01,7.200000000000002842e+01,-6.300000000000001421e+01,-2.250000000000000000e+00,2.150000000000000355e+01,-1.075000000000000355e+01,4.000000000000001776e+00,7.750000000000001776e+00,-4.000000000000000888e+00,-7.250000000000001776e+00,1.600000000000000355e+01,-2.075000000000000355e+01,6.250000000000000888e+00,3.200000000000000711e+01,-4.025000000000001421e+01,1.825000000000000355e+01,-4.250000000000000888e+00,-7.000000000000000888e+00,1.475000000000000355e+01,-2.900000000000000711e+01,2.600000000000000711e+01,-1.175000000000000355e+01,1.525000000000000355e+01,-2.925000000000000711e+01,5.275000000000001421e+01,-4.125000000000000711e+01,6.250000000000001776e+00,-1.675000000000000355e+01,2.250000000000000355e+01,2.500000000000000888e+00,-1.350000000000000355e+01,5.250000000000001776e+00,5.500000000000001776e+00,3.750000000000000888e+00,-1.225000000000000355e+01,-1.875000000000000355e+01,2.750000000000000355e+01,8.000000000000000000e+00,6.250000000000001776e+00,-3.675000000000000711e+01,3.350000000000000711e+01,-2.825000000000000711e+01,2.500000000000001776e+00,2.675000000000000711e+01,-1.075000000000000355e+01,-2.875000000000000355e+01,3.650000000000000711e+01,-1.250000000000000355e+01,-1.450000000000000355e+01,2.550000000000000711e+01,5.250000000000001776e+00,-1.750000000000000355e+01,-2.050000000000000355e+01,2.175000000000000355e+01,1.275000000000000355e+01,-2.775000000000000711e+01,7.500000000000000000e-01,2.850000000000000711e+01,9.500000000000003553e+00,-5.275000000000001421e+01,4.125000000000001421e+01,-6.500000000000001776e+00,-1.900000000000000711e+01,3.075000000000000711e+01,-4.300000000000001421e+01,4.300000000000001421e+01,-1.600000000000000355e+01,-2.875000000000000711e+01,5.500000000000001421e+01,-3.275000000000000711e+01,7.250000000000001776e+00,-1.725000000000000355e+01,2.800000000000000711e+01,-2.775000000000000711e+01,6.000000000000001776e+00,3.025000000000000711e+01,-1.950000000000000355e+01,-1.325000000000000178e+01,7.500000000000000000e-01,2.800000000000000711e+01,-2.075000000000000355e+01,-9.000000000000003553e+00,1.575000000000000355e+01,4.500000000000000888e+00,-2.100000000000000711e+01,2.475000000000000711e+01,7.000000000000000000e+00,-1.925000000000000355e+01,-2.650000000000000711e+01,4.350000000000001421e+01,-3.200000000000000711e+01,2.075000000000000355e+01,1.375000000000000355e+01,-1.200000000000000178e+01,-2.025000000000000711e+01,7.250000000000002665e+00,1.825000000000000355e+01,-1.250000000000000355e+01,1.375000000000000355e+01,-2.275000000000000711e+01,5.750000000000000888e+00,2.625000000000000355e+01,-1.875000000000000355e+01,-1.375000000000000355e+01,2.650000000000000711e+01,-7.750000000000001776e+00,-1.075000000000000178e+01,1.775000000000000355e+01,-2.050000000000000355e+01,2.150000000000000355e+01,-2.150000000000000355e+01,2.500000000000000444e+00,2.100000000000000355e+01,-1.625000000000000355e+01,-2.100000000000000355e+01,1.925000000000000355e+01,-1.200000000000000178e+01,3.750000000000000000e+00,1.450000000000000355e+01,-9.000000000000001776e+00,-1.625000000000000355e+01,1.150000000000000178e+01,-5.000000000000000000e+00,6.150000000000001421e+01,-5.000000000000001421e+01,4.500000000000000888e+00,1.300000000000000355e+01,-8.000000000000001776e+00,-3.350000000000000711e+01,6.000000000000000000e+00,6.500000000000001776e+00,2.125000000000000355e+01,-1.425000000000000355e+01,-1.450000000000000355e+01,-2.500000000000000000e-01,2.700000000000000711e+01,-1.475000000000000355e+01,-4.000000000000000000e+00,8.500000000000001776e+00,-1.700000000000000355e+01,-1.000000000000000000e+00,2.775000000000000711e+01,-1.000000000000000178e+01,-1.000000000000000355e+01,7.250000000000002665e+00,1.075000000000000178e+01,-1.525000000000000355e+01,-4.000000000000001776e+00,2.225000000000000711e+01,-1.750000000000000355e+01,2.250000000000000000e+00,-9.750000000000001776e+00,2.750000000000000711e+01,-2.150000000000000355e+01,2.000000000000000355e+01,-3.750000000000000888e+00,-1.925000000000000355e+01,2.300000000000000711e+01,-2.050000000000000355e+01,2.000000000000000355e+01,3.250000000000001776e+00,-1.900000000000000711e+01,2.450000000000000711e+01,-2.875000000000000711e+01,1.100000000000000178e+01,1.350000000000000355e+01,-1.750000000000000355e+01,2.725000000000000355e+01,-3.100000000000000711e+01,2.225000000000000711e+01,-6.250000000000001776e+00,-1.550000000000000355e+01,2.300000000000000711e+01,-1.850000000000000355e+01,1.925000000000000355e+01,-1.500000000000000355e+01,-1.300000000000000178e+01,2.150000000000000355e+01,-2.750000000000000000e+00,-2.000000000000000711e+01,1.450000000000000355e+01,3.000000000000000444e+00,-1.050000000000000178e+01,1.900000000000000355e+01,-1.450000000000000355e+01,-1.075000000000000355e+01,8.500000000000003553e+00,2.325000000000000355e+01,-3.450000000000000711e+01,2.025000000000000355e+01,6.750000000000002665e+00,-2.325000000000000711e+01,1.725000000000000355e+01,-2.600000000000000711e+01,2.350000000000000355e+01,1.225000000000000355e+01,-3.575000000000000711e+01,3.775000000000000711e+01,-3.350000000000000711e+01,2.050000000000000355e+01,-5.000000000000000888e+00,-1.350000000000000355e+01,1.125000000000000355e+01,4.750000000000000888e+00,-1.775000000000000355e+01,3.375000000000000711e+01,-3.200000000000000711e+01,5.750000000000001776e+00,1.900000000000000355e+01,-2.175000000000000355e+01,1.925000000000000355e+01,-1.800000000000000355e+01,2.750000000000000711e+01,-3.725000000000000711e+01,1.975000000000000355e+01,1.750000000000000355e+01,-3.875000000000000711e+01,2.450000000000000355e+01,1.025000000000000355e+01,-1.450000000000000355e+01,-1.700000000000000355e+01,2.425000000000000711e+01,8.000000000000001776e+00,-2.450000000000000711e+01,8.500000000000001776e+00,-5.500000000000001776e+00,2.425000000000000711e+01,-1.900000000000000355e+01,-1.875000000000000355e+01,1.875000000000000355e+01,1.950000000000000355e+01,-2.550000000000000711e+01,1.800000000000000355e+01,-2.450000000000000711e+01,2.875000000000000711e+01,-3.425000000000000711e+01,3.325000000000000711e+01,-7.000000000000001776e+00,-1.800000000000000355e+01,1.150000000000000178e+01,-1.000000000000000222e+00,-6.250000000000001776e+00,2.475000000000000711e+01,-3.300000000000000711e+01,2.825000000000000711e+01,-2.125000000000000711e+01,-1.500000000000000000e+00,1.750000000000000355e+01,-2.750000000000000888e+00,-1.750000000000000355e+01,2.425000000000000711e+01,-1.200000000000000355e+01,-1.025000000000000178e+01,2.550000000000000711e+01,-6.000000000000001776e+00,-2.275000000000000711e+01,2.575000000000000711e+01,-2.450000000000000711e+01,2.600000000000000711e+01,-3.300000000000000711e+01,2.700000000000000711e+01,3.750000000000000000e+00,-2.325000000000000355e+01,2.200000000000000355e+01,-2.750000000000000711e+01,3.325000000000000711e+01,-3.550000000000000711e+01,2.525000000000000355e+01,9.750000000000003553e+00,-3.200000000000000711e+01,2.875000000000000711e+01,-2.775000000000000711e+01,2.575000000000000711e+01,7.500000000000000000e-01,-2.350000000000000711e+01,1.550000000000000355e+01,-6.250000000000001776e+00,2.125000000000000355e+01,-3.075000000000000711e+01,2.725000000000000711e+01,-2.675000000000000711e+01,2.600000000000000711e+01,-2.925000000000000711e+01,2.675000000000000711e+01,-1.875000000000000355e+01,3.000000000000000888e+00,2.300000000000000355e+01,-2.100000000000000355e+01,-1.100000000000000355e+01,1.950000000000000711e+01,-7.750000000000001776e+00,1.325000000000000178e+01,-1.625000000000000355e+01,9.500000000000001776e+00,-7.500000000000000000e-01,-2.300000000000000355e+01,3.375000000000000711e+01,-1.225000000000000355e+01,-1.600000000000000355e+01,9.000000000000003553e+00,1.150000000000000355e+01,8.500000000000001776e+00,-3.425000000000000711e+01,3.750000000000000711e+01,-2.275000000000000355e+01,-8.500000000000003553e+00,3.375000000000000711e+01,-2.250000000000000355e+01,-7.500000000000001776e+00,1.250000000000000355e+01,-8.750000000000001776e+00,1.700000000000000355e+01,-3.000000000000000711e+01,2.550000000000000711e+01,4.750000000000001776e+00,-2.425000000000000711e+01,2.225000000000000711e+01,-1.450000000000000355e+01,1.550000000000000355e+01,-2.075000000000000355e+01,1.750000000000000355e+01,-2.200000000000000711e+01,1.700000000000000355e+01,-4.000000000000000888e+00,1.400000000000000355e+01,-2.550000000000000711e+01,2.050000000000000711e+01,-1.000000000000000178e+01,6.500000000000001776e+00,-3.500000000000000888e+00,-1.725000000000000355e+01,2.700000000000000711e+01,-6.250000000000000888e+00,0.000000000000000000e+00,-1.625000000000000355e+01,9.250000000000001776e+00,-1.250000000000000444e+00,1.850000000000000355e+01,-3.275000000000000711e+01,3.175000000000000711e+01,-2.200000000000000711e+01,1.925000000000000355e+01,-3.125000000000000711e+01,3.200000000000000711e+01,-2.325000000000000355e+01,2.300000000000000355e+01,-1.700000000000000355e+01,5.000000000000000888e+00,-1.275000000000000355e+01,2.575000000000000711e+01,-1.975000000000000711e+01,1.475000000000000355e+01,-1.125000000000000355e+01,6.250000000000001776e+00,-1.175000000000000178e+01,2.500000000000000000e+00,1.500000000000000355e+01,-2.175000000000000711e+01,2.500000000000000711e+01,-2.850000000000000711e+01,1.750000000000000355e+01,1.375000000000000355e+01,-2.375000000000000711e+01,9.250000000000001776e+00,-2.000000000000000444e+00,1.425000000000000355e+01,-2.050000000000000711e+01,1.600000000000000355e+01,-1.300000000000000355e+01,-6.500000000000002665e+00,1.300000000000000355e+01,-5.250000000000000888e+00,1.150000000000000355e+01,4.250000000000000000e+00,-1.800000000000000355e+01,1.625000000000000355e+01,-2.325000000000000711e+01,-3.250000000000000000e+00,2.325000000000000711e+01,-1.500000000000000888e+00,-1.600000000000000355e+01,1.975000000000000355e+01,-3.250000000000000888e+00,-1.050000000000000178e+01,2.150000000000000355e+01,-2.200000000000000355e+01,1.675000000000000355e+01,-1.425000000000000355e+01,2.750000000000000888e+00,-1.475000000000000355e+01,2.275000000000000711e+01,9.500000000000001776e+00,-2.400000000000000711e+01,4.750000000000001776e+00,1.800000000000000355e+01,-2.000000000000000355e+01,-1.425000000000000355e+01,5.075000000000001421e+01,-4.250000000000000000e+00,7.750000000000000000e+00,-4.125000000000000711e+01,-8.750000000000003553e+00,1.925000000000000355e+01,-3.800000000000000711e+01,-3.500000000000000000e+00,1.850000000000000355e+01,6.750000000000001776e+00,2.025000000000000355e+01,-5.000000000000000888e+00,-4.050000000000000711e+01,5.000000000000000000e+00,4.150000000000000711e+01,-8.750000000000001776e+00,-9.500000000000001776e+00,2.450000000000000711e+01,-2.175000000000000355e+01,8.000000000000001776e+00,1.525000000000000355e+01,-1.425000000000000355e+01,2.125000000000000711e+01,-3.100000000000000711e+01,-7.500000000000000000e-01,2.275000000000000711e+01,-1.000000000000000178e+01,2.875000000000000711e+01,-3.800000000000000711e+01,1.225000000000000355e+01,-9.250000000000001776e+00,-1.750000000000000444e+00,1.800000000000000355e+01,-1.650000000000000355e+01,-1.025000000000000178e+01,1.125000000000000178e+01,-3.750000000000000888e+00,1.000000000000000444e+00,1.175000000000000178e+01,-1.800000000000000355e+01,-1.750000000000000000e+00,1.950000000000000355e+01,-1.250000000000000355e+01,-8.000000000000000000e+00,-4.250000000000001776e+00,4.500000000000001776e+00,1.900000000000000355e+01,-1.450000000000000355e+01,2.500000000000000000e-01,2.400000000000000711e+01,-2.550000000000000711e+01,1.525000000000000355e+01,-2.000000000000000711e+01,7.000000000000002665e+00,1.600000000000000355e+01,-1.475000000000000355e+01,-1.350000000000000355e+01,3.350000000000000711e+01,-2.150000000000000355e+01,1.875000000000000355e+01,-9.750000000000003553e+00,-1.275000000000000355e+01,1.375000000000000355e+01,-5.000000000000000000e-01,0.000000000000000000e+00,-1.775000000000000355e+01,2.425000000000000711e+01,-9.750000000000001776e+00,-2.250000000000000444e+00,1.075000000000000178e+01,-1.325000000000000355e+01,-6.000000000000000888e+00,2.075000000000000355e+01,0.000000000000000000e+00,-2.650000000000000711e+01,2.325000000000000711e+01,-5.250000000000001776e+00,-1.750000000000000355e+01,1.750000000000000355e+01,1.500000000000000444e+00,-2.250000000000000888e+00,4.500000000000000888e+00,-6.000000000000000888e+00,-1.500000000000000355e+01,1.600000000000000355e+01,1.125000000000000355e+01,-1.875000000000000711e+01,9.250000000000001776e+00,-6.000000000000001776e+00,-9.250000000000003553e+00,2.525000000000000711e+01,-1.175000000000000355e+01,-6.000000000000000888e+00,-6.000000000000000888e+00,1.875000000000000355e+01,-2.050000000000000711e+01,2.125000000000000711e+01,-6.750000000000001776e+00,-1.475000000000000355e+01,2.400000000000000711e+01,-2.625000000000000711e+01,2.425000000000000711e+01,-5.000000000000000888e+00,-8.750000000000001776e+00,-3.750000000000000888e+00,1.575000000000000355e+01,-2.425000000000000711e+01,2.325000000000000711e+01,-1.325000000000000355e+01,9.250000000000001776e+00,-4.000000000000000888e+00,1.075000000000000178e+01,-1.725000000000000355e+01,-5.000000000000000000e-01,1.400000000000000355e+01,-4.000000000000000888e+00,1.300000000000000355e+01,-1.800000000000000355e+01,5.750000000000001776e+00,-1.300000000000000178e+01,7.750000000000000888e+00,1.225000000000000355e+01,-8.500000000000001776e+00,1.300000000000000355e+01,-2.350000000000000711e+01,1.975000000000000355e+01,-1.300000000000000355e+01,7.000000000000001776e+00,9.750000000000003553e+00,-1.925000000000000711e+01,-5.000000000000000000e-01,2.100000000000000711e+01,-5.750000000000001776e+00,-1.625000000000000355e+01,1.850000000000000355e+01,-2.200000000000000355e+01,2.025000000000000355e+01,-1.550000000000000355e+01,1.475000000000000355e+01,-1.300000000000000355e+01,1.825000000000000355e+01,-1.875000000000000355e+01,1.750000000000000000e+00,1.175000000000000355e+01,-2.750000000000000888e+00,-1.425000000000000355e+01,7.000000000000001776e+00,1.625000000000000355e+01,-1.625000000000000355e+01,-8.500000000000001776e+00,8.750000000000001776e+00,1.175000000000000178e+01,-1.775000000000000355e+01,2.275000000000000711e+01,-2.175000000000000711e+01,-1.250000000000000000e+00,1.200000000000000355e+01,2.500000000000000888e+00,-2.250000000000000888e+00,-1.275000000000000355e+01,1.750000000000000355e+01,-6.750000000000001776e+00,-1.375000000000000178e+01,1.725000000000000355e+01,-1.450000000000000355e+01,1.450000000000000355e+01,-9.500000000000003553e+00,2.000000000000000355e+01,-2.625000000000000711e+01,3.750000000000000888e+00,2.050000000000000355e+01,-2.250000000000000711e+01,2.750000000000000888e+00,2.050000000000000355e+01,-1.475000000000000355e+01,-1.150000000000000178e+01,2.575000000000000711e+01,-1.775000000000000355e+01,-8.000000000000001776e+00,1.700000000000000355e+01,2.750000000000000000e+00,-1.900000000000000355e+01,8.000000000000001776e+00,8.000000000000001776e+00,-1.425000000000000355e+01,9.250000000000001776e+00,1.225000000000000355e+01,-2.500000000000000711e+01,1.075000000000000178e+01,1.200000000000000178e+01,-1.700000000000000355e+01,8.250000000000001776e+00,2.250000000000000444e+00,-1.725000000000000355e+01,1.450000000000000355e+01,8.000000000000001776e+00,-1.925000000000000355e+01,1.450000000000000355e+01,-5.000000000000000000e-01,-1.250000000000000355e+01,2.250000000000000888e+00,9.500000000000001776e+00,-9.000000000000001776e+00,1.750000000000000355e+01,-1.250000000000000355e+01,-1.250000000000000355e+01,1.850000000000000355e+01,4.000000000000000888e+00,-1.300000000000000355e+01,-6.750000000000000888e+00,1.475000000000000355e+01,3.750000000000000888e+00,-1.500000000000000355e+01,1.100000000000000355e+01,-1.575000000000000355e+01,1.175000000000000178e+01,9.000000000000001776e+00,-2.550000000000000711e+01,2.275000000000000711e+01,2.500000000000000000e+00,-2.600000000000000711e+01,2.500000000000000711e+01,-1.000000000000000000e+00,-1.750000000000000888e+00,1.750000000000000888e+00,-7.250000000000001776e+00,-1.100000000000000178e+01,4.250000000000000000e+00,1.750000000000000355e+01,-1.325000000000000178e+01,-1.725000000000000355e+01,3.200000000000000711e+01,-1.525000000000000355e+01,-1.275000000000000355e+01,1.300000000000000355e+01,1.425000000000000178e+01,-2.600000000000000711e+01,2.425000000000000711e+01,-1.500000000000000355e+01,7.500000000000001776e+00,-1.725000000000000355e+01,1.700000000000000355e+01,1.025000000000000355e+01,-1.500000000000000355e+01,-9.500000000000003553e+00,1.125000000000000355e+01,1.000000000000000178e+01,-1.500000000000000000e+00,-2.550000000000000711e+01,2.550000000000000711e+01,5.000000000000000000e-01,-1.975000000000000355e+01,2.250000000000000355e+01,-2.450000000000000711e+01,1.850000000000000355e+01,-2.750000000000000444e+00,2.250000000000000444e+00,-1.025000000000000355e+01,1.400000000000000355e+01,-8.250000000000001776e+00,1.000000000000000222e+00,3.750000000000000888e+00,-1.400000000000000355e+01,1.875000000000000355e+01,-1.900000000000000355e+01,2.175000000000000711e+01,-1.075000000000000355e+01,-1.000000000000000178e+01,2.275000000000000711e+01,-2.825000000000000711e+01,1.925000000000000355e+01,3.500000000000000888e+00,-1.425000000000000355e+01,3.500000000000000444e+00,1.175000000000000178e+01,-1.250000000000000000e+00,-2.300000000000000711e+01,2.450000000000000711e+01,-1.700000000000000355e+01,1.100000000000000355e+01,-4.000000000000000888e+00,1.500000000000000222e+00,1.225000000000000355e+01,-2.000000000000000711e+01,1.100000000000000355e+01,-1.500000000000000355e+01,7.500000000000000888e+00,-2.250000000000000000e+00,1.375000000000000355e+01,-1.050000000000000178e+01,-1.500000000000000444e+00,1.825000000000000355e+01,-1.500000000000000355e+01,-1.025000000000000178e+01,9.750000000000001776e+00,-2.250000000000000355e+01
