-2.859370000000001824e+02,-3.387651250000002392e+02,-3.862338750000002960e+02,-4.274213750000003529e+02,-4.605620000000003529e+02,-4.856870000000003529e+02,-5.036557500000003529e+02,-5.135620000000003529e+02,-5.160307500000003529e+02,-5.180932500000003529e+02,-5.187807500000003529e+02,-5.187338750000003529e+02,-5.170151250000003529e+02,-5.152807500000003529e+02,-5.126557500000003529e+02,-5.089057500000003529e+02,-5.051557500000003529e+02,-5.013120000000003529e+02,-4.945307500000003529e+02,-4.861557500000003529e+02,-4.797026250000003529e+02,-4.719838750000003529e+02,-4.646713750000003529e+02,-4.551401250000003529e+02,-4.438588750000003529e+02,-4.322963750000003529e+02,-4.235620000000003529e+02,-4.147338750000003529e+02,-4.044213750000003529e+02,-3.915932500000003529e+02,-3.761245000000002960e+02,-3.631088750000002392e+02,-3.482651250000001824e+02,-3.281245000000001824e+02,-3.048276250000001824e+02,-2.801088750000001824e+02,-2.535307500000001824e+02,-2.284213750000001824e+02,-2.056557500000001824e+02,-1.841870000000001255e+02,-1.657963750000000971e+02,-1.532182500000000971e+02,-1.442807500000000971e+02,-1.398120000000000971e+02,-1.387651250000000971e+02,-1.409370000000000971e+02,-1.432651250000000971e+02,-1.441713750000000971e+02,-1.457495000000000971e+02,-1.466870000000000971e+02,-1.466713750000000971e+02,-1.451870000000000971e+02,-1.437338750000000971e+02,-1.416713750000000971e+02,-1.400463750000000971e+02,-1.399370000000000971e+02,-1.395151250000000971e+02,-1.397807500000000971e+02,-1.412963750000000971e+02,-1.425776250000000971e+02,-1.422963750000000971e+02,-1.417182500000000971e+02,-1.407495000000000971e+02,-1.382963750000000971e+02,-1.355932500000000971e+02,-1.334370000000000971e+02,-1.314213750000000971e+02,-1.299057500000000971e+02,-1.314526250000000971e+02,-1.340620000000000971e+02,-1.395776250000000971e+02,-1.475932500000000971e+02,-1.586713750000000971e+02,-1.704057500000000971e+02,-1.821713750000001255e+02,-1.958432500000001824e+02,-2.084213750000001824e+02,-2.215463750000001824e+02,-2.332182500000001824e+02,-2.452651250000001824e+02,-2.556713750000001824e+02,-2.660620000000001824e+02,-2.764838750000001824e+02,-2.839526250000001824e+02,-2.900620000000001824e+02,-2.912182500000001824e+02,-2.880307500000001824e+02,-2.789057500000001824e+02,-2.621401250000001824e+02,-2.350463750000001824e+02,-1.987807500000001255e+02,-1.558120000000001255e+02,-1.041870000000000687e+02,-4.942137500000004025e+01,8.969249999999997058e+00,7.137550000000003081e+01,1.335005000000000734e+02,1.905161250000001019e+02,2.432661250000001587e+02,2.921411250000001587e+02,3.337505000000002156e+02,3.710473750000003292e+02,4.028911250000003292e+02,4.271880000000003292e+02,4.452036250000003292e+02,4.594536250000003292e+02,4.697348750000003292e+02,4.762973750000003292e+02,4.808755000000003292e+02,4.832817500000003292e+02,4.840473750000003292e+02,4.843130000000003292e+02,4.845161250000003292e+02,4.846567500000003292e+02,4.847036250000003292e+02,4.847505000000003292e+02,4.847973750000003292e+02,4.848286250000003292e+02,4.849067500000003292e+02,4.849692500000003292e+02,4.850473750000003292e+02,4.850942500000003292e+02,4.851880000000003292e+02,4.852661250000003292e+02,4.853286250000003292e+02,4.854067500000003292e+02,4.854067500000003292e+02,4.853911250000003292e+02,4.853598750000003292e+02,4.853442500000003292e+02,4.852817500000003292e+02,4.851723750000003292e+02,4.849536250000003292e+02,4.840161250000003292e+02,4.824692500000003292e+02,4.799848750000003292e+02,4.742505000000003292e+02,4.655630000000003292e+02,4.540161250000003292e+02,4.390630000000003292e+02,4.213598750000003292e+02,4.015473750000003292e+02,3.801098750000003292e+02,3.577036250000002156e+02,3.386723750000001587e+02,3.232661250000001587e+02,3.111567500000001587e+02,3.026567500000001587e+02,2.963598750000001587e+02,2.925005000000001587e+02,2.892973750000001587e+02,2.871723750000001587e+02,2.829380000000001587e+02,2.757973750000001587e+02,2.662973750000001587e+02,2.547817500000001587e+02,2.424848750000001587e+02,2.291567500000001587e+02,2.166880000000001587e+02,2.028442500000001587e+02,1.898911250000001587e+02,1.781880000000001019e+02,1.672661250000000734e+02,1.572036250000000734e+02,1.485161250000000734e+02,1.395786250000000734e+02,1.295942500000000734e+02,1.204848750000000734e+02,1.120161250000000734e+02,1.033911250000000734e+02,9.493800000000007344e+01,8.723487500000004502e+01,7.751612500000003081e+01,6.878175000000003081e+01,6.182862500000003081e+01,5.668800000000003081e+01,5.064112500000002370e+01,4.496925000000001660e+01,4.007862500000001660e+01,3.467237500000000949e+01,3.082862500000000949e+01,2.839112500000000949e+01,2.610987500000000949e+01,2.251612500000000594e+01,2.078175000000000239e+01,1.975049999999999883e+01,1.960987499999999883e+01,2.051612499999999883e+01,2.204737500000000239e+01,2.384425000000000594e+01,2.610987500000000949e+01,3.009425000000000949e+01,3.462550000000000949e+01,4.003175000000001660e+01,4.550050000000002370e+01,5.195362500000003081e+01,5.875050000000003081e+01,6.401612500000003081e+01,6.890675000000003081e+01,7.323487500000003081e+01,7.706300000000003081e+01,8.028175000000003081e+01,8.176612500000003081e+01,8.181300000000003081e+01,8.209425000000003081e+01,8.307862500000003081e+01,8.420362500000003081e+01,8.446925000000003081e+01,8.343800000000003081e+01,8.221925000000003081e+01,8.248487500000003081e+01,8.270362500000003081e+01,8.190675000000003081e+01,8.012550000000003081e+01,7.720362500000003081e+01,7.403175000000003081e+01,7.110987500000003081e+01,6.835987500000003081e+01,6.501612500000003081e+01,6.076612500000003081e+01,5.775050000000003081e+01,5.668800000000003081e+01,5.609425000000003081e+01,5.762550000000003081e+01,6.056300000000003081e+01,6.257862500000003081e+01,6.420362500000003081e+01,6.850050000000003081e+01,7.014112500000003081e+01,7.028175000000003081e+01,7.067237500000003081e+01,6.984425000000003081e+01,6.726612500000003081e+01,6.660987500000003081e+01,6.723487500000003081e+01,6.506300000000003081e+01,6.537550000000003081e+01,6.571925000000003081e+01,6.598487500000003081e+01,6.576612500000003081e+01,6.754737500000003081e+01,6.748487500000003081e+01,6.662550000000003081e+01,6.696925000000003081e+01,6.734425000000003081e+01,6.846925000000003081e+01,7.009425000000003081e+01,7.210987500000003081e+01,7.293800000000003081e+01,7.412550000000003081e+01,7.492237500000003081e+01,7.562550000000003081e+01,7.429737500000003081e+01,7.223487500000003081e+01,6.987550000000003081e+01,6.776612500000003081e+01,6.440675000000003081e+01,6.128175000000003081e+01,5.889112500000003081e+01,5.712550000000003081e+01,5.767237500000003081e+01,5.790675000000003081e+01,5.820362500000003081e+01,5.775050000000003081e+01,5.890675000000003081e+01,5.970362500000003081e+01,5.882862500000003081e+01,5.757862500000003081e+01,5.356300000000003081e+01,4.985987500000003081e+01,4.501612500000001660e+01,4.006300000000000949e+01,3.492237500000000949e+01,3.045362500000000949e+01,2.635987500000000594e+01,2.090675000000000239e+01,1.840674999999999883e+01,1.685987499999999883e+01,1.604737499999999883e+01,1.543799999999999883e+01,1.401612499999999883e+01,1.150049999999999528e+01,1.003174999999999351e+01,9.750499999999993506e+00,7.000499999999991729e+00,2.219249999999989509e+00,-2.655750000000013156e+00,-7.577625000000015376e+00,-1.253075000000001893e+01,-1.589012500000002248e+01,-2.048387500000002603e+01,-2.481200000000002959e+01,-2.839012500000003314e+01,-3.126512500000003314e+01,-3.373387500000003314e+01,-3.596825000000003314e+01,-3.820262500000003314e+01,-4.239012500000004025e+01,-4.439012500000004025e+01,-4.737450000000004735e+01,-4.931200000000005446e+01,-4.987450000000005446e+01,-5.089012500000005446e+01,-5.107762500000005446e+01,-4.940575000000005446e+01,-4.695262500000004025e+01,-4.582762500000004025e+01,-4.393700000000004025e+01,-4.378075000000004025e+01,-4.453075000000004025e+01,-4.429637500000004025e+01,-4.465575000000004025e+01,-4.692137500000004025e+01,-4.812450000000004735e+01,-4.910887500000004735e+01,-5.031200000000005446e+01,-5.023387500000005446e+01,-5.101512500000005446e+01,-5.218700000000005446e+01,-5.385887500000005446e+01,-5.415575000000005446e+01,-5.537450000000005446e+01,-5.482762500000005446e+01,-5.315575000000005446e+01,-5.248387500000005446e+01,-5.056200000000005446e+01,-4.965575000000005446e+01,-4.851512500000005446e+01,-4.835887500000005446e+01,-4.735887500000004735e+01,-5.006200000000004735e+01,-5.490575000000005446e+01,-5.685887500000005446e+01,-5.768700000000005446e+01,-5.799950000000005446e+01,-5.840575000000005446e+01,-5.689012500000005446e+01,-5.835887500000005446e+01,-5.840575000000005446e+01,-5.667137500000005446e+01,-5.779637500000005446e+01,-6.034325000000005446e+01,-6.234325000000005446e+01,-6.368700000000005446e+01,-6.793700000000005446e+01,-6.853075000000005446e+01,-6.704637500000005446e+01,-6.574950000000005446e+01,-6.340575000000005446e+01,-6.085887500000005446e+01,-5.835887500000005446e+01,-5.603075000000005446e+01,-5.260887500000005446e+01,-4.946825000000005446e+01,-4.712450000000004735e+01,-4.445262500000004025e+01,-4.035887500000003314e+01,-3.684325000000003314e+01,-3.346825000000003314e+01,-2.957762500000003314e+01,-2.578075000000002959e+01,-2.390575000000002959e+01,-2.367137500000002959e+01,-2.546825000000002959e+01,-3.162450000000003314e+01,-3.826512500000004025e+01,-4.645262500000004025e+01,-5.767137500000005446e+01,-6.990575000000005446e+01,-8.290575000000006867e+01,-9.618700000000008288e+01,-1.087807500000000971e+02,-1.161557500000000971e+02,-1.207807500000000971e+02,-1.211401250000000971e+02,-1.157026250000000971e+02,-1.050620000000000971e+02,-8.859325000000006867e+01,-6.793700000000005446e+01,-4.292137500000004025e+01,-1.898387500000002248e+01,4.734874999999992617e+00,2.807862500000000239e+01,5.110987500000001660e+01,7.382862500000004502e+01,9.659425000000005923e+01,1.202817500000000734e+02,1.435161250000000734e+02,1.688442500000001019e+02,1.957973750000001587e+02,2.220317500000001587e+02,2.471880000000001587e+02,2.693130000000001587e+02,2.874692500000001587e+02,3.031567500000001587e+02,3.168755000000001587e+02,3.282348750000001587e+02,3.386255000000001587e+02,3.485473750000001587e+02,3.566567500000001587e+02,3.656098750000002156e+02,3.765630000000002156e+02,3.870630000000003292e+02,3.966255000000003292e+02,4.059067500000003292e+02,4.126567500000003292e+02,4.194223750000003292e+02,4.259692500000003292e+02,4.300630000000003292e+02,4.297505000000003292e+02,4.267036250000003292e+02,4.229380000000003292e+02,4.164380000000003292e+02,4.091880000000003292e+02,3.986411250000003292e+02,3.870942500000003292e+02,3.771255000000002156e+02,3.712192500000001587e+02,3.683755000000001587e+02,3.669223750000001587e+02,3.692973750000001587e+02,3.743130000000002156e+02,3.808598750000003292e+02,3.870005000000003292e+02,3.907973750000003292e+02,3.889692500000003292e+02,3.825630000000003292e+02,3.698911250000002156e+02,3.510161250000002156e+02,3.252973750000001587e+02,2.966411250000001587e+02,2.670005000000001587e+02,2.366411250000001587e+02,2.075786250000001587e+02,1.785473750000001303e+02,1.523755000000001019e+02,1.282973750000000734e+02,1.076098750000000734e+02,8.893800000000004502e+01,7.214112500000004502e+01,5.617237500000002370e+01,4.353175000000001660e+01,3.439112500000001660e+01,2.931300000000000949e+01,2.696925000000000949e+01,2.918800000000000949e+01,3.584425000000000949e+01,4.432862500000001660e+01,5.737550000000003081e+01,7.081300000000003081e+01,8.567237500000004502e+01,1.007661250000000592e+02,1.160317500000000734e+02,1.297505000000000734e+02,1.415473750000000734e+02,1.526411250000000734e+02,1.622036250000000734e+02,1.712036250000000734e+02,1.809380000000001019e+02,1.896098750000001587e+02,2.005786250000001587e+02,2.128286250000001587e+02,2.262505000000001587e+02,2.426255000000001587e+02,2.605317500000001587e+02,2.818442500000001587e+02,3.038286250000001587e+02,3.285630000000001587e+02,3.527348750000002156e+02,3.761255000000003292e+02,3.991255000000003292e+02,4.195786250000003292e+02,4.379692500000003292e+02,4.523598750000003292e+02,4.637973750000003292e+02,4.717192500000003292e+02,4.772348750000003292e+02,4.811567500000003292e+02,4.832505000000003292e+02,4.843442500000003292e+02,4.847036250000003292e+02,4.850317500000003292e+02,4.852348750000003292e+02,4.853911250000003292e+02,4.854692500000003292e+02,4.855317500000003292e+02,4.856098750000003292e+02,4.856255000000003292e+02,4.856255000000003292e+02,4.855786250000003292e+02,4.855473750000003292e+02,4.854848750000003292e+02,4.854380000000003292e+02,4.853755000000003292e+02,4.852973750000003292e+02,4.852505000000003292e+02,4.852505000000003292e+02,4.852661250000003292e+02,4.852817500000003292e+02,4.853130000000003292e+02,4.853442500000003292e+02,4.853130000000003292e+02,4.852817500000003292e+02,4.852505000000003292e+02,4.851567500000003292e+02,4.850473750000003292e+02,4.849380000000003292e+02,4.848286250000003292e+02,4.847036250000003292e+02,4.846723750000003292e+02,4.846098750000003292e+02,4.845161250000003292e+02,4.844380000000003292e+02,4.843130000000003292e+02,4.840630000000003292e+02,4.831567500000003292e+02,4.815161250000003292e+02,4.787036250000003292e+02,4.744848750000003292e+02,4.678911250000003292e+02,4.575473750000003292e+02,4.440786250000003292e+02,4.280630000000003292e+02,4.097973750000003292e+02,3.885005000000003292e+02,3.659067500000002156e+02,3.417036250000001587e+02,3.171255000000001587e+02,2.958755000000001587e+02,2.761723750000001587e+02,2.559692500000001587e+02,2.370942500000001587e+02,2.198755000000001587e+02,2.027348750000001587e+02,1.863130000000001587e+02,1.706567500000001019e+02,1.530942500000000734e+02,1.344848750000000734e+02,1.162661250000000734e+02,9.662550000000004502e+01,7.804737500000004502e+01,5.932862500000003081e+01,4.056300000000001660e+01,2.254737500000000239e+01,4.203624999999989953e+00,-1.265575000000001893e+01,-2.835887500000003314e+01,-4.354637500000004025e+01,-5.995262500000005446e+01,-7.634325000000006867e+01,-9.224950000000008288e+01,-1.099995000000000971e+02,-1.269213750000000971e+02,-1.446245000000000971e+02,-1.613120000000000971e+02,-1.767963750000001255e+02,-1.912807500000001824e+02,-2.048120000000001824e+02,-2.171088750000001824e+02,-2.267807500000001824e+02,-2.363432500000001824e+02,-2.453432500000001824e+02,-2.559213750000001824e+02,-2.662963750000001824e+02,-2.781870000000001824e+02,-2.895620000000001824e+02,-3.016401250000001824e+02,-3.153120000000001824e+02,-3.278901250000001824e+02,-3.415151250000001824e+02,-3.545307500000001824e+02,-3.673432500000002392e+02,-3.784995000000002960e+02,-3.895307500000003529e+02,-4.013588750000003529e+02,-4.122807500000003529e+02,-4.247338750000003529e+02,-4.357182500000003529e+02,-4.452026250000003529e+02,-4.556401250000003529e+02,-4.652338750000003529e+02,-4.752495000000003529e+02,-4.835307500000003529e+02,-4.908432500000003529e+02,-4.960307500000003529e+02,-5.002338750000003529e+02,-5.052182500000003529e+02,-5.083745000000003529e+02,-5.114057500000003529e+02,-5.131245000000003529e+02,-5.144057500000003529e+02,-5.156245000000003529e+02,-5.167963750000003529e+02,-5.179526250000003529e+02,-5.182495000000003529e+02,-5.185307500000003529e+02,-5.186245000000003529e+02,-5.187182500000003529e+02,-5.188432500000003529e+02,-5.188120000000003529e+02,-5.187807500000003529e+02,-5.187495000000003529e+02,-5.187338750000003529e+02,-5.187495000000003529e+02,-5.187807500000003529e+02,-5.188120000000003529e+02,-5.187963750000003529e+02,-5.188120000000003529e+02,-5.188432500000003529e+02,-5.188745000000003529e+02,-5.188745000000003529e+02,-5.188588750000003529e+02,-5.188432500000003529e+02,-5.188276250000003529e+02,-5.188588750000003529e+02,-5.188745000000003529e+02,-5.188432500000003529e+02,-5.188120000000003529e+02,-5.187963750000003529e+02,-5.187807500000003529e+02,-5.187807500000003529e+02,-5.187807500000003529e+02,-5.187651250000003529e+02,-5.187495000000003529e+02,-5.187807500000003529e+02,-5.187963750000003529e+02,-5.188120000000003529e+02,-5.188276250000003529e+02,-5.188120000000003529e+02,-5.187963750000003529e+02,-5.187807500000003529e+02,-5.187651250000003529e+02,-5.187338750000003529e+02,-5.186557500000003529e+02,-5.177182500000003529e+02,-5.159526250000003529e+02,-5.134057500000003529e+02,-5.102963750000003529e+02,-5.067963750000003529e+02,-5.020620000000003529e+02,-4.967182500000003529e+02,-4.905932500000003529e+02,-4.845776250000003529e+02,-4.788901250000003529e+02,-4.720151250000003529e+02,-4.639838750000003529e+02,-4.551088750000003529e+02,-4.458432500000003529e+02,-4.344526250000003529e+02,-4.217182500000003529e+02,-4.091401250000003529e+02,-3.947026250000003529e+02,-3.817182500000003529e+02,-3.701401250000002392e+02,-3.580151250000001824e+02,-3.463276250000001824e+02,-3.374057500000001824e+02,-3.294213750000001824e+02,-3.204838750000001824e+02,-3.143901250000001824e+02,-3.074682500000001824e+02,-2.987182500000001824e+02,-2.904995000000001824e+02,-2.831870000000001824e+02,-2.737807500000001824e+02,-2.654995000000001824e+02,-2.575776250000001824e+02,-2.469213750000001824e+02,-2.377026250000001824e+02,-2.294995000000001824e+02,-2.212651250000001824e+02,-2.125151250000001824e+02,-2.058901250000001824e+02,-1.977807500000001824e+02,-1.906870000000001255e+02,-1.855776250000001255e+02,-1.783745000000000971e+02,-1.720776250000000971e+02,-1.670932500000000971e+02,-1.624526250000000971e+02,-1.562026250000000971e+02,-1.507651250000000971e+02,-1.447495000000000971e+02,-1.386870000000000971e+02,-1.351557500000000971e+02,-1.305776250000000971e+02,-1.257338750000000971e+02,-1.193120000000000971e+02,-1.142338750000000971e+02,-1.104838750000000971e+02,-1.058276250000000971e+02,-9.998387500000009709e+01,-9.298387500000006867e+01,-8.773387500000006867e+01,-8.159325000000006867e+01,-7.692137500000005446e+01,-7.143700000000005446e+01,-6.371825000000005446e+01,-5.685887500000005446e+01,-5.057762500000004735e+01,-4.399950000000004025e+01,-3.501512500000003314e+01,-2.620262500000002603e+01,-1.859325000000002248e+01,-1.170262500000001893e+01,-5.937000000000015376e+00,-1.577625000000012712e+00,1.984874999999989509e+00,5.844249999999991729e+00,6.875499999999993506e+00,7.406749999999993506e+00,8.891124999999993506e+00,1.078174999999999528e+01,1.170362499999999528e+01,1.389112499999999706e+01,1.646924999999999883e+01,1.712549999999999883e+01,1.893799999999999883e+01,2.067237499999999883e+01,2.245362500000000239e+01,2.301612500000000239e+01,2.390675000000000239e+01,2.515675000000000949e+01,2.612550000000000949e+01,2.909425000000000949e+01,3.251612500000000949e+01,3.610987500000000949e+01,3.956300000000000949e+01,4.360987500000001660e+01,4.923487500000003081e+01,5.317237500000003081e+01,5.601612500000003081e+01,5.732862500000003081e+01,5.820362500000003081e+01,5.740675000000003081e+01,5.746925000000003081e+01,5.864112500000003081e+01,5.726612500000003081e+01,5.753175000000003081e+01,6.007862500000003081e+01,6.226612500000003081e+01,6.507862500000003081e+01,6.996925000000003081e+01,7.354737500000003081e+01,7.476612500000003081e+01,7.832862500000003081e+01,8.037550000000003081e+01,7.984425000000003081e+01,8.059425000000003081e+01,7.923487500000003081e+01,7.650050000000003081e+01,7.387550000000003081e+01,7.378175000000003081e+01,7.218800000000003081e+01,7.137550000000003081e+01,7.303175000000003081e+01,7.378175000000003081e+01,7.692237500000003081e+01,8.146925000000003081e+01,8.579737500000003081e+01,8.785987500000003081e+01,9.029737500000003081e+01,9.295362500000004502e+01,9.390675000000004502e+01,9.457862500000004502e+01,9.407862500000004502e+01,9.164112500000003081e+01,8.970362500000003081e+01,8.823487500000003081e+01,8.528175000000003081e+01,8.075050000000003081e+01,7.659425000000003081e+01,7.387550000000003081e+01,7.084425000000003081e+01,6.815675000000003081e+01,6.573487500000003081e+01,6.400050000000003081e+01,6.323487500000003081e+01,6.357862500000003081e+01,6.267237500000003081e+01,5.937550000000003081e+01,5.554737500000003081e+01,5.353175000000003081e+01,5.120362500000003081e+01,4.923487500000003081e+01,4.784425000000003081e+01,4.639112500000001660e+01,4.740675000000002370e+01,4.982862500000003081e+01,5.303175000000003081e+01,5.351612500000003081e+01,5.314112500000003081e+01,5.078175000000003081e+01,4.901612500000003081e+01,4.754737500000002370e+01,4.431300000000001660e+01,4.142237500000001660e+01,3.781300000000000949e+01,3.659425000000000949e+01,3.545362500000000949e+01,3.570362500000000949e+01,3.378175000000000949e+01,3.103175000000000949e+01,2.885987500000000949e+01,2.626612500000000949e+01,2.475050000000000594e+01,2.114112500000000239e+01,1.846925000000000239e+01,1.654737499999999883e+01,1.581299999999999883e+01,1.650049999999999883e+01,1.668799999999999883e+01,1.743799999999999883e+01,1.846924999999999883e+01,2.154737500000000239e+01,2.373487500000000594e+01,2.431300000000000594e+01,2.590675000000000949e+01,2.554737500000000949e+01,2.589112500000000949e+01,2.523487500000000594e+01,2.403175000000000594e+01,2.206300000000000239e+01,2.057862499999999883e+01,2.000049999999999883e+01,1.853174999999999883e+01,1.789112499999999883e+01,1.704737499999999883e+01,1.601612499999999883e+01,1.406299999999999883e+01,1.225049999999999528e+01,1.107862499999999528e+01,1.051612499999999351e+01,9.141124999999993506e+00,7.984874999999993506e+00,6.578624999999991729e+00,7.031749999999991729e+00,8.297374999999993506e+00,9.172374999999995282e+00,9.719249999999995282e+00,9.547374999999995282e+00,1.032862499999999528e+01,1.123487499999999706e+01,1.220362499999999883e+01,1.204737499999999528e+01,1.214112499999999528e+01,1.112549999999999528e+01,9.844249999999995282e+00,8.406749999999995282e+00,6.109874999999992617e+00,4.531749999999991729e+00,3.203624999999990841e+00,9.692499999999890647e-01,-2.077625000000013156e+00,-3.046375000000013600e+00,-4.780750000000014488e+00,-6.843250000000017153e+00,-7.655750000000017153e+00,-9.249500000000017153e+00,-1.110887500000001893e+01,-1.253075000000002248e+01,-1.290575000000002248e+01,-1.370262500000002248e+01,-1.284325000000002071e+01,-1.203075000000002071e+01,-1.128075000000001893e+01,-1.032762500000001893e+01,-9.937000000000018929e+00,-8.015125000000017153e+00,-5.999500000000015376e+00,-5.452625000000015376e+00,-6.155750000000015376e+00,-5.296375000000015376e+00,-5.546375000000015376e+00,-6.577625000000017153e+00,-6.296375000000017153e+00,-8.265125000000017153e+00,-1.051512500000001893e+01,-1.153075000000001893e+01,-1.210887500000002071e+01,-1.428075000000002248e+01,-1.628075000000002248e+01,-1.723387500000002248e+01,-1.923387500000002603e+01,-1.893700000000002603e+01,-1.993700000000002603e+01,-2.117137500000002603e+01,-2.270262500000002603e+01,-2.434325000000003314e+01,-2.440575000000003314e+01,-2.503075000000003314e+01,-2.478075000000003314e+01,-2.674950000000003314e+01,-2.699950000000003314e+01,-2.679637500000003314e+01,-2.628075000000003314e+01,-2.451512500000003314e+01,-2.523387500000003314e+01,-2.607762500000003314e+01,-2.706200000000003314e+01,-2.670262500000003314e+01,-2.687450000000003314e+01,-2.829637500000003314e+01,-2.946825000000003314e+01,-3.074950000000003314e+01,-3.034325000000003314e+01,-2.949950000000003314e+01,-2.910887500000003314e+01,-2.929637500000003314e+01,-2.959325000000003314e+01,-2.793700000000003314e+01,-2.596825000000003314e+01,-2.557762500000003314e+01,-2.470262500000003314e+01,-2.440575000000002959e+01,-2.509325000000003314e+01,-2.484325000000003314e+01,-2.459325000000003314e+01,-2.648387500000003314e+01,-2.954637500000003314e+01,-3.029637500000003314e+01,-3.215575000000003314e+01,-3.306200000000003314e+01,-3.206200000000003314e+01,-3.248387500000003314e+01,-3.337450000000003314e+01,-3.262450000000003314e+01,-3.162450000000003314e+01,-3.307762500000003314e+01,-3.401512500000003314e+01,-3.674950000000003314e+01,-4.062450000000003314e+01,-4.274950000000004025e+01,-4.514012500000004025e+01,-4.754637500000005446e+01,-4.914012500000005446e+01,-4.912450000000005446e+01,-4.920262500000005446e+01,-4.709325000000004735e+01,-4.470262500000004025e+01,-4.387450000000004025e+01,-4.129637500000003314e+01,-4.021825000000003314e+01,-3.914012500000003314e+01,-3.781200000000003314e+01,-3.790575000000003314e+01,-4.017137500000003314e+01,-4.232762500000003314e+01,-4.298387500000003314e+01,-4.473387500000003314e+01,-4.514012500000004025e+01,-4.606200000000004025e+01,-4.801512500000004735e+01,-4.824950000000005446e+01,-4.737450000000004025e+01,-4.612450000000003314e+01,-4.695262500000004025e+01,-4.817137500000004025e+01,-4.917137500000004735e+01,-5.153075000000005446e+01,-5.348387500000005446e+01,-5.506200000000005446e+01,-5.615575000000005446e+01,-5.839012500000005446e+01,-5.854637500000005446e+01,-5.914012500000005446e+01,-6.103075000000005446e+01,-6.137450000000005446e+01,-6.123387500000005446e+01,-6.185887500000005446e+01,-6.324950000000005446e+01,-6.387450000000005446e+01,-6.537450000000005446e+01,-6.524950000000005446e+01,-6.424950000000005446e+01,-6.223387500000005446e+01,-6.107762500000005446e+01,-5.989012500000005446e+01,-5.785887500000005446e+01,-5.568700000000005446e+01,-5.339012500000005446e+01,-5.124950000000005446e+01,-4.907762500000005446e+01,-4.779637500000005446e+01,-4.623387500000004025e+01,-4.571825000000004025e+01,-4.457762500000004025e+01,-4.242137500000003314e+01,-4.012450000000003314e+01,-3.821825000000003314e+01,-3.692137500000003314e+01,-3.589012500000003314e+01,-3.423387500000003314e+01,-3.796825000000004025e+01,-4.951512500000004025e+01,-6.918700000000005446e+01,-9.714012500000006867e+01,-1.332807500000000971e+02,-1.761713750000001255e+02,-2.271088750000001824e+02
-2.200000000000001421e+01,-5.304687500000003553e+01,-7.182812500000004263e+01,-7.039062500000004263e+01,-4.718750000000002842e+01,-3.037500000000001776e+01,-1.521875000000000888e+01,-5.250000000000003553e+00,-2.781250000000001776e+00,-7.187500000000003331e-01,-3.125000000000002082e-02,-7.812500000000005551e-02,-1.734375000000001332e+00,-3.406250000000002665e+00,-5.968750000000003553e+00,-9.593750000000007105e+00,-6.593750000000003553e+00,-3.625000000000001776e+00,-3.125000000000000000e-02,6.343750000000003553e+00,1.328125000000000444e+00,-4.703125000000003553e+00,-5.703125000000003553e+00,-1.135937500000000711e+01,-6.453125000000004441e+00,2.671875000000001776e+00,1.875000000000002220e-01,6.984375000000005329e+00,7.984375000000005329e+00,-1.656250000000001110e+00,-1.000000000000000444e+00,-1.382812500000001066e+01,-2.623437500000001776e+01,-2.212500000000001421e+01,-2.204687500000001421e+01,-1.070312500000000711e+01,5.906250000000003553e+00,9.671875000000005329e+00,1.721875000000001066e+01,2.231250000000001421e+01,2.142187500000001421e+01,2.728125000000001421e+01,2.540625000000001421e+01,1.762500000000001066e+01,1.195312500000000711e+01,-1.312500000000000000e+00,-7.671875000000003553e+00,-8.828125000000005329e+00,-1.131250000000000711e+01,-6.625000000000003553e+00,-5.640625000000003553e+00,-3.312500000000001776e+00,1.671875000000001554e+00,3.796875000000002665e+00,8.921875000000007105e+00,9.187500000000007105e+00,5.765625000000003553e+00,2.156250000000001332e+00,-4.328125000000003553e+00,-7.171875000000005329e+00,-6.203125000000004441e+00,-4.281250000000002665e+00,-2.062500000000001332e+00,-1.765625000000000888e+00,-2.843750000000001776e+00,-3.812500000000002665e+00,-3.281250000000002220e-01,6.593750000000004441e+00,1.445312500000001066e+01,2.081250000000001421e+01,2.020312500000001066e+01,1.465625000000000711e+01,5.296875000000002665e+00,-2.093750000000000888e+00,-5.640625000000003553e+00,-5.343750000000003553e+00,-2.515625000000001776e+00,-1.828125000000001776e+00,-4.687500000000006661e-01,-2.796875000000002665e+00,-2.765625000000002665e+00,-8.750000000000002220e-01,-1.203125000000000444e+00,2.031250000000003886e-01,-4.812500000000002665e+00,-1.578125000000001066e+01,-2.884375000000001776e+01,-4.134375000000002842e+01,-4.992187500000004263e+01,-4.889062500000003553e+01,-4.190625000000002842e+01,-3.556250000000002132e+01,-2.537500000000001421e+01,-1.589062500000000888e+01,-5.843750000000003553e+00,8.375000000000005329e+00,2.093750000000001421e+01,2.635937500000001776e+01,2.704687500000002132e+01,2.523437500000001421e+01,2.093750000000001066e+01,2.257812500000001421e+01,2.642187500000001421e+01,2.687500000000002132e+01,2.598437500000002132e+01,2.060937500000001421e+01,1.289062500000000711e+01,6.953125000000003553e+00,2.875000000000001776e+00,7.812500000000004441e-01,3.281250000000002220e-01,3.125000000000002220e-01,2.968750000000002220e-01,2.812500000000001665e-01,1.093750000000000694e-01,0.000000000000000000e+00,-1.093750000000000833e-01,-1.406250000000001110e-01,-9.375000000000008327e-02,-9.375000000000008327e-02,-4.687500000000004163e-02,-9.375000000000008327e-02,-1.387778780781445676e-17,1.093750000000000833e-01,1.718750000000001110e-01,2.812500000000001665e-01,1.562500000000000833e-01,4.687500000000002776e-02,-4.687500000000003469e-02,-9.375000000000006939e-02,3.125000000000001388e-02,1.406250000000000833e-01,3.593750000000002220e-01,1.171875000000000888e+00,2.468750000000001776e+00,4.640625000000003553e+00,9.625000000000005329e+00,1.487500000000000888e+01,2.067187500000001421e+01,2.631250000000002132e+01,2.257812500000001776e+01,1.464062500000001066e+01,1.640625000000000888e+00,-1.682812500000001066e+01,-2.498437500000002132e+01,-2.989062500000002132e+01,-2.890625000000001776e+01,-1.896875000000001421e+01,-1.298437500000000711e+01,-2.375000000000000444e+00,9.078125000000007105e+00,1.520312500000001066e+01,2.206250000000001421e+01,2.057812500000001421e+01,1.189062500000000711e+01,5.468750000000003553e+00,-4.109375000000001776e+00,-8.843750000000003553e+00,-6.250000000000003553e+00,-6.593750000000004441e+00,-1.703125000000001332e+00,1.437500000000000888e+00,4.218750000000002220e-01,1.421875000000001110e+00,-3.703125000000002220e+00,-6.390625000000003553e+00,-6.343750000000003553e+00,-5.171875000000003553e+00,4.234375000000001776e+00,8.921875000000005329e+00,9.250000000000005329e+00,5.453125000000002665e+00,-6.765625000000004441e+00,-1.303125000000000888e+01,-1.370312500000001066e+01,-8.437500000000007105e+00,1.671875000000000666e+00,6.343750000000003553e+00,6.796875000000005329e+00,2.890625000000002220e+00,-3.640625000000002220e+00,-6.890625000000004441e+00,-7.671875000000005329e+00,-7.203125000000005329e+00,-4.156250000000002665e+00,-5.000000000000001110e-01,1.078125000000000888e+00,1.359375000000000888e+00,6.406250000000005551e-01,-4.843750000000002665e+00,-7.484375000000004441e+00,-7.093750000000004441e+00,-8.437500000000005329e+00,-1.906250000000001776e+00,1.000000000000000222e+00,5.468750000000004441e-01,4.687500000000002665e+00,8.593750000000004441e-01,1.468750000000000888e+00,6.578125000000003553e+00,4.875000000000002665e+00,7.906250000000005329e+00,6.609375000000004441e+00,-1.000000000000000888e+00,-1.156250000000001110e+00,-3.203125000000002665e+00,-4.265625000000003553e+00,1.343750000000000888e+00,1.125000000000000888e+00,2.156250000000001776e+00,6.078125000000004441e+00,2.734375000000002220e+00,1.781250000000001332e+00,1.250000000000000000e-01,-4.328125000000003553e+00,9.375000000000000000e-02,4.578125000000003553e+00,7.265625000000005329e+00,9.484375000000007105e+00,1.671875000000001332e+00,-8.375000000000005329e+00,-1.475000000000001066e+01,-1.790625000000001421e+01,-1.356250000000001066e+01,-4.000000000000001776e+00,4.671875000000003553e+00,9.296875000000007105e+00,1.143750000000000711e+01,9.609375000000007105e+00,3.593750000000002220e+00,9.531250000000004441e-01,2.187500000000001110e-01,-2.765625000000001776e+00,-4.843750000000000000e-01,-1.296875000000000000e+00,-5.750000000000003553e+00,-5.062500000000003553e+00,-5.406250000000003553e+00,-5.468750000000008882e-01,5.796875000000004441e+00,8.828125000000007105e+00,8.640625000000007105e+00,5.000000000000013323e-01,-6.343750000000003553e+00,-1.021875000000000711e+01,-1.109375000000000711e+01,-3.281250000000001776e+00,2.953125000000001776e+00,5.812500000000003553e+00,8.875000000000005329e+00,4.703125000000002665e+00,2.062500000000001332e+00,2.828125000000001776e+00,8.906250000000006661e-01,3.750000000000002665e+00,4.296875000000002665e+00,-2.187499999999998890e-01,-1.593750000000000666e+00,-6.265625000000003553e+00,-7.875000000000003553e+00,-5.546875000000003553e+00,-5.281250000000003553e+00,-1.515625000000000888e+00,1.875000000000000000e-01,3.343750000000002220e+00,6.984375000000005329e+00,7.984375000000005329e+00,8.296875000000005329e+00,5.437500000000003553e+00,2.953125000000001776e+00,-1.562500000000000000e-02,5.625000000000002220e-01,-9.218750000000008882e-01,-3.328125000000002665e+00,-3.109375000000002665e+00,-7.781250000000004441e+00,-5.718750000000002665e+00,-2.109375000000001332e+00,-2.109375000000001332e+00,1.312500000000000888e+00,2.343750000000002220e-01,-6.875000000000005551e-01,3.031250000000001776e+00,5.375000000000002665e+00,7.875000000000003553e+00,7.406250000000003553e+00,2.718750000000001332e+00,-4.218750000000003886e-01,-3.468750000000002220e+00,-5.296875000000003553e+00,-3.328125000000002220e+00,-4.625000000000003553e+00,-4.609375000000003553e+00,4.531250000000002220e-01,-6.406250000000006661e-01,3.593750000000001332e+00,6.640625000000003553e+00,1.406250000000000000e-01,2.015625000000000888e+00,-2.312500000000000888e+00,-7.375000000000004441e+00,-4.375000000000003553e+00,-7.546875000000005329e+00,-6.671875000000004441e+00,-2.906250000000001776e+00,-1.796875000000001110e+00,1.515625000000001110e+00,4.812500000000003553e+00,7.468750000000005329e+00,8.468750000000005329e+00,8.046875000000005329e+00,4.906250000000003553e+00,-3.265625000000001776e+00,-9.125000000000005329e+00,-1.126562500000000711e+01,-9.687500000000007105e+00,-7.656250000000013323e-01,9.078125000000005329e+00,1.275000000000000888e+01,1.235937500000000888e+01,5.406250000000003553e+00,-7.562500000000006217e+00,-1.467187500000001066e+01,-1.928125000000001421e+01,-1.564062500000001066e+01,-3.125000000000001776e+00,8.781250000000007105e+00,2.226562500000001421e+01,2.342187500000001421e+01,1.542187500000000888e+01,2.687500000000000888e+00,-1.421875000000001066e+01,-1.857812500000001421e+01,-1.418750000000001066e+01,-6.625000000000005329e+00,3.281250000000002220e+00,5.265625000000003553e+00,3.296875000000002220e+00,3.031250000000002220e+00,2.421875000000001776e+00,8.921875000000005329e+00,8.906250000000005329e+00,4.093750000000001776e+00,6.250000000000000000e-01,-1.387500000000000888e+01,-1.490625000000001066e+01,-1.045312500000000711e+01,-8.625000000000007105e+00,4.156250000000001776e+00,5.046875000000002665e+00,3.421875000000002665e+00,4.843750000000003553e+00,-7.031250000000003331e-01,1.093750000000000444e+00,1.062500000000000222e+00,-2.921875000000001776e+00,-4.203125000000002665e+00,-8.468750000000005329e+00,-7.968750000000004441e+00,-2.296875000000001776e+00,6.781250000000005329e+00,1.553125000000001066e+01,1.873437500000001421e+01,1.828125000000001421e+01,1.106250000000000711e+01,4.703125000000003553e+00,3.078125000000001776e+00,2.046875000000000444e+00,3.531250000000001776e+00,5.343750000000003553e+00,2.062500000000000888e+00,-3.468750000000001776e+00,-1.015625000000000711e+01,-2.215625000000001421e+01,-3.198437500000002132e+01,-3.929687500000002132e+01,-4.056250000000002132e+01,-3.109375000000001776e+01,-1.625000000000001066e+01,2.359375000000001776e+00,1.629687500000001066e+01,2.320312500000001421e+01,2.167187500000001421e+01,1.332812500000000888e+01,1.234375000000000444e+00,-1.384375000000000888e+01,-2.328125000000001421e+01,-2.739062500000001776e+01,-2.096875000000001421e+01,-2.859375000000001776e+00,1.534375000000000711e+01,3.018750000000001421e+01,3.525000000000002132e+01,2.709375000000001421e+01,1.321875000000000711e+01,1.000000000000000888e+00,-7.984375000000007105e+00,-1.081250000000000711e+01,-6.046875000000003553e+00,-2.281250000000001776e+00,2.265625000000001776e+00,7.750000000000005329e+00,5.750000000000003553e+00,3.375000000000002665e+00,5.312500000000004441e-01,-2.843750000000001776e+00,7.031250000000004441e-01,6.156250000000003553e+00,1.281250000000000711e+01,1.693750000000001066e+01,1.792187500000001066e+01,1.668750000000001066e+01,1.162500000000000888e+01,6.625000000000005329e+00,-1.203125000000000888e+00,-6.718750000000005329e+00,-1.037500000000000711e+01,-1.278125000000000888e+01,-1.331250000000000888e+01,-1.892187500000001421e+01,-2.235937500000001421e+01,-2.212500000000001421e+01,-1.492187500000001066e+01,4.312500000000001776e+00,2.576562500000001421e+01,4.546875000000002842e+01,5.393750000000004263e+01,4.748437500000002842e+01,3.210937500000001421e+01,9.515625000000003553e+00,-5.328125000000003553e+00,-1.350000000000000888e+01,-1.539062500000001066e+01,-1.045312500000000711e+01,-1.110937500000000888e+01,-8.750000000000007105e+00,-7.359375000000004441e+00,-6.359375000000003553e+00,-9.375000000000004441e-01,-3.390625000000002665e+00,-6.109375000000005329e+00,-1.271875000000000888e+01,-2.207812500000001421e+01,-2.187500000000001421e+01,-2.334375000000001421e+01,-1.793750000000001421e+01,-1.090625000000000711e+01,-1.070312500000000711e+01,-6.812500000000003553e+00,-7.375000000000003553e+00,-4.484375000000001776e+00,1.859375000000001776e+00,8.718750000000005329e+00,1.537500000000001066e+01,1.382812500000000711e+01,1.154687500000000533e+01,1.859375000000000000e+00,-5.890625000000003553e+00,-6.687500000000003553e+00,-1.004687500000000711e+01,-4.640625000000002665e+00,-3.765625000000001776e+00,-6.375000000000003553e+00,-7.500000000000003553e+00,-1.415625000000000711e+01,-1.396875000000001066e+01,-1.282812500000001066e+01,-7.875000000000006217e+00,7.031249999999994449e-01,6.437500000000003553e+00,1.431250000000000711e+01,1.817187500000001066e+01,1.971875000000001066e+01,1.914062500000001066e+01,1.482812500000001066e+01,1.040625000000000711e+01,5.828125000000003553e+00,2.718750000000002220e+00,1.250000000000000888e+00,5.312500000000003331e-01,4.218750000000003331e-01,3.437500000000002220e-01,1.406250000000000833e-01,1.093750000000000694e-01,3.125000000000002776e-02,-3.125000000000002082e-02,7.812500000000005551e-02,6.250000000000004163e-02,1.250000000000000833e-01,1.718750000000001110e-01,1.406250000000001110e-01,1.406250000000001110e-01,6.250000000000005551e-02,-6.250000000000002776e-02,-1.718750000000001110e-01,-2.500000000000001665e-01,-2.500000000000001665e-01,-1.406250000000001110e-01,-3.125000000000002082e-02,6.250000000000004163e-02,1.562500000000001110e-01,1.875000000000001388e-01,2.187500000000001665e-01,2.500000000000001665e-01,2.187500000000001665e-01,7.812500000000006939e-02,-6.250000000000002776e-02,-2.031250000000001110e-01,-3.281250000000002220e-01,-2.343750000000001665e-01,-1.093750000000000833e-01,4.687500000000001388e-02,2.500000000000001665e-01,3.750000000000002220e-01,5.000000000000003331e-01,1.156250000000000888e+00,2.484375000000001776e+00,4.734375000000003553e+00,8.140625000000005329e+00,1.154687500000000711e+01,1.582812500000001066e+01,1.917187500000001066e+01,2.006250000000001066e+01,1.857812500000001066e+01,1.093750000000000711e+01,4.687500000000000000e-01,-8.328125000000007105e+00,-1.412500000000001066e+01,-1.412500000000000888e+01,-8.546875000000005329e+00,-4.031250000000003553e+00,-2.968750000000001776e+00,6.875000000000000000e-01,3.281249999999995559e-01,3.124999999999995559e-01,6.468750000000004441e+00,3.531250000000003109e+00,2.703125000000003109e+00,3.796875000000003553e+00,-2.375000000000001776e+00,5.156249999999995559e-01,1.171874999999999556e+00,-2.250000000000001776e+00,-1.671875000000001332e+00,-5.765625000000002665e+00,-8.218750000000003553e+00,-6.078125000000003553e+00,-2.265625000000000888e+00,1.328125000000000444e+00,6.968750000000005329e+00,9.375000000000007105e+00,6.562500000000004441e+00,5.921875000000003553e+00,-1.125000000000002665e+00,-7.500000000000005329e+00,-1.051562500000000711e+01,-1.578125000000001066e+01,-1.281250000000000711e+01,-7.640625000000005329e+00,-2.343750000000001776e+00,6.343750000000003553e+00,7.093750000000003553e+00,5.796875000000003553e+00,4.734375000000003553e+00,-1.249999999999996669e-01,2.312500000000001776e+00,2.953125000000002665e+00,2.375000000000001776e+00,1.765625000000000888e+00,-3.984375000000002665e+00,-4.531250000000003553e+00,-6.468750000000003553e+00,-2.500000000000001332e+00,1.718750000000000444e+00,4.687499999999944489e-02,3.468750000000001776e+00,-1.140625000000001332e+00,-1.281250000000000444e+00,1.453125000000001332e+00,-2.046875000000001332e+00,-9.531250000000006661e-01,-5.812500000000003553e+00,-8.468750000000005329e+00,-7.531250000000005329e+00,-6.656250000000004441e+00,-1.640625000000001110e+00,-1.156250000000000666e+00,-5.625000000000002220e-01,-1.156250000000000888e+00,-3.000000000000001776e+00,-1.718750000000001332e+00,-1.625000000000001332e+00,-1.015625000000000666e+00,-4.218750000000002776e-01,-7.500000000000004441e-01,-5.312500000000003331e-01,-3.750000000000002220e-01,-2.187500000000001110e-01,-3.125000000000002776e-02,6.250000000000005551e-02,9.375000000000008327e-02,1.250000000000000833e-01,1.093750000000000833e-01,6.250000000000004163e-02,3.125000000000002082e-02,0.000000000000000000e+00,-1.562500000000001041e-02,-6.250000000000005551e-02,-9.375000000000008327e-02,-1.250000000000000833e-01,-6.250000000000004163e-02,4.687500000000004163e-02,9.375000000000005551e-02,1.406250000000000833e-01,4.687500000000001388e-02,-6.250000000000005551e-02,-9.375000000000006939e-02,-1.250000000000000833e-01,-7.812500000000005551e-02,-3.125000000000002082e-02,3.125000000000002776e-02,9.375000000000008327e-02,1.406250000000001110e-01,1.875000000000001665e-01,9.375000000000008327e-02,-1.562500000000000347e-02,-1.250000000000000833e-01,-2.343750000000001665e-01,-1.875000000000001110e-01,-7.812500000000004163e-02,3.125000000000004163e-02,1.406250000000001110e-01,1.718750000000001388e-01,3.125000000000002776e-02,-9.687500000000006661e-01,-2.796875000000001776e+00,-5.406250000000003553e+00,-8.203125000000005329e+00,-7.953125000000005329e+00,-5.625000000000003553e+00,-7.187500000000000000e-01,5.031250000000003553e+00,5.578125000000003553e+00,4.765625000000002665e+00,-1.171875000000001332e+00,-8.765625000000005329e+00,-1.045312500000000711e+01,-1.378125000000000888e+01,-9.796875000000007105e+00,-3.156250000000002665e+00,-1.171875000000001110e+00,4.703125000000002665e+00,5.593750000000003553e+00,5.765625000000003553e+00,7.640625000000005329e+00,7.140625000000004441e+00,7.031250000000004441e+00,2.484375000000001776e+00,-5.156250000000007772e-01,-2.546875000000001776e+00,-5.281250000000003553e+00,-7.187499999999995559e-01,9.375000000000009992e-01,-1.312500000000000888e+00,-2.187500000000005274e-01,-3.562500000000003109e+00,-4.296875000000003553e+00,1.093749999999998890e-01,3.328125000000002220e+00,5.062500000000003553e+00,4.265625000000002665e+00,2.953125000000002220e+00,-2.171875000000000888e+00,-2.281250000000000888e+00,1.500000000000000888e+00,1.453125000000000666e+00,5.312500000000003553e+00,5.515625000000003553e+00,-2.812500000000000000e-01,-2.046875000000000888e+00,-3.109375000000001776e+00,-4.359375000000002665e+00,3.125000000000000000e-01,2.000000000000001332e+00,2.031250000000001332e+00,4.328125000000003553e+00,2.984375000000002665e+00,2.437500000000001776e+00,-8.281250000000002220e-01,-4.203125000000002665e+00,-7.171875000000004441e+00,-6.828125000000003553e+00,-7.031249999999997780e-01,1.421875000000001776e+00,7.031250000000006217e+00,7.484375000000006217e+00,1.937500000000001332e+00,9.375000000000022204e-02,-7.390625000000005329e+00,-1.142187500000000711e+01,-9.062500000000005329e+00,-6.296875000000005329e+00,1.828125000000000444e+00,9.718750000000005329e+00,1.132812500000000711e+01,1.212500000000000711e+01,9.765625000000007105e+00,3.390625000000002665e+00,1.156250000000000666e+00,-1.687500000000001110e+00,-5.718750000000004441e+00,-2.828125000000002665e+00,-1.031250000000001110e+00,-7.656250000000007772e-01,4.171875000000002665e+00,1.593750000000001110e+00,-5.000000000000004441e-01,8.125000000000005551e-01,-2.921875000000001332e+00,1.234375000000000888e+00,2.484375000000001776e+00,1.406250000000000666e+00,3.968750000000002665e+00,-1.750000000000001554e+00,-4.656250000000003553e+00,-7.265625000000005329e+00,-1.148437500000000711e+01,-7.500000000000003553e+00,-1.609375000000000888e+00,5.015625000000003553e+00,1.289062500000000711e+01,1.373437500000000888e+01,8.671875000000005329e+00,4.984375000000003553e+00,-1.468750000000001110e+00,-4.968750000000003553e+00,-3.328125000000002665e+00,-5.078125000000003553e+00,-5.843750000000003553e+00,-4.953125000000003553e+00,-4.328125000000002665e+00,-3.578125000000002665e+00,8.437500000000000000e-01,4.015625000000001776e+00,3.109375000000001776e+00,6.796875000000003553e+00,6.187500000000003553e+00,4.093750000000002665e+00,4.781250000000003553e+00,2.328125000000001332e+00,1.062500000000000666e+00,6.249999999999983347e-02,-3.125000000000027756e-02,-3.500000000000002665e+00,-7.062500000000005329e+00,-9.343750000000007105e+00,-1.153125000000000888e+01,-7.109375000000004441e+00,-2.156250000000001776e+00,5.015625000000002665e+00,9.015625000000005329e+00,9.078125000000005329e+00,9.984375000000005329e+00,3.968750000000002220e+00,8.593750000000005551e-01,-1.453125000000000666e+00,-5.015625000000003553e+00,-6.406250000000004441e-01,2.328125000000001332e+00,6.406250000000003553e+00,9.625000000000005329e+00,6.218750000000003553e+00,2.500000000000001332e+00,-5.718750000000003553e+00,-1.253125000000000711e+01,-1.404687500000000888e+01,-1.181250000000000711e+01,-1.796875000000001332e+00,7.421875000000003553e+00,1.407812500000000711e+01,1.587500000000001066e+01,9.390625000000005329e+00,3.156250000000001332e+00,-5.703125000000004441e+00,-1.442187500000001066e+01,-1.696875000000001066e+01,-1.664062500000001066e+01,-1.034375000000000711e+01,2.234375000000003109e+00,1.165625000000001066e+01,1.585937500000001243e+01,1.685937500000001421e+01,9.593750000000007105e+00,2.859375000000001776e+00,-1.984375000000001776e+00,-8.812500000000005329e+00,-1.110937500000000711e+01,-1.018750000000000711e+01,-6.906250000000004441e+00,7.968750000000008882e-01,8.984375000000005329e+00,1.034375000000000533e+01,1.040625000000000711e+01,4.953125000000003553e+00,-3.140625000000001776e+00,-5.500000000000003553e+00,-9.578125000000007105e+00,-6.906250000000005329e+00,-2.421875000000001776e+00,5.625000000000000000e-01,3.500000000000001776e+00,2.499999999999997780e-01,-2.625000000000002220e+00,-7.218750000000005329e+00,-7.109375000000005329e+00,-2.421875000000001776e+00,1.687500000000000222e+00,9.093750000000005329e+00,1.176562500000000711e+01,9.484375000000005329e+00,5.203125000000002665e+00,-1.656250000000001110e+00,-8.937500000000005329e+00,-9.078125000000005329e+00,-5.937500000000003553e+00,-2.156250000000001776e+00,6.796875000000003553e+00,6.890625000000003553e+00,5.421875000000003553e+00,4.937500000000002665e+00,-3.187500000000002665e+00,-2.265625000000001776e+00,-3.390625000000002665e+00,-7.265625000000005329e+00,-1.796875000000001332e+00,-3.828125000000003109e+00,-6.562500000000008882e-01,5.515625000000004441e+00,1.328125000000001332e+00,2.281250000000002220e+00,-1.296875000000000444e+00,-6.640625000000003553e+00,-1.734375000000001110e+00,-7.812500000000044409e-02,3.265625000000001776e+00,7.984375000000005329e+00,4.312500000000002665e+00,2.718750000000001776e+00,9.062500000000004441e-01,-1.484375000000000888e+00,-4.062500000000003331e-01,-1.078125000000000888e+00,-1.281250000000000888e+00,-2.859375000000002220e+00,-2.515625000000001776e+00,7.812500000000002220e-01,2.031250000000000888e+00,4.593750000000003553e+00,4.062500000000002665e+00,-2.140625000000001332e+00,-4.906250000000003553e+00,-6.656250000000003553e+00,-7.359375000000004441e+00,-1.093750000000000888e+00,1.593750000000000888e+00,1.843750000000000888e+00,2.828125000000001776e+00,-3.124999999999998890e-01,-1.796875000000000888e+00,-6.875000000000002220e-01,2.031250000000002776e-01,8.437500000000006661e-01,3.296875000000002220e+00,4.359375000000002665e+00,2.765625000000001776e+00,2.546875000000001776e+00,8.906250000000003331e-01,-2.609375000000001776e+00,-1.906250000000001110e+00,-2.656250000000003886e-01,-2.031250000000001776e+00,1.656250000000000888e+00,1.796875000000001110e+00,-7.031250000000005551e-01,1.812500000000001332e+00,-2.812500000000001776e+00,-3.453125000000001776e+00,-1.984375000000001110e+00,-8.437500000000002220e-01,4.781250000000002665e+00,5.031250000000003553e+00,3.281250000000001776e+00,-3.125000000000002220e+00,-8.625000000000005329e+00,-8.703125000000005329e+00,-5.156250000000002665e+00,2.453125000000002220e+00,8.109375000000005329e+00,9.890625000000007105e+00,6.312500000000005329e+00,2.640625000000001776e+00,-4.187500000000001776e+00,-8.140625000000003553e+00,-5.843750000000003553e+00,-5.875000000000003553e+00,2.093750000000001332e+00,5.375000000000002665e+00,2.609375000000001776e+00,3.609375000000002220e+00,-4.218750000000002665e+00,-5.375000000000003553e+00,-2.156250000000001776e+00,-3.609375000000002665e+00,2.203125000000001332e+00,3.406250000000002220e+00,3.968750000000002665e+00,6.593750000000004441e+00,4.593750000000003553e+00,4.171875000000002665e+00,-4.531250000000004441e-01,-3.390625000000002665e+00,-3.718750000000002665e+00,-7.250000000000005329e+00,-5.000000000000003553e+00,-3.078125000000002220e+00,-3.500000000000002665e+00,3.312500000000001776e+00,7.500000000000005329e+00,7.953125000000005329e+00,1.014062500000000711e+01,5.187500000000003553e+00,-5.625000000000003331e-01,-3.750000000000002665e+00,-6.296875000000004441e+00,-7.015625000000005329e+00,-6.859375000000004441e+00,-3.750000000000002665e+00,-4.609375000000003553e+00,-2.406250000000001776e+00,1.328125000000000888e+00,-3.750000000000002220e-01,3.546875000000002665e+00,5.406250000000003553e+00,3.078125000000001776e+00,3.687500000000002665e+00,2.031250000000001332e+00,-1.578125000000000888e+00,1.265625000000000444e+00,4.234375000000001776e+00,2.609375000000000888e+00,2.765625000000001332e+00,-5.062500000000004441e+00,-1.229687500000000711e+01,-1.056250000000000711e+01,-6.687500000000005329e+00,5.187500000000003553e+00,1.426562500000001066e+01,1.492187500000001066e+01,1.017187500000000711e+01,3.124999999999955591e-02,-8.640625000000007105e+00,-1.231250000000000888e+01,-8.468750000000005329e+00,-3.796875000000002220e+00,1.546875000000001332e+00,6.890625000000005329e+00,4.656250000000003553e+00,3.687500000000002220e+00,3.171875000000002220e+00,-2.828125000000002220e+00,-3.500000000000002665e+00,-4.062500000000002665e+00,-6.437500000000004441e+00,-5.625000000000004441e-01,1.125000000000000444e+00,2.968750000000000000e-01,1.265625000000000888e+00,-4.796875000000003553e+00,-6.140625000000004441e+00,-1.437500000000000888e+00,5.156250000000001110e-01,6.875000000000005329e+00,8.765625000000007105e+00,1.234375000000001110e+00,-1.765625000000000444e+00,-5.843750000000002665e+00,-7.109375000000003553e+00,1.484375000000000888e+00,4.062500000000002665e+00,2.843750000000001776e+00,2.296875000000001332e+00,-5.359375000000003553e+00,-6.140625000000003553e+00,7.406250000000003553e+00,2.276562500000001421e+01,4.906250000000002842e+01,7.701562500000005684e+01,7.790625000000005684e+01,6.623437500000004263e+01,3.185937500000002487e+01
-5.712500000000003553e+01,-6.500000000000002842e+01,-1.600000000000000711e+01,-1.000000000000000355e+01,-1.131250000000000355e+01,-2.750000000000000888e+00,6.250000000000002776e-02,0.000000000000000000e+00,0.000000000000000000e+00,0.000000000000000000e+00,0.000000000000000000e+00,0.000000000000000000e+00,-6.250000000000002776e-02,-1.250000000000000555e-01,6.250000000000002776e-02,1.875000000000000833e-01,-6.812500000000003553e+00,-1.362500000000000711e+01,3.250000000000001776e+00,1.550000000000000711e+01,1.312500000000000888e+00,4.625000000000001776e+00,2.312500000000000000e+00,-3.181250000000001776e+01,-1.800000000000001066e+01,3.231250000000001421e+01,2.681250000000001421e+01,-1.781250000000001066e+01,-3.562500000000001421e+01,1.068750000000000711e+01,5.206250000000002842e+01,-5.375000000000000000e+00,-5.181250000000002132e+01,-1.031250000000000178e+01,6.562500000000002665e+00,-6.750000000000003553e+00,7.062500000000003553e+00,1.118750000000000533e+01,-6.250000000000008882e-01,-4.375000000000000000e-01,9.312500000000005329e+00,1.062500000000000533e+01,5.625000000000000000e-01,1.137500000000000533e+01,2.300000000000001066e+01,-9.562500000000007105e+00,-3.037500000000001421e+01,-1.562500000000000000e+00,1.975000000000000711e+01,2.250000000000000000e+00,-2.000000000000001066e+01,-8.062500000000005329e+00,1.475000000000000533e+01,8.062500000000003553e+00,-1.018750000000000355e+01,-4.562500000000001776e+00,1.918750000000000711e+01,1.506250000000000711e+01,-1.893750000000000711e+01,-2.031250000000000711e+01,9.687500000000003553e+00,9.687500000000003553e+00,-9.000000000000003553e+00,-1.250000000000000888e+00,9.625000000000003553e+00,-4.062500000000001776e+00,-1.256250000000000533e+01,-1.750000000000000888e+00,7.437500000000002665e+00,1.143750000000000533e+01,1.481250000000000711e+01,8.625000000000003553e+00,-5.437500000000003553e+00,-8.812500000000003553e+00,-3.500000000000000888e+00,-1.875000000000000444e+00,1.125000000000000666e+00,6.062500000000001776e+00,8.749999999999995559e-01,-7.750000000000003553e+00,-8.750000000000000000e-01,3.625000000000001776e+00,-4.625000000000001776e+00,-1.562500000000000444e+00,8.062500000000003553e+00,5.937500000000001776e+00,-6.687500000000003553e+00,-2.031250000000001066e+01,-2.150000000000001066e+01,-1.487500000000000711e+01,-1.687500000000000711e+01,-6.187500000000000888e+00,1.550000000000000711e+01,-6.250000000000007105e+00,-3.568750000000002132e+01,-3.125000000000000000e-01,3.725000000000002132e+01,1.481250000000000711e+01,-3.375000000000002665e+00,7.312500000000003553e+00,1.000000000000000888e+00,-5.187500000000002665e+00,1.112500000000000533e+01,1.887500000000000711e+01,9.500000000000003553e+00,1.875000000000000888e+00,3.125000000000001110e-01,1.875000000000000833e-01,1.875000000000000833e-01,1.250000000000000555e-01,-1.875000000000001110e-01,-1.875000000000001110e-01,3.750000000000002220e-01,5.000000000000002220e-01,-1.250000000000000555e-01,-3.125000000000001110e-01,0.000000000000000000e+00,0.000000000000000000e+00,-1.250000000000000555e-01,6.250000000000002776e-02,1.875000000000000833e-01,-6.250000000000002776e-02,-2.500000000000001110e-01,-1.875000000000000833e-01,1.875000000000000833e-01,5.000000000000002220e-01,1.250000000000000555e-01,-2.500000000000001110e-01,-1.250000000000000555e-01,-6.250000000000002776e-02,-1.250000000000000555e-01,1.250000000000000833e-01,3.750000000000002220e-01,0.000000000000000000e+00,-2.500000000000001110e-01,3.125000000000001110e-01,8.125000000000004441e-01,3.000000000000000888e+00,6.750000000000002665e+00,4.562500000000002665e+00,7.250000000000003553e+00,2.200000000000001066e+01,1.018750000000000711e+01,-2.243750000000000711e+01,-2.175000000000001066e+01,-4.937500000000002665e+00,-3.312500000000001332e+00,-5.500000000000001776e+00,-4.187500000000001776e+00,-1.875000000000004441e-01,-2.187500000000000888e+00,6.250000000000044409e-02,1.693750000000000711e+01,1.831250000000001066e+01,1.750000000000000888e+00,-6.562500000000003553e+00,-7.437500000000003553e+00,-1.375000000000000888e+00,1.249999999999999778e+00,-6.562500000000002665e+00,-7.500000000000000000e-01,7.062500000000002665e+00,-1.500000000000000888e+00,-3.187500000000000888e+00,6.125000000000003553e+00,3.750000000000001776e+00,-1.206250000000000711e+01,-1.187500000000000533e+01,3.437500000000000888e+00,5.125000000000001776e+00,1.025000000000000355e+01,1.825000000000000711e+01,-2.562500000000000000e+00,-2.431250000000001066e+01,-1.593750000000000711e+01,9.375000000000008882e-01,7.625000000000003553e+00,1.187500000000000533e+01,1.031250000000000355e+01,-7.875000000000004441e+00,-1.400000000000000711e+01,6.187500000000003553e+00,6.750000000000004441e+00,-1.437500000000000711e+01,-6.437500000000003553e+00,1.243750000000000533e+01,2.500000000000000000e-01,-9.187500000000003553e+00,8.000000000000003553e+00,1.143750000000000355e+01,-1.018750000000000533e+01,-2.056250000000000711e+01,7.500000000000017764e-01,1.856250000000000711e+01,-4.062500000000003553e+00,-1.581250000000000711e+01,1.075000000000000711e+01,1.506250000000000711e+01,-7.437500000000003553e+00,-1.687500000000000711e+01,-5.000000000000000000e-01,2.525000000000001066e+01,1.356250000000000533e+01,-1.787500000000000711e+01,-1.275000000000000711e+01,4.062500000000001776e+00,5.500000000000002665e+00,2.875000000000001332e+00,-3.875000000000001332e+00,-2.437500000000000888e+00,2.875000000000001332e+00,-5.000000000000002220e-01,7.000000000000002665e+00,9.687500000000003553e+00,-1.093750000000000711e+01,-1.793750000000000711e+01,1.250000000000001776e+00,1.856250000000000711e+01,1.243750000000000533e+01,-4.500000000000002665e+00,-2.187500000000001332e+00,-2.250000000000001332e+00,-2.200000000000001066e+01,-1.362500000000000533e+01,1.662500000000000711e+01,8.437500000000005329e+00,-9.812500000000003553e+00,7.250000000000000888e+00,1.368750000000000355e+01,-4.187500000000001776e+00,-3.187500000000001332e+00,-1.125000000000000444e+00,-8.312500000000003553e+00,6.562500000000003553e+00,1.125000000000000533e+01,-9.125000000000003553e+00,-7.125000000000001776e+00,3.875000000000001776e+00,-7.750000000000002665e+00,-8.875000000000003553e+00,1.681250000000000711e+01,2.056250000000000711e+01,-5.687500000000001776e+00,-1.218750000000000533e+01,-4.687500000000002665e+00,-8.437500000000003553e+00,-4.625000000000001776e+00,8.125000000000003553e+00,1.168750000000000533e+01,1.937500000000000888e+00,-7.687500000000003553e+00,1.250000000000000888e+00,7.062500000000003553e+00,-5.187500000000003553e+00,-5.437500000000003553e+00,5.625000000000001776e+00,9.750000000000003553e+00,5.250000000000002665e+00,-1.193750000000000711e+01,-1.806250000000001066e+01,3.062500000000001776e+00,1.706250000000000711e+01,7.500000000000000000e-01,-1.800000000000000711e+01,-5.562500000000003553e+00,1.550000000000000711e+01,1.137500000000000533e+01,-3.437500000000001332e+00,-4.812500000000001776e+00,3.625000000000001776e+00,4.437500000000001776e+00,-4.687500000000002665e+00,-7.062500000000003553e+00,7.062500000000002665e+00,9.437500000000003553e+00,-8.937500000000003553e+00,-1.200000000000000533e+01,-4.812500000000001776e+00,2.750000000000001776e+00,1.818750000000001066e+01,7.437500000000004441e+00,-2.362500000000001066e+01,-1.612500000000000711e+01,1.881250000000000711e+01,2.181250000000000711e+01,-4.187500000000001776e+00,-1.087500000000000355e+01,1.687500000000000888e+00,1.187500000000000888e+00,-3.625000000000001332e+00,2.500000000000000000e-01,6.250000000000001110e-01,-3.125000000000000000e-01,-4.500000000000001776e+00,-7.437500000000003553e+00,8.562500000000003553e+00,1.100000000000000533e+01,-4.312500000000002665e+00,-9.375000000000008882e-01,-2.375000000000000888e+00,-5.625000000000002665e+00,6.187500000000003553e+00,-3.750000000000000000e-01,-1.106250000000000533e+01,-1.500000000000000000e+00,3.437500000000001776e+00,1.500000000000000444e+00,3.562500000000001332e+00,-1.500000000000000888e+00,-4.000000000000001776e+00,9.437500000000005329e+00,1.118750000000000711e+01,-3.375000000000001776e+00,-4.562500000000002665e+00,-6.437500000000002665e+00,-1.681250000000000711e+01,-3.312500000000000888e+00,1.737500000000000711e+01,1.087500000000000533e+01,-3.125000000000005551e-01,2.437500000000000888e+00,5.125000000000001776e+00,-4.312500000000002665e+00,-2.187500000000001066e+01,-1.593750000000000711e+01,1.037500000000000355e+01,1.031250000000000355e+01,-7.562500000000003553e+00,6.625000000000003553e+00,3.787500000000002132e+01,1.481250000000001066e+01,-3.668750000000001421e+01,-3.062500000000001421e+01,1.062500000000000000e+00,7.562500000000003553e+00,1.506250000000000888e+01,1.331250000000000711e+01,-1.450000000000000711e+01,-1.743750000000000711e+01,1.318750000000000711e+01,1.131250000000000533e+01,-1.387500000000000711e+01,1.068750000000000178e+01,2.900000000000001066e+01,-1.850000000000001066e+01,-3.537500000000001421e+01,-1.562500000000000000e+00,1.231250000000000533e+01,7.687500000000002665e+00,1.250000000000000222e+00,1.250000000000002220e-01,-8.750000000000004441e-01,-5.250000000000002665e+00,2.312500000000001332e+00,4.750000000000002665e+00,-1.937500000000001332e+00,1.500000000000000888e+00,5.000000000000008882e-01,-9.375000000000003553e+00,-1.043750000000000533e+01,-2.062500000000000888e+00,1.031250000000000355e+01,2.187500000000001066e+01,1.212500000000000711e+01,-1.200000000000000355e+01,-7.000000000000000888e+00,9.312500000000005329e+00,-2.437500000000000888e+00,-6.437500000000003553e+00,1.175000000000000355e+01,8.312500000000003553e+00,-8.312500000000003553e+00,-5.750000000000002665e+00,8.750000000000006661e-01,-2.187500000000001332e+00,-1.206250000000000533e+01,-2.418750000000001066e+01,-2.412500000000001066e+01,-3.375000000000000000e+00,1.650000000000000711e+01,1.087500000000000533e+01,1.750000000000000444e+00,1.068750000000000355e+01,1.200000000000000533e+01,-5.125000000000001776e+00,-7.562500000000003553e+00,2.937500000000001332e+00,-1.193750000000000533e+01,-2.968750000000001421e+01,-1.200000000000000711e+01,1.781250000000000711e+01,2.831250000000001421e+01,1.637500000000000711e+01,2.625000000000001332e+00,4.812500000000001776e+00,3.125000000000000000e-01,-1.806250000000000711e+01,-9.875000000000005329e+00,1.293750000000000533e+01,2.812500000000000000e+00,-1.093750000000000533e+01,8.750000000000008882e-01,9.375000000000003553e+00,9.687500000000003553e+00,3.500000000000001776e+00,-1.437500000000000711e+01,-1.643750000000001066e+01,6.562500000000000888e+00,2.031250000000000711e+01,9.000000000000005329e+00,-3.187500000000001776e+00,-2.937500000000001332e+00,4.375000000000001776e+00,1.362500000000000533e+01,8.500000000000003553e+00,-1.268750000000000533e+01,-2.131250000000000711e+01,-1.750000000000000000e+00,1.512500000000000711e+01,4.687500000000001776e+00,-1.250000000000000533e+01,-2.225000000000000711e+01,-1.725000000000000711e+01,4.875000000000001776e+00,1.537500000000000711e+01,8.500000000000003553e+00,1.718750000000000711e+01,3.831250000000001421e+01,2.356250000000000711e+01,-1.962500000000000711e+01,-2.587500000000001066e+01,-3.125000000000017764e-01,6.437500000000001776e+00,-4.687500000000001776e+00,-3.250000000000001332e+00,6.812500000000001776e+00,-7.250000000000001776e+00,-2.006250000000000711e+01,4.187500000000001776e+00,2.343750000000000711e+01,3.875000000000000000e+00,-2.137500000000001066e+01,-1.212500000000000711e+01,4.750000000000001776e+00,-8.687500000000003553e+00,-1.531250000000000711e+01,-5.000000000000000000e-01,7.312500000000003553e+00,5.375000000000002665e+00,-6.750000000000002665e+00,-1.525000000000000711e+01,-3.187500000000001776e+00,1.218750000000000533e+01,9.812500000000003553e+00,3.812500000000001332e+00,7.000000000000003553e+00,2.125000000000001776e+00,-5.875000000000002665e+00,-9.562500000000005329e+00,-8.375000000000003553e+00,5.500000000000002665e+00,7.375000000000003553e+00,-3.687500000000001776e+00,-2.937500000000001776e+00,-6.875000000000001110e-01,-8.187500000000003553e+00,-1.306250000000000533e+01,-7.500000000000008882e-01,9.000000000000003553e+00,6.249999999999991118e-01,-2.500000000000001776e+00,6.187500000000002665e+00,1.175000000000000711e+01,8.437500000000003553e+00,2.312500000000000888e+00,6.250000000000001388e-02,1.250000000000000278e-01,3.125000000000001110e-01,4.375000000000002220e-01,6.250000000000005551e-02,-1.875000000000000833e-01,6.250000000000002776e-02,3.125000000000001665e-01,1.875000000000001110e-01,-3.125000000000001665e-01,-3.125000000000001665e-01,2.500000000000001110e-01,2.500000000000001110e-01,-6.250000000000002776e-02,-6.250000000000002776e-02,0.000000000000000000e+00,6.250000000000002776e-02,1.875000000000000833e-01,1.250000000000000555e-01,-1.875000000000001110e-01,-3.125000000000001665e-01,-6.250000000000002776e-02,6.250000000000002776e-02,-6.250000000000002776e-02,6.250000000000002776e-02,1.875000000000000833e-01,-6.250000000000002776e-02,-6.250000000000002776e-02,1.875000000000000833e-01,6.250000000000002776e-02,6.250000000000005551e-02,3.125000000000002220e-01,-1.875000000000001110e-01,-6.875000000000004441e-01,0.000000000000000000e+00,4.375000000000002220e-01,-1.250000000000000555e-01,-2.500000000000001110e-01,2.500000000000001110e-01,3.750000000000001665e-01,1.250000000000000555e-01,-6.250000000000002776e-02,1.387778780781445676e-17,5.625000000000002220e-01,3.000000000000000888e+00,6.812500000000002665e+00,6.187500000000002665e+00,1.812500000000000888e+00,3.312500000000001776e+00,1.300000000000000711e+01,1.431250000000000711e+01,-1.043750000000000355e+01,-3.056250000000001421e+01,-6.562500000000003553e+00,1.881250000000000711e+01,1.750000000000000000e+00,-8.937500000000003553e+00,4.625000000000001776e+00,-3.375000000000001776e+00,-8.437500000000003553e+00,1.056250000000000355e+01,8.312500000000003553e+00,-3.750000000000000888e+00,-1.625000000000000444e+00,-6.250000000000088818e-02,-1.250000000000009159e-01,-5.312500000000001776e+00,6.250000000000008882e-01,1.656250000000000711e+01,-1.500000000000001776e+00,-2.568750000000001066e+01,-4.625000000000001776e+00,1.800000000000000711e+01,2.062500000000000000e+00,-1.168750000000000711e+01,5.624999999999991118e-01,1.587500000000000533e+01,1.068750000000000355e+01,-1.181250000000000533e+01,-1.225000000000000533e+01,7.000000000000003553e+00,4.250000000000001776e+00,-1.343750000000000711e+01,-1.681250000000000711e+01,1.062500000000000000e+00,1.693750000000000711e+01,8.937500000000003553e+00,-2.187500000000000444e+00,-4.750000000000001776e+00,-4.500000000000002665e+00,2.937500000000000888e+00,3.375000000000001776e+00,-1.125000000000000222e+00,4.812500000000002665e+00,6.187500000000002665e+00,-7.500000000000003553e+00,-1.550000000000000711e+01,-8.124999999999991118e-01,1.050000000000000533e+01,7.500000000000003553e+00,1.500000000000000888e+00,-9.937500000000003553e+00,-6.312500000000002665e+00,5.687500000000002665e+00,3.625000000000001776e+00,3.125000000000001332e+00,1.750000000000000666e+00,-8.562500000000003553e+00,-1.318750000000000711e+01,-1.125000000000000888e+00,1.081250000000000533e+01,3.812500000000002665e+00,-4.875000000000001776e+00,-4.000000000000001776e+00,-9.375000000000002220e-01,1.562500000000000666e+00,6.875000000000002220e-01,-1.000000000000000444e+00,-4.375000000000002220e-01,-6.250000000000002776e-02,-2.500000000000001110e-01,-6.250000000000002776e-02,1.250000000000000555e-01,6.250000000000002776e-02,-6.250000000000002776e-02,-1.250000000000000555e-01,6.250000000000002776e-02,3.125000000000001665e-01,1.250000000000000833e-01,-3.125000000000001110e-01,-2.500000000000001110e-01,2.500000000000001110e-01,3.125000000000001110e-01,-1.250000000000000833e-01,-3.125000000000001665e-01,-1.250000000000000555e-01,0.000000000000000000e+00,1.875000000000001110e-01,3.750000000000002220e-01,0.000000000000000000e+00,-3.750000000000002220e-01,-1.250000000000000833e-01,1.250000000000000555e-01,6.250000000000002776e-02,0.000000000000000000e+00,-6.250000000000002776e-02,-1.250000000000000555e-01,6.250000000000002776e-02,2.500000000000001110e-01,1.250000000000000555e-01,0.000000000000000000e+00,-1.250000000000000555e-01,-2.500000000000001110e-01,-6.250000000000002776e-02,6.250000000000002776e-02,-6.250000000000002776e-02,6.250000000000002776e-02,2.500000000000001110e-01,6.250000000000002776e-02,-1.250000000000000555e-01,-6.250000000000002776e-02,0.000000000000000000e+00,-3.125000000000001110e-01,-4.062500000000001776e+00,-9.875000000000005329e+00,-5.125000000000002665e+00,8.750000000000003553e+00,1.318750000000000533e+01,3.062500000000000888e+00,-8.625000000000003553e+00,-4.812500000000002665e+00,2.250000000000001332e+00,-5.187500000000001776e+00,-9.562500000000005329e+00,-6.437500000000003553e+00,4.250000000000001776e+00,1.793750000000000711e+01,8.125000000000000000e-01,-2.018750000000000711e+01,2.562500000000003553e+00,2.287500000000001066e+01,-1.875000000000017764e-01,-1.262500000000000711e+01,8.437500000000003553e+00,4.625000000000001776e+00,-1.556250000000000711e+01,-4.125000000000000888e+00,7.750000000000003553e+00,6.187500000000001776e+00,7.687500000000003553e+00,-8.750000000000003553e+00,-1.968750000000000711e+01,4.500000000000000000e+00,1.631250000000000711e+01,-3.750000000000000000e-01,-2.812500000000001776e+00,3.750000000000001776e+00,-2.250000000000000888e+00,-1.750000000000000888e+00,-2.625000000000001776e+00,-6.687500000000003553e+00,1.025000000000000711e+01,1.350000000000000711e+01,-7.437500000000003553e+00,-4.812500000000001776e+00,2.250000000000001776e+00,-1.118750000000000355e+01,-3.875000000000001776e+00,1.812500000000000711e+01,9.062500000000005329e+00,-1.706250000000000711e+01,-1.331250000000000711e+01,1.706250000000000711e+01,2.025000000000000711e+01,-9.875000000000005329e+00,-2.156250000000001066e+01,-3.000000000000000888e+00,5.625000000000002665e+00,3.250000000000000888e+00,1.050000000000000355e+01,1.250000000000000000e-01,-1.256250000000000711e+01,7.562500000000004441e+00,1.443750000000000711e+01,-1.106250000000000711e+01,-2.225000000000001066e+01,-4.500000000000000888e+00,1.256250000000000711e+01,8.312500000000003553e+00,1.812500000000000888e+00,5.250000000000002665e+00,-7.500000000000000000e-01,-2.937500000000000888e+00,9.437500000000003553e+00,0.000000000000000000e+00,-1.400000000000000711e+01,1.875000000000000000e+00,5.187500000000002665e+00,-7.750000000000002665e+00,3.375000000000001776e+00,1.137500000000000533e+01,-2.187500000000000888e+00,-9.562500000000003553e+00,-1.562500000000000444e+00,5.500000000000002665e+00,-1.312500000000000444e+00,8.750000000000000000e-01,8.312500000000003553e+00,-4.687500000000001776e+00,-7.000000000000002665e+00,6.687500000000003553e+00,8.125000000000000000e-01,-1.462500000000000711e+01,-1.181250000000000355e+01,7.187500000000003553e+00,1.612500000000000711e+01,6.937500000000003553e+00,3.687500000000001332e+00,1.000000000000000444e+00,-1.350000000000000355e+01,-4.812500000000000888e+00,1.387500000000000711e+01,-1.750000000000000000e+00,-1.125000000000000355e+01,5.062500000000002665e+00,-1.250000000000000000e+00,-1.181250000000000533e+01,7.125000000000003553e+00,8.875000000000003553e+00,-7.187500000000002665e+00,2.562500000000001776e+00,5.625000000000001776e+00,-5.250000000000003553e+00,5.812500000000001776e+00,9.125000000000003553e+00,-1.062500000000000355e+01,-7.750000000000001776e+00,1.143750000000000533e+01,4.000000000000001776e+00,-6.625000000000002665e+00,-5.000000000000002220e-01,-5.562500000000002665e+00,-1.412500000000000711e+01,-1.375000000000001776e+00,1.387500000000000533e+01,7.812500000000003553e+00,-1.187500000000000444e+00,-2.750000000000001332e+00,-1.437500000000000444e+00,1.125000000000000355e+01,7.812500000000001776e+00,-1.843750000000000711e+01,-1.587500000000000711e+01,1.287500000000000711e+01,1.775000000000001066e+01,-3.187500000000000888e+00,-8.125000000000003553e+00,7.312500000000002665e+00,7.312500000000003553e+00,-4.687500000000001776e+00,-1.075000000000000533e+01,-1.525000000000000711e+01,-9.000000000000003553e+00,1.293750000000000711e+01,2.318750000000001421e+01,3.937500000000002665e+00,-1.025000000000000533e+01,2.000000000000000000e+00,4.937500000000001776e+00,-4.625000000000001776e+00,-4.437500000000001776e+00,-9.562500000000003553e+00,-1.687500000000000711e+01,-3.625000000000000888e+00,1.675000000000001066e+01,2.181250000000001066e+01,5.687500000000001776e+00,-1.368750000000000533e+01,-4.687500000000001776e+00,1.137500000000000533e+01,1.937500000000001776e+00,-8.625000000000003553e+00,-7.687500000000003553e+00,-8.750000000000003553e+00,-3.062500000000000444e+00,1.050000000000000533e+01,1.456250000000000711e+01,6.000000000000002665e+00,-7.875000000000003553e+00,-7.437500000000003553e+00,5.437500000000002665e+00,2.125000000000001332e+00,-9.875000000000005329e+00,-1.093750000000000533e+01,1.812500000000001776e+00,1.643750000000000711e+01,1.050000000000000355e+01,-1.087500000000000355e+01,-1.656250000000000711e+01,5.000000000000000000e-01,6.875000000000003553e+00,-2.062500000000000888e+00,-8.125000000000004441e-01,3.875000000000001776e+00,8.062500000000003553e+00,1.250000000000000711e+01,-1.937500000000000000e+00,-1.843750000000000711e+01,-6.312500000000003553e+00,6.125000000000002665e+00,-1.187500000000000888e+00,-3.500000000000001776e+00,6.000000000000003553e+00,1.475000000000000711e+01,1.687500000000000000e+00,-1.687500000000000711e+01,-4.125000000000000888e+00,8.562500000000003553e+00,3.312500000000001332e+00,-1.250000000000000444e+00,-1.031250000000000355e+01,-7.187500000000002665e+00,7.125000000000002665e+00,1.168750000000000355e+01,8.937500000000003553e+00,-9.812500000000005329e+00,-1.850000000000001066e+01,4.437500000000000888e+00,1.131250000000000355e+01,-3.625000000000001332e+00,-3.687500000000001332e+00,8.500000000000003553e+00,1.162500000000000533e+01,-7.125000000000001776e+00,-1.918750000000000711e+01,4.812500000000003553e+00,2.131250000000001066e+01,-3.250000000000001776e+00,-1.887500000000000711e+01,2.500000000000000000e+00,8.437500000000003553e+00,-7.750000000000003553e+00,2.000000000000000000e+00,1.412500000000000533e+01,-1.312500000000000888e+00,-8.625000000000003553e+00,-3.250000000000000888e+00,-5.500000000000001776e+00,-4.125000000000001776e+00,5.375000000000002665e+00,1.262500000000000711e+01,2.437500000000001776e+00,-1.581250000000000533e+01,-5.000000000000000888e+00,1.462500000000000711e+01,6.875000000000000000e-01,-1.125000000000000533e+01,4.937500000000001776e+00,5.125000000000001776e+00,-5.500000000000003553e+00,7.687500000000003553e+00,7.812500000000004441e+00,-1.368750000000000711e+01,-7.625000000000003553e+00,9.562500000000003553e+00,4.250000000000000888e+00,-2.437500000000000888e+00,-4.625000000000001776e+00,-1.625000000000000888e+00,7.562500000000003553e+00,3.187500000000001776e+00,-4.687500000000001776e+00,-5.625000000000001776e+00,-5.125000000000001776e+00,1.062500000000000444e+00,9.187500000000005329e+00,1.043750000000000533e+01,1.812500000000000888e+00,-9.687500000000003553e+00,-1.706250000000000711e+01,-9.375000000000003553e+00,1.325000000000000711e+01,1.831250000000001066e+01,-1.875000000000000888e+00,-9.312500000000005329e+00,4.250000000000002665e+00,7.000000000000003553e+00,-2.125000000000000888e+00,-1.075000000000000533e+01,-1.218750000000000533e+01,3.187500000000001776e+00,1.381250000000000711e+01,9.687500000000005329e+00,-1.375000000000000444e+00,-1.350000000000000533e+01,-5.000000000000001776e+00,4.312500000000001776e+00,-3.750000000000001110e-01,4.937500000000002665e+00,1.687500000000000888e+00,-9.937500000000003553e+00,2.437500000000001776e+00,1.518750000000000711e+01,2.500000000000000000e-01,-9.312500000000003553e+00,4.375000000000002665e+00,-6.875000000000000000e-01,-1.375000000000000711e+01,6.000000000000003553e+00,1.175000000000000711e+01,-1.268750000000000711e+01,-1.125000000000000711e+01,6.812500000000001776e+00,1.281250000000000355e+01,1.156250000000000355e+01,-3.750000000000001776e+00,-1.237500000000000533e+01,3.187500000000001776e+00,6.125000000000003553e+00,-9.500000000000003553e+00,-5.562500000000002665e+00,6.062500000000002665e+00,-1.750000000000000000e+00,-4.312500000000001776e+00,8.125000000000003331e-01,6.875000000000003331e-01,4.937500000000001776e+00,-1.250000000000000000e+00,-6.750000000000002665e+00,1.056250000000000533e+01,1.006250000000000355e+01,-1.156250000000000711e+01,-8.000000000000003553e+00,1.937500000000000888e+00,1.812500000000000666e+00,1.431250000000000711e+01,1.231250000000000711e+01,-1.625000000000000711e+01,-2.775000000000001066e+01,-6.000000000000000888e+00,1.762500000000000711e+01,1.312500000000000355e+01,2.687500000000001332e+00,7.437500000000003553e+00,2.937500000000000888e+00,-1.118750000000000533e+01,-1.093750000000000533e+01,-5.687500000000001776e+00,-2.125000000000000444e+00,1.243750000000000533e+01,1.043750000000000533e+01,-1.218750000000000533e+01,-3.375000000000001776e+00,1.425000000000000711e+01,-2.125000000000000000e+00,-9.312500000000003553e+00,3.875000000000001776e+00,7.500000000000000000e-01,-1.100000000000000355e+01,-5.937500000000001776e+00,1.637500000000000711e+01,1.650000000000000711e+01,-1.512500000000000711e+01,-1.956250000000000711e+01,3.562500000000002220e+00,7.312500000000003553e+00,2.812500000000001332e+00,3.500000000000001776e+00,5.750000000000002665e+00,5.937500000000002665e+00,-1.150000000000000711e+01,-1.937500000000001066e+01,1.625000000000000000e+00,1.350000000000000711e+01,1.331250000000000711e+01,6.562500000000002665e+00,-1.681250000000000711e+01,-1.943750000000000711e+01,3.750000000000001776e+00,1.293750000000000711e+01,9.562500000000003553e+00,5.625000000000000000e-01,2.281250000000001421e+01,8.237500000000004263e+01,4.943750000000002132e+01
-1.277500000000000284e+02,2.600000000000000711e+01,1.250000000000000000e+00,-1.200000000000000178e+01,2.500000000000000555e-01,0.000000000000000000e+00,0.000000000000000000e+00,0.000000000000000000e+00,0.000000000000000000e+00,0.000000000000000000e+00,0.000000000000000000e+00,0.000000000000000000e+00,0.000000000000000000e+00,0.000000000000000000e+00,-2.500000000000000555e-01,5.000000000000001110e-01,-2.500000000000000555e-01,-2.500000000000000555e-01,-2.650000000000000711e+01,5.350000000000001421e+01,-4.075000000000001421e+01,1.025000000000000355e+01,2.125000000000000355e+01,-1.850000000000000355e+01,-4.450000000000000711e+01,6.650000000000001421e+01,-1.825000000000000355e+01,-2.500000000000000000e-01,-3.750000000000000888e+00,-4.825000000000001421e+01,9.225000000000002842e+01,-2.150000000000000355e+01,-6.250000000000001421e+01,3.675000000000000711e+01,1.450000000000000355e+01,-4.825000000000000711e+01,4.775000000000000711e+01,-2.325000000000000711e+01,1.325000000000000355e+01,-1.150000000000000355e+01,9.250000000000003553e+00,5.000000000000000000e-01,1.250000000000000178e+01,-3.600000000000000711e+01,6.000000000000001421e+01,-2.900000000000000711e+01,-2.050000000000000355e+01,1.375000000000000355e+01,2.500000000000000888e+00,1.225000000000000355e+01,-1.950000000000000711e+01,-1.025000000000000178e+01,2.650000000000000711e+01,-1.100000000000000178e+01,4.500000000000000888e+00,-1.550000000000000355e+01,1.175000000000000355e+01,2.075000000000000355e+01,-1.925000000000000355e+01,-1.875000000000000355e+01,2.000000000000000355e+01,7.500000000000001776e+00,-1.700000000000000355e+01,5.000000000000000000e-01,1.400000000000000355e+01,-3.500000000000000888e+00,-1.650000000000000355e+01,1.425000000000000355e+01,-8.250000000000001776e+00,1.000000000000000355e+01,-1.250000000000000444e+00,9.500000000000001776e+00,-3.000000000000000000e+00,-1.550000000000000355e+01,2.150000000000000711e+01,-2.575000000000000711e+01,2.500000000000000711e+01,-2.350000000000000711e+01,3.000000000000000711e+01,-2.900000000000000711e+01,8.500000000000001776e+00,1.250000000000000355e+01,-1.850000000000000711e+01,8.500000000000001776e+00,0.000000000000000000e+00,4.250000000000001776e+00,-2.500000000000000000e-01,-9.250000000000001776e+00,-5.250000000000001776e+00,-8.000000000000001776e+00,1.475000000000000355e+01,-4.025000000000000711e+01,4.225000000000000711e+01,-3.250000000000000888e+00,-3.225000000000000711e+01,-5.250000000000000000e+00,4.250000000000000711e+01,-7.500000000000001776e+00,-2.275000000000000711e+01,3.050000000000000711e+01,-1.150000000000000178e+01,-9.250000000000001776e+00,1.075000000000000178e+01,7.250000000000001776e+00,-5.000000000000001110e-01,2.500000000000000555e-01,2.500000000000000555e-01,-2.500000000000000555e-01,2.500000000000000555e-01,0.000000000000000000e+00,0.000000000000000000e+00,-2.500000000000000555e-01,0.000000000000000000e+00,7.500000000000002220e-01,-5.000000000000001110e-01,-2.500000000000000555e-01,5.000000000000001110e-01,-5.000000000000001110e-01,5.000000000000001110e-01,-7.500000000000002220e-01,1.000000000000000222e+00,-7.500000000000002220e-01,2.500000000000000555e-01,0.000000000000000000e+00,-5.000000000000001110e-01,1.000000000000000222e+00,-5.000000000000001110e-01,0.000000000000000000e+00,0.000000000000000000e+00,0.000000000000000000e+00,0.000000000000000000e+00,-2.500000000000000555e-01,5.000000000000001110e-01,0.000000000000000000e+00,-5.000000000000001110e-01,2.500000000000000555e-01,5.000000000000001110e-01,-2.500000000000000555e-01,7.500000000000002220e-01,8.250000000000001776e+00,-1.000000000000000178e+01,6.000000000000000888e+00,3.125000000000000711e+01,-4.125000000000000711e+01,4.250000000000000888e+00,9.750000000000001776e+00,-1.775000000000000355e+01,1.700000000000000355e+01,-1.800000000000000355e+01,9.250000000000001776e+00,4.000000000000000888e+00,-1.725000000000000355e+01,1.725000000000000355e+01,9.500000000000003553e+00,-8.750000000000003553e+00,-5.000000000000000000e-01,6.250000000000000888e+00,-2.275000000000000711e+01,3.450000000000000711e+01,-3.150000000000000711e+01,8.750000000000001776e+00,1.250000000000000178e+01,-1.400000000000000178e+01,5.750000000000001776e+00,-3.750000000000000888e+00,1.125000000000000178e+01,-7.000000000000000888e+00,-1.525000000000000355e+01,1.350000000000000178e+01,6.750000000000001776e+00,-2.625000000000000711e+01,4.625000000000001421e+01,-2.700000000000000711e+01,1.750000000000000444e+00,-1.400000000000000355e+01,1.000000000000000178e+01,2.500000000000000555e-01,-3.000000000000000888e+00,1.500000000000000355e+01,-5.500000000000001776e+00,-1.500000000000000355e+01,4.500000000000000888e+00,2.300000000000000355e+01,-2.875000000000000711e+01,1.000000000000000000e+00,1.450000000000000355e+01,2.250000000000000888e+00,-2.150000000000000711e+01,1.450000000000000355e+01,1.075000000000000178e+01,-1.425000000000000178e+01,1.750000000000000222e+00,-1.975000000000000355e+01,3.250000000000000711e+01,-1.250000000000001776e+00,-3.850000000000000711e+01,3.500000000000000711e+01,2.500000000000000000e-01,-1.275000000000000355e+01,8.250000000000001776e+00,-2.225000000000000355e+01,2.275000000000000355e+01,2.025000000000000355e+01,-3.575000000000000711e+01,7.000000000000002665e+00,1.125000000000000355e+01,-1.525000000000000355e+01,1.750000000000000355e+01,-8.500000000000001776e+00,-9.750000000000001776e+00,1.975000000000000355e+01,-1.375000000000000355e+01,-4.500000000000000888e+00,2.925000000000000711e+01,-2.675000000000000355e+01,2.000000000000000000e+00,-3.750000000000000888e+00,9.000000000000001776e+00,1.025000000000000178e+01,-7.750000000000000888e+00,-1.300000000000000355e+01,3.050000000000000711e+01,-3.200000000000000711e+01,-4.250000000000001776e+00,1.200000000000000355e+01,2.050000000000000355e+01,-3.850000000000000711e+01,2.100000000000000355e+01,1.375000000000000355e+01,-1.850000000000000355e+01,7.500000000000000000e-01,1.525000000000000355e+01,-1.800000000000000355e+01,-8.500000000000001776e+00,4.700000000000001421e+01,-5.400000000000001421e+01,3.100000000000000711e+01,-1.600000000000000355e+01,1.850000000000000355e+01,-3.250000000000000711e+01,2.100000000000000355e+01,1.750000000000000355e+01,-1.725000000000000355e+01,-5.250000000000000888e+00,1.075000000000000178e+01,-8.750000000000001776e+00,-1.000000000000000355e+01,2.100000000000000711e+01,-1.825000000000000355e+01,2.825000000000000711e+01,-3.075000000000000711e+01,1.325000000000000355e+01,6.000000000000001776e+00,-3.750000000000001332e+00,-1.500000000000000355e+01,2.450000000000000711e+01,-2.075000000000000711e+01,2.225000000000000711e+01,-8.500000000000003553e+00,-2.000000000000000355e+01,1.500000000000000355e+01,-5.000000000000001110e-01,1.275000000000000355e+01,-1.975000000000000711e+01,-7.500000000000001776e+00,2.600000000000000711e+01,-1.500000000000000355e+01,1.575000000000000355e+01,-2.400000000000000711e+01,2.175000000000000711e+01,-1.025000000000000178e+01,5.250000000000000888e+00,-4.750000000000000888e+00,-1.200000000000000355e+01,3.750000000000001421e+01,-3.600000000000000711e+01,9.500000000000001776e+00,4.250000000000000888e+00,-1.550000000000000355e+01,1.525000000000000355e+01,1.650000000000000355e+01,-2.700000000000000711e+01,-6.750000000000001776e+00,1.325000000000000355e+01,1.450000000000000355e+01,-8.250000000000003553e+00,-1.300000000000000355e+01,1.350000000000000355e+01,-1.000000000000000000e+00,-1.000000000000000178e+01,9.750000000000001776e+00,-3.000000000000000444e+00,-4.500000000000001776e+00,9.500000000000003553e+00,-1.000000000000000355e+01,-1.400000000000000355e+01,5.275000000000001421e+01,-6.225000000000001421e+01,4.250000000000001421e+01,-1.075000000000000355e+01,-1.950000000000000355e+01,2.525000000000000711e+01,-6.000000000000000888e+00,-1.400000000000000355e+01,9.000000000000001776e+00,2.500000000000000444e+00,-8.000000000000001776e+00,8.750000000000001776e+00,0.000000000000000000e+00,-8.750000000000001776e+00,2.000000000000000888e+00,1.975000000000000355e+01,-1.825000000000000355e+01,0.000000000000000000e+00,1.500000000000000355e+01,-2.500000000000000711e+01,2.500000000000001776e+00,1.275000000000000178e+01,5.750000000000001776e+00,-1.500000000000000355e+01,1.550000000000000355e+01,-9.000000000000001776e+00,7.000000000000001776e+00,-5.000000000000000000e-01,-3.675000000000000711e+01,4.350000000000001421e+01,-2.225000000000000711e+01,1.700000000000000355e+01,-3.050000000000000711e+01,3.525000000000000711e+01,2.275000000000000355e+01,-4.600000000000000711e+01,-3.750000000000001776e+00,1.800000000000000355e+01,-1.075000000000000355e+01,2.500000000000000000e-01,2.550000000000000711e+01,-1.825000000000000355e+01,-1.700000000000000355e+01,1.725000000000000355e+01,1.075000000000000178e+01,-7.500000000000000888e+00,-4.125000000000000711e+01,9.425000000000002842e+01,-6.750000000000001421e+01,-7.000000000000001776e+00,2.325000000000000355e+01,-1.675000000000000355e+01,1.675000000000000355e+01,-3.250000000000000444e+00,-1.300000000000000178e+01,2.625000000000000711e+01,-3.025000000000000711e+01,1.525000000000000355e+01,7.500000000000001776e+00,-1.750000000000000355e+01,1.325000000000000355e+01,-1.000000000000000000e+00,-7.000000000000001776e+00,5.000000000000000000e-01,-6.750000000000000888e+00,1.125000000000000178e+01,-7.750000000000001776e+00,3.125000000000000711e+01,-2.925000000000000711e+01,-2.250000000000000888e+00,1.925000000000000711e+01,-5.750000000000001776e+00,-1.700000000000000355e+01,1.800000000000000355e+01,8.000000000000001776e+00,-1.925000000000000355e+01,7.250000000000001776e+00,3.250000000000000888e+00,-1.050000000000000355e+01,1.625000000000000355e+01,-3.100000000000000711e+01,1.700000000000000355e+01,-3.325000000000000711e+01,4.225000000000000711e+01,-2.000000000000000711e+01,8.500000000000003553e+00,-6.250000000000000888e+00,1.875000000000000355e+01,-8.750000000000001776e+00,-1.300000000000000355e+01,1.525000000000000355e+01,3.000000000000000444e+00,-3.100000000000000711e+01,1.025000000000000355e+01,-1.000000000000000000e+00,1.550000000000000355e+01,5.250000000000000888e+00,-7.000000000000001776e+00,1.000000000000000444e+00,1.200000000000000178e+01,-1.200000000000000178e+01,-1.975000000000000355e+01,2.975000000000000711e+01,-4.000000000000000888e+00,-1.975000000000000355e+01,1.500000000000000355e+01,1.000000000000000222e+00,-7.500000000000001776e+00,2.125000000000000711e+01,-2.025000000000000711e+01,-3.500000000000000000e+00,5.000000000000000000e-01,1.300000000000000355e+01,5.500000000000000888e+00,-1.725000000000000355e+01,1.950000000000000355e+01,-2.225000000000000355e+01,2.375000000000000711e+01,-4.750000000000001776e+00,5.000000000000000000e-01,-1.225000000000000355e+01,-9.500000000000003553e+00,2.900000000000000711e+01,-1.750000000000000355e+01,6.750000000000001776e+00,-9.750000000000001776e+00,-1.050000000000000355e+01,2.000000000000000000e+00,1.825000000000000355e+01,-1.375000000000000355e+01,9.500000000000001776e+00,3.500000000000000888e+00,3.450000000000000711e+01,-3.000000000000000711e+01,-1.625000000000000355e+01,2.500000000000000711e+01,-2.050000000000000355e+01,2.575000000000000355e+01,-3.800000000000000711e+01,3.575000000000000711e+01,-1.050000000000000178e+01,-1.900000000000000355e+01,5.000000000000000888e+00,2.000000000000000355e+01,-6.750000000000001776e+00,-2.500000000000000000e-01,-2.800000000000000711e+01,3.500000000000000711e+01,-1.275000000000000355e+01,-2.775000000000000711e+01,4.075000000000001421e+01,-4.175000000000001421e+01,4.425000000000001421e+01,-3.250000000000000711e+01,1.225000000000000355e+01,-1.625000000000000355e+01,1.625000000000000355e+01,3.250000000000000888e+00,-9.000000000000001776e+00,7.000000000000001776e+00,1.200000000000000355e+01,-2.925000000000000711e+01,3.450000000000000711e+01,-4.100000000000000711e+01,2.375000000000000355e+01,8.750000000000001776e+00,-2.600000000000000711e+01,2.700000000000000711e+01,-2.550000000000000711e+01,2.350000000000000711e+01,-2.575000000000000711e+01,4.250000000000000000e+00,1.675000000000000355e+01,-1.600000000000000355e+01,8.250000000000003553e+00,-5.750000000000000888e+00,1.075000000000000178e+01,-7.500000000000002220e-01,2.500000000000000555e-01,0.000000000000000000e+00,0.000000000000000000e+00,0.000000000000000000e+00,2.500000000000000555e-01,2.500000000000000555e-01,-7.500000000000002220e-01,7.500000000000002220e-01,-5.000000000000001110e-01,5.000000000000001110e-01,0.000000000000000000e+00,-1.000000000000000222e+00,1.250000000000000444e+00,-7.500000000000002220e-01,5.000000000000001110e-01,-5.000000000000001110e-01,5.000000000000001110e-01,-5.000000000000001110e-01,5.000000000000001110e-01,-2.500000000000000555e-01,2.500000000000000555e-01,-5.000000000000001110e-01,2.500000000000000555e-01,0.000000000000000000e+00,0.000000000000000000e+00,-2.500000000000000555e-01,5.000000000000001110e-01,-2.500000000000000555e-01,-2.500000000000000555e-01,5.000000000000001110e-01,-2.500000000000000555e-01,0.000000000000000000e+00,0.000000000000000000e+00,7.500000000000002220e-01,-1.500000000000000444e+00,7.500000000000002220e-01,2.500000000000000555e-01,-2.500000000000000555e-01,-2.500000000000000555e-01,2.500000000000000555e-01,2.500000000000000555e-01,-2.500000000000000555e-01,2.500000000000000555e-01,-2.500000000000000555e-01,0.000000000000000000e+00,7.500000000000002220e-01,0.000000000000000000e+00,7.750000000000001776e+00,-6.750000000000001776e+00,4.500000000000001776e+00,-1.250000000000000888e+00,1.050000000000000355e+01,6.250000000000000000e+00,-3.025000000000000711e+01,1.000000000000000000e+00,1.975000000000000711e+01,3.500000000000000000e+00,-3.100000000000000711e+01,3.000000000000000711e+01,-3.500000000000001776e+00,-2.700000000000000711e+01,2.650000000000000711e+01,6.250000000000001776e+00,-3.025000000000000711e+01,3.775000000000001421e+01,-3.600000000000000711e+01,2.575000000000000711e+01,-8.000000000000001776e+00,-1.675000000000000355e+01,2.675000000000000711e+01,2.250000000000000000e+00,-2.825000000000000711e+01,3.250000000000000000e+00,1.800000000000000355e+01,7.500000000000017764e-01,-2.375000000000000711e+01,2.350000000000000711e+01,-1.925000000000000711e+01,3.250000000000000711e+01,-2.125000000000000711e+01,-1.375000000000000355e+01,2.450000000000000711e+01,-1.200000000000000355e+01,5.250000000000001776e+00,-1.625000000000000355e+01,3.250000000000000888e+00,8.250000000000001776e+00,1.150000000000000355e+01,-2.450000000000000711e+01,2.850000000000000711e+01,-3.000000000000000711e+01,1.650000000000000355e+01,6.500000000000000888e+00,-2.175000000000000355e+01,2.550000000000000711e+01,-1.850000000000000355e+01,2.075000000000000355e+01,-2.750000000000000711e+01,4.000000000000000888e+00,2.250000000000000355e+01,-2.800000000000000711e+01,3.050000000000000711e+01,-1.800000000000000355e+01,-1.550000000000000355e+01,3.625000000000000711e+01,-3.575000000000000711e+01,2.825000000000000711e+01,-1.350000000000000355e+01,3.750000000000000888e+00,-4.250000000000000888e+00,-1.400000000000000355e+01,2.725000000000000711e+01,-1.625000000000000355e+01,5.000000000000000888e+00,-2.250000000000000444e+00,-2.750000000000000444e+00,4.750000000000000888e+00,-2.250000000000000444e+00,0.000000000000000000e+00,0.000000000000000000e+00,2.500000000000000555e-01,-5.000000000000001110e-01,2.500000000000000555e-01,0.000000000000000000e+00,0.000000000000000000e+00,0.000000000000000000e+00,0.000000000000000000e+00,-2.500000000000000555e-01,5.000000000000001110e-01,-2.500000000000000555e-01,2.500000000000000555e-01,-7.500000000000002220e-01,7.500000000000002220e-01,-2.500000000000000555e-01,2.500000000000000555e-01,-5.000000000000001110e-01,2.500000000000000555e-01,0.000000000000000000e+00,-2.500000000000000555e-01,5.000000000000001110e-01,0.000000000000000000e+00,-5.000000000000001110e-01,2.500000000000000555e-01,0.000000000000000000e+00,0.000000000000000000e+00,0.000000000000000000e+00,0.000000000000000000e+00,0.000000000000000000e+00,-2.500000000000000555e-01,5.000000000000001110e-01,-2.500000000000000555e-01,0.000000000000000000e+00,2.500000000000000555e-01,-5.000000000000001110e-01,2.500000000000000555e-01,0.000000000000000000e+00,0.000000000000000000e+00,-2.500000000000000555e-01,5.000000000000001110e-01,-2.500000000000000555e-01,0.000000000000000000e+00,0.000000000000000000e+00,0.000000000000000000e+00,0.000000000000000000e+00,0.000000000000000000e+00,-1.250000000000000222e+00,-1.125000000000000355e+01,1.300000000000000355e+01,0.000000000000000000e+00,3.250000000000000888e+00,-1.000000000000000444e+00,-1.625000000000000355e+01,2.350000000000000711e+01,-1.500000000000000355e+01,-6.000000000000000888e+00,1.550000000000000355e+01,-2.775000000000000355e+01,3.125000000000000711e+01,2.500000000000000000e+00,-3.025000000000000711e+01,1.200000000000000178e+01,1.150000000000000355e+01,1.075000000000000355e+01,-3.825000000000000711e+01,2.975000000000000711e+01,5.500000000000000000e+00,-2.450000000000000711e+01,2.750000000000001776e+00,2.200000000000000355e+01,-2.850000000000000711e+01,2.650000000000000711e+01,-1.000000000000000000e+00,-3.225000000000000711e+01,2.250000000000000355e+01,2.250000000000000444e+00,4.000000000000000888e+00,-2.200000000000000355e+01,3.100000000000000711e+01,-2.150000000000000711e+01,-1.000000000000000000e+00,2.200000000000000711e+01,-3.400000000000000711e+01,1.900000000000000355e+01,1.425000000000000355e+01,-1.600000000000000355e+01,-9.500000000000003553e+00,2.825000000000000711e+01,-2.550000000000000711e+01,-4.500000000000001776e+00,2.275000000000000711e+01,-5.750000000000001776e+00,2.500000000000000444e+00,-2.575000000000000355e+01,2.000000000000000355e+01,1.700000000000000355e+01,-1.925000000000000355e+01,1.750000000000000222e+00,-1.900000000000000355e+01,3.925000000000000711e+01,-4.275000000000000711e+01,3.225000000000000711e+01,2.500000000000000000e+00,-2.975000000000000711e+01,1.825000000000000355e+01,1.300000000000000355e+01,-1.475000000000000355e+01,-4.500000000000001776e+00,-8.000000000000001776e+00,1.600000000000000355e+01,-1.250000000000000444e+00,-4.250000000000000888e+00,1.750000000000000444e+00,1.475000000000000355e+01,-3.025000000000000711e+01,2.675000000000000711e+01,2.000000000000000000e+00,-2.450000000000000711e+01,9.250000000000003553e+00,1.925000000000000355e+01,-2.900000000000000711e+01,8.750000000000003553e+00,2.175000000000000355e+01,-2.925000000000000711e+01,2.600000000000000711e+01,-3.300000000000000711e+01,3.300000000000000711e+01,-1.500000000000000355e+01,-1.000000000000000178e+01,2.575000000000000711e+01,-1.250000000000000355e+01,-1.625000000000000355e+01,2.825000000000000711e+01,-1.925000000000000355e+01,1.175000000000000355e+01,-2.500000000000000711e+01,1.975000000000000355e+01,-4.000000000000000888e+00,1.450000000000000355e+01,-2.350000000000000711e+01,3.100000000000000711e+01,-2.225000000000000355e+01,-1.350000000000000355e+01,3.300000000000000711e+01,-1.225000000000000355e+01,-1.725000000000000355e+01,1.700000000000000355e+01,6.500000000000000888e+00,-2.650000000000000711e+01,1.125000000000000355e+01,2.375000000000000355e+01,-3.450000000000000711e+01,1.250000000000000355e+01,2.200000000000000355e+01,-3.850000000000000711e+01,2.900000000000000711e+01,-6.500000000000001776e+00,7.250000000000001776e+00,-3.100000000000000711e+01,3.500000000000000711e+01,-7.500000000000001776e+00,-1.750000000000000355e+01,2.200000000000000355e+01,-1.450000000000000355e+01,1.500000000000000444e+00,-1.175000000000000355e+01,1.750000000000000355e+01,3.500000000000000888e+00,-1.800000000000000355e+01,2.400000000000000711e+01,-2.425000000000000711e+01,1.050000000000000178e+01,1.975000000000000355e+01,-2.400000000000000355e+01,-9.000000000000003553e+00,1.675000000000000355e+01,-2.500000000000000000e-01,1.200000000000000355e+01,-3.350000000000000711e+01,3.350000000000000711e+01,-1.325000000000000355e+01,3.250000000000000888e+00,-4.750000000000000888e+00,2.500000000000000555e-01,-1.525000000000000355e+01,1.425000000000000355e+01,2.250000000000000444e+00,1.800000000000000355e+01,-3.450000000000000711e+01,2.250000000000000711e+01,1.750000000000000000e+00,-1.400000000000000355e+01,9.750000000000001776e+00,-3.000000000000000444e+00,-1.000000000000000178e+01,-5.250000000000001776e+00,1.575000000000000355e+01,-3.000000000000000888e+00,1.550000000000000355e+01,-1.450000000000000355e+01,-1.600000000000000355e+01,3.725000000000000711e+01,-2.925000000000000711e+01,1.750000000000000355e+01,-1.975000000000000355e+01,1.925000000000000355e+01,-3.000000000000000711e+01,3.100000000000000711e+01,-1.350000000000000355e+01,1.075000000000000355e+01,2.250000000000000000e+00,-2.650000000000000711e+01,3.150000000000000711e+01,-1.650000000000000355e+01,2.500000000000000888e+00,-2.000000000000000444e+00,-1.200000000000000355e+01,2.275000000000000711e+01,-6.250000000000000888e+00,4.250000000000000888e+00,-1.650000000000000355e+01,-7.500000000000000000e-01,2.500000000000000711e+01,-3.175000000000000711e+01,2.400000000000000711e+01,-1.300000000000000355e+01,6.750000000000000888e+00,2.250000000000000888e+00,1.075000000000000355e+01,-2.050000000000000711e+01,-6.000000000000001776e+00,2.800000000000000711e+01,-3.000000000000000711e+01,2.100000000000000711e+01,-1.475000000000000355e+01,1.100000000000000355e+01,1.450000000000000355e+01,-2.700000000000000711e+01,-1.500000000000000000e+00,3.150000000000000711e+01,-4.000000000000000711e+01,3.825000000000000711e+01,-2.425000000000000355e+01,-9.000000000000003553e+00,2.725000000000000711e+01,-2.500000000000000711e+01,2.525000000000000711e+01,-4.250000000000001776e+00,-2.600000000000000711e+01,1.425000000000000355e+01,1.675000000000000355e+01,-2.650000000000000711e+01,1.975000000000000711e+01,-1.575000000000000355e+01,1.900000000000000355e+01,0.000000000000000000e+00,-2.425000000000000711e+01,8.250000000000003553e+00,1.675000000000000355e+01,-2.500000000000000000e-01,-2.300000000000000711e+01,5.250000000000001776e+00,2.575000000000000711e+01,-3.225000000000000711e+01,1.025000000000000355e+01,1.325000000000000355e+01,-3.250000000000000000e+00,-1.875000000000000711e+01,2.600000000000000711e+01,-2.625000000000000711e+01,1.425000000000000355e+01,-6.750000000000001776e+00,4.000000000000000888e+00,1.525000000000000355e+01,-2.175000000000000711e+01,-4.000000000000000000e+00,1.825000000000000355e+01,2.750000000000000000e+00,-2.425000000000000711e+01,1.425000000000000355e+01,1.425000000000000355e+01,-2.850000000000000711e+01,1.625000000000000355e+01,1.275000000000000355e+01,-1.800000000000000355e+01,-9.750000000000003553e+00,2.500000000000000711e+01,-1.275000000000000178e+01,-3.750000000000000888e+00,1.825000000000000355e+01,-3.425000000000000711e+01,3.675000000000000711e+01,-1.725000000000000355e+01,-2.500000000000000888e+00,1.350000000000000355e+01,-2.550000000000000711e+01,2.575000000000000711e+01,-2.200000000000000711e+01,2.625000000000000711e+01,-1.375000000000000355e+01,1.500000000000000444e+00,7.500000000000000000e-01,-2.200000000000000355e+01,2.300000000000000355e+01,-2.000000000000000444e+00,1.025000000000000355e+01,-2.575000000000000711e+01,1.900000000000000355e+01,2.250000000000000888e+00,-1.325000000000000355e+01,1.725000000000000355e+01,-2.600000000000000711e+01,8.250000000000001776e+00,1.850000000000000711e+01,-2.400000000000000711e+01,3.325000000000000711e+01,-3.250000000000000711e+01,2.500000000000000000e+00,2.200000000000000711e+01,-2.625000000000000711e+01,1.275000000000000355e+01,1.450000000000000355e+01,-3.175000000000000711e+01,2.200000000000000355e+01,-8.000000000000001776e+00,2.225000000000000355e+01,-3.650000000000000711e+01,2.350000000000000711e+01,6.750000000000001776e+00,-2.675000000000000711e+01,6.250000000000001776e+00,3.000000000000000711e+01,-3.325000000000000711e+01,1.750000000000000000e+00,1.550000000000000355e+01,-1.450000000000000355e+01,1.850000000000000355e+01,5.000000000000000000e-01,-2.425000000000000711e+01,1.950000000000000711e+01,-2.500000000000000888e+00,2.250000000000000000e+00,-2.325000000000000355e+01,3.200000000000000711e+01,-1.725000000000000355e+01,-8.000000000000001776e+00,2.375000000000000711e+01,-2.725000000000000711e+01,1.900000000000000355e+01,3.250000000000000888e+00,-2.200000000000000711e+01,1.475000000000000355e+01,1.400000000000000355e+01,-1.750000000000000355e+01,-1.075000000000000355e+01,3.100000000000000711e+01,-3.550000000000000711e+01,2.425000000000000711e+01,1.000000000000000178e+01,-1.725000000000000355e+01,-3.250000000000000888e+00,-1.275000000000000355e+01,1.850000000000000355e+01,8.750000000000001776e+00,-2.125000000000000355e+01,2.375000000000000711e+01,-1.025000000000000355e+01,4.500000000000001776e+00,-1.850000000000000355e+01,1.950000000000000355e+01,-1.850000000000000355e+01,3.750000000000000000e+00,2.800000000000000711e+01,-3.025000000000000711e+01,-1.750000000000000000e+00,2.400000000000000711e+01,-6.000000000000001776e+00,-2.575000000000000711e+01,3.625000000000000711e+01,-2.775000000000000711e+01,1.800000000000000355e+01,-2.175000000000000711e+01,9.750000000000003553e+00,2.350000000000000355e+01,-1.800000000000000355e+01,-2.025000000000000355e+01,2.475000000000000711e+01,-7.250000000000001776e+00,-6.250000000000001776e+00,1.900000000000000355e+01,-2.300000000000000355e+01,2.425000000000000711e+01,-5.750000000000001776e+00,-2.575000000000000711e+01,1.750000000000000355e+01,5.750000000000000888e+00,-1.275000000000000355e+01,2.625000000000000711e+01,-1.575000000000000355e+01,-2.300000000000000355e+01,2.700000000000000711e+01,-1.100000000000000355e+01,4.750000000000000888e+00,1.375000000000000355e+01,-2.825000000000000711e+01,2.475000000000000711e+01,1.020000000000000284e+02
