-3.141975000000004314e+01,-2.840412500000004314e+01,-2.584162500000004314e+01,-2.326350000000003959e+01,-2.126350000000003604e+01,-1.995100000000003249e+01,-2.016975000000003249e+01,-2.176350000000003604e+01,-2.201350000000003604e+01,-2.212287500000003604e+01,-2.377912500000003959e+01,-2.577912500000004314e+01,-2.854475000000004314e+01,-3.162287500000004314e+01,-3.279475000000004314e+01,-3.340412500000004314e+01,-3.618537500000004314e+01,-3.988850000000004314e+01,-4.124787500000004314e+01,-4.235725000000004314e+01,-4.132600000000004314e+01,-4.087287500000004314e+01,-4.232600000000004314e+01,-4.248225000000004314e+01,-4.102912500000004314e+01,-3.935725000000004314e+01,-3.871662500000004314e+01,-3.774787500000004314e+01,-3.898225000000004314e+01,-3.921662500000004314e+01,-3.710725000000004314e+01,-3.659162500000004314e+01,-3.623225000000004314e+01,-3.449787500000004314e+01,-3.290412500000004314e+01,-3.176350000000004314e+01,-2.909162500000004314e+01,-2.593537500000004314e+01,-2.431037500000003604e+01,-2.170100000000003604e+01,-1.954475000000003249e+01,-1.934162500000003249e+01,-1.945100000000003249e+01,-1.845100000000003249e+01,-1.813850000000003249e+01,-1.968537500000003604e+01,-2.082600000000003604e+01,-2.338850000000003959e+01,-2.488850000000004314e+01,-2.535725000000004314e+01,-2.645100000000004314e+01,-2.901350000000004314e+01,-3.054475000000004314e+01,-3.110725000000004314e+01,-3.241975000000004314e+01,-3.270100000000004314e+01,-3.395100000000004314e+01,-3.490412500000004314e+01,-3.437287500000004314e+01,-3.254475000000004314e+01,-3.170100000000004314e+01,-3.052912500000004314e+01,-2.816975000000004314e+01,-2.531037500000003959e+01,-2.145100000000003604e+01,-1.841975000000003249e+01,-1.498225000000003249e+01,-1.246662500000003071e+01,-8.451000000000027157e+00,-3.435375000000023604e+00,2.111499999999979948e+00,8.283374999999983501e+00,1.359587499999998528e+01,2.133024999999999238e+01,2.968962499999999949e+01,3.940837500000000659e+01,4.834587500000001370e+01,5.803337500000002080e+01,6.698650000000002080e+01,7.558025000000002080e+01,8.508025000000003502e+01,9.272087500000004923e+01,9.986150000000006344e+01,1.065177500000000634e+02,1.139865000000000634e+02,1.192365000000000634e+02,1.242365000000000634e+02,1.299396250000000634e+02,1.363146250000000634e+02,1.435802500000000634e+02,1.490802500000000634e+02,1.551896250000000634e+02,1.592365000000000634e+02,1.641427500000000634e+02,1.699083750000000634e+02,1.739708750000000634e+02,1.762365000000000634e+02,1.775958750000000634e+02,1.798146250000000634e+02,1.810490000000000634e+02,1.840490000000000634e+02,1.871271250000000634e+02,1.885490000000000919e+02,1.898458750000000919e+02,1.918458750000001203e+02,1.934865000000001487e+02,1.960958750000001487e+02,1.978615000000001487e+02,1.986427500000001487e+02,1.981115000000001487e+02,1.979240000000001487e+02,1.982833750000001487e+02,1.980177500000001487e+02,1.976583750000001487e+02,1.950646250000001487e+02,1.925021250000001487e+02,1.895333750000000919e+02,1.867208750000000919e+02,1.838771250000000919e+02,1.801271250000000634e+02,1.764240000000000634e+02,1.720646250000000634e+02,1.689240000000000634e+02,1.673302500000000634e+02,1.658927500000000634e+02,1.654240000000000634e+02,1.664552500000000634e+02,1.683771250000000634e+02,1.698302500000000634e+02,1.723458750000000634e+02,1.743927500000000634e+02,1.751427500000000634e+02,1.757208750000000634e+02,1.749708750000000634e+02,1.715958750000000634e+02,1.679083750000000634e+02,1.641740000000000634e+02,1.597365000000000634e+02,1.559240000000000634e+02,1.508146250000000634e+02,1.457677500000000634e+02,1.417365000000000634e+02,1.390490000000000634e+02,1.361115000000000634e+02,1.326427500000000634e+02,1.290958750000000634e+02,1.240177500000000634e+02,1.195490000000000634e+02,1.138146250000000634e+02,1.067990000000000634e+02,9.811150000000006344e+01,8.762712500000003502e+01,7.772087500000002080e+01,6.684587500000002080e+01,5.618962500000002080e+01,4.559587500000000659e+01,3.515837499999999949e+01,2.529899999999999238e+01,1.718962499999998883e+01,1.043962499999998528e+01,3.970874999999981281e+00,-1.091625000000022716e+00,-6.232250000000025381e+00,-1.027912500000002893e+01,-1.321662500000003071e+01,-1.637287500000003249e+01,-1.854475000000003249e+01,-1.848225000000003249e+01,-1.687287500000003249e+01,-1.238850000000003071e+01,-4.794750000000025381e+00,3.314624999999980393e+00,1.362712499999998528e+01,2.700212499999999238e+01,4.000212500000000659e+01,5.183025000000001370e+01,6.272087500000002080e+01,6.962712500000002080e+01,7.409587500000002080e+01,7.706462500000002080e+01,7.711150000000002080e+01,7.236150000000002080e+01,6.523650000000002080e+01,5.636150000000002080e+01,4.475212500000000659e+01,3.359587499999999949e+01,2.281462499999999238e+01,1.290837499999998883e+01,3.408374999999980837e+00,-2.982250000000022716e+00,-7.966625000000026269e+00,-1.098225000000002893e+01,-1.074787500000002893e+01,-1.051350000000002893e+01,-1.148225000000002893e+01,-1.312287500000003071e+01,-1.413850000000003249e+01,-1.526350000000003249e+01,-1.681037500000003249e+01,-2.010725000000003604e+01,-2.427912500000003959e+01,-2.696662500000004314e+01,-2.745100000000004314e+01,-2.602912500000004314e+01,-2.445100000000004314e+01,-2.404475000000003959e+01,-2.012287500000003604e+01,-1.298225000000003071e+01,-4.357250000000024492e+00,5.705249999999982613e+00,1.728337499999999238e+01,2.895524999999999949e+01,4.298650000000000659e+01,6.248650000000002080e+01,8.006462500000003502e+01,9.975212500000004923e+01,1.209865000000000634e+02,1.445802500000000634e+02,1.703615000000000919e+02,2.003458750000001487e+02,2.330333750000001487e+02,2.636271250000001487e+02,2.983927500000001487e+02,3.314083750000002055e+02,3.644552500000002055e+02,3.942208750000003192e+02,4.197990000000003192e+02,4.398458750000003192e+02,4.546896250000003192e+02,4.668771250000003192e+02,4.741115000000003192e+02,4.790021250000003192e+02,4.809083750000003192e+02,4.816740000000003192e+02,4.820177500000003192e+02,4.822833750000003192e+02,4.824865000000003192e+02,4.826115000000003192e+02,4.826896250000003192e+02,4.827677500000003192e+02,4.827677500000003192e+02,4.827208750000003192e+02,4.826583750000003192e+02,4.825958750000003192e+02,4.825802500000003192e+02,4.825958750000003192e+02,4.826115000000003192e+02,4.826115000000003192e+02,4.826583750000003192e+02,4.827521250000003192e+02,4.828458750000003192e+02,4.829708750000003192e+02,4.830802500000003192e+02,4.831583750000003192e+02,4.832521250000003192e+02,4.833771250000003192e+02,4.835021250000003192e+02,4.835958750000003192e+02,4.836896250000003192e+02,4.837521250000003192e+02,4.837990000000003192e+02,4.838458750000003192e+02,4.838771250000003192e+02,4.838615000000003192e+02,4.838302500000003192e+02,4.837990000000003192e+02,4.837677500000003192e+02,4.837365000000003192e+02,4.836896250000003192e+02,4.837052500000003192e+02,4.837052500000003192e+02,4.837052500000003192e+02,4.837052500000003192e+02,4.837052500000003192e+02,4.837208750000003192e+02,4.837208750000003192e+02,4.837833750000003192e+02,4.837990000000003192e+02,4.838458750000003192e+02,4.839240000000003192e+02,4.839865000000003192e+02,4.840490000000003192e+02,4.840958750000003192e+02,4.841740000000003192e+02,4.841896250000003192e+02,4.842208750000003192e+02,4.842208750000003192e+02,4.842052500000003192e+02,4.842052500000003192e+02,4.841740000000003192e+02,4.841271250000003192e+02,4.840802500000003192e+02,4.840021250000003192e+02,4.838771250000003192e+02,4.837677500000003192e+02,4.836427500000003192e+02,4.835021250000003192e+02,4.834083750000003192e+02,4.833458750000003192e+02,4.832365000000003192e+02,4.831740000000003192e+02,4.831427500000003192e+02,4.831115000000003192e+02,4.830958750000003192e+02,4.831115000000003192e+02,4.831115000000003192e+02,4.830646250000003192e+02,4.830333750000003192e+02,4.830021250000003192e+02,4.829708750000003192e+02,4.829083750000003192e+02,4.828146250000003192e+02,4.826115000000003192e+02,4.822833750000003192e+02,4.811271250000003192e+02,4.787521250000003192e+02,4.745802500000003192e+02,4.695333750000003192e+02,4.636271250000003192e+02,4.562990000000003192e+02,4.466427500000003192e+02,4.338771250000003192e+02,4.191896250000003192e+02,4.044396250000003192e+02,3.900802500000003192e+02,3.731740000000002055e+02,3.543615000000002055e+02,3.341740000000001487e+02,3.139865000000001487e+02,2.961427500000001487e+02,2.791115000000001487e+02,2.597833750000001487e+02,2.398927500000001487e+02,2.240021250000001487e+02,2.072677500000001487e+02,1.897677500000001203e+02,1.719396250000000919e+02,1.509552500000000634e+02,1.299865000000000634e+02,1.111427500000000634e+02,9.083025000000003502e+01,6.643962500000002080e+01,4.254900000000000659e+01,1.922087499999999238e+01,-2.638500000000023604e+00,-2.098225000000003604e+01,-3.952912500000005025e+01,-5.888850000000006446e+01,-7.604475000000007867e+01,-9.491975000000009288e+01,-1.115291250000001071e+02,-1.266228750000001071e+02,-1.441541250000001071e+02,-1.645916250000001355e+02,-1.857322500000001639e+02,-2.058885000000001924e+02,-2.268572500000001924e+02,-2.434353750000001924e+02,-2.606697500000001924e+02,-2.762322500000001924e+02,-2.880447500000001924e+02,-2.981853750000001924e+02,-3.063260000000001924e+02,-3.157010000000001924e+02,-3.256228750000001924e+02,-3.346697500000001924e+02,-3.437010000000001924e+02,-3.545760000000001924e+02,-3.678572500000002492e+02,-3.808103750000003060e+02,-3.940916250000003629e+02,-4.064978750000003629e+02,-4.167322500000003629e+02,-4.283260000000003629e+02,-4.393885000000003629e+02,-4.504666250000003629e+02,-4.592635000000003629e+02,-4.664041250000003629e+02,-4.734041250000003629e+02,-4.790603750000003629e+02,-4.850603750000003629e+02,-4.909041250000003629e+02,-4.960291250000003629e+02,-4.994353750000003629e+02,-5.032791250000003629e+02,-5.077791250000003629e+02,-5.112166250000003629e+02,-5.143416250000003629e+02,-5.167010000000003629e+02,-5.179041250000003629e+02,-5.188572500000003629e+02,-5.198416250000003629e+02,-5.203416250000003629e+02,-5.203885000000003629e+02,-5.204666250000003629e+02,-5.205447500000003629e+02,-5.206072500000003629e+02,-5.206541250000003629e+02,-5.206853750000003629e+02,-5.207010000000003629e+02,-5.206541250000003629e+02,-5.206385000000003629e+02,-5.206072500000003629e+02,-5.202635000000003629e+02,-5.196853750000003629e+02,-5.191228750000003629e+02,-5.185603750000003629e+02,-5.179197500000003629e+02,-5.169197500000003629e+02,-5.157010000000003629e+02,-5.131541250000003629e+02,-5.108885000000003629e+02,-5.082010000000003629e+02,-5.042635000000003629e+02,-4.995603750000003629e+02,-4.947478750000003629e+02,-4.894041250000003629e+02,-4.818260000000003629e+02,-4.743885000000003629e+02,-4.663885000000003629e+02,-4.579822500000003629e+02,-4.497478750000003629e+02,-4.406228750000003629e+02,-4.304666250000003629e+02,-4.212635000000003629e+02,-4.146853750000003629e+02,-4.098885000000003629e+02,-4.048260000000003629e+02,-4.000760000000003629e+02,-3.958416250000003629e+02,-3.933885000000003629e+02,-3.905916250000003629e+02,-3.861541250000003629e+02,-3.803260000000003629e+02,-3.731228750000002492e+02,-3.664666250000002492e+02,-3.612478750000001924e+02,-3.573103750000001924e+02,-3.526385000000001924e+02,-3.484666250000001924e+02,-3.457478750000001924e+02,-3.436228750000001924e+02,-3.414666250000001924e+02,-3.371853750000001924e+02,-3.286072500000001924e+02,-3.173572500000001924e+02,-3.057166250000001924e+02,-2.950447500000001924e+02,-2.843260000000001924e+02,-2.742478750000001924e+02,-2.636228750000001924e+02,-2.563103750000001924e+02,-2.542322500000001924e+02,-2.535291250000001924e+02,-2.528572500000001924e+02,-2.509197500000001924e+02,-2.480447500000001924e+02,-2.451853750000001924e+02,-2.437166250000001924e+02,-2.405291250000001924e+02,-2.359822500000001924e+02,-2.314510000000001924e+02,-2.283885000000001924e+02,-2.274041250000001924e+02,-2.263260000000001924e+02,-2.233416250000001924e+02,-2.195447500000001924e+02,-2.158103750000001924e+02,-2.104666250000001924e+02,-2.052635000000001924e+02,-1.968885000000001924e+02,-1.876541250000001639e+02,-1.790760000000001355e+02,-1.720447500000001071e+02,-1.645916250000001071e+02,-1.570760000000001071e+02,-1.491385000000001071e+02,-1.408885000000001071e+02,-1.363260000000001071e+02,-1.310916250000001071e+02,-1.268885000000001071e+02,-1.225447500000001071e+02,-1.202322500000001071e+02,-1.182635000000001071e+02,-1.180447500000001071e+02,-1.185291250000001071e+02,-1.174978750000001071e+02,-1.165291250000001071e+02,-1.139353750000001071e+02,-1.122947500000001071e+02,-1.082322500000001071e+02,-1.045135000000001071e+02,-1.013103750000001071e+02,-9.713850000000010709e+01,-9.301350000000007867e+01,-8.851350000000006446e+01,-8.454475000000006446e+01,-7.862287500000006446e+01,-7.474787500000006446e+01,-7.077912500000006446e+01,-6.612287500000006446e+01,-6.338850000000006446e+01,-6.015412500000006446e+01,-5.796662500000006446e+01,-5.656037500000006446e+01,-5.649787500000006446e+01,-5.570100000000006446e+01,-5.327912500000006446e+01,-5.190412500000006446e+01,-4.929475000000006446e+01,-4.763850000000006446e+01,-4.613850000000005736e+01,-4.362287500000005025e+01,-4.085725000000004314e+01,-3.788850000000004314e+01,-3.788850000000004314e+01,-3.476350000000004314e+01,-3.123225000000004314e+01,-2.738850000000003959e+01,-2.260725000000003604e+01,-1.995100000000003249e+01,-1.827912500000003249e+01,-1.773225000000003249e+01,-1.673225000000003249e+01,-1.866975000000003604e+01,-2.191975000000003604e+01,-2.549787500000003959e+01,-3.060725000000004314e+01,-3.304475000000004314e+01,-3.484162500000004314e+01,-3.440412500000004314e+01,-3.371662500000004314e+01,-3.260725000000004314e+01,-3.045100000000004314e+01,-2.790412500000004314e+01,-2.416975000000003604e+01,-2.207600000000003604e+01,-1.918537500000003249e+01,-1.818537500000003249e+01,-1.524787500000003071e+01,-1.149787500000002893e+01,-7.435375000000027157e+00,-2.669750000000024048e+00,2.658374999999979948e+00,8.955249999999983501e+00,1.359587499999998528e+01,1.873649999999998883e+01,2.183024999999999238e+01,2.514274999999999594e+01,2.886149999999999949e+01,3.020524999999999949e+01,2.909587499999999949e+01,2.809587499999999949e+01,2.911149999999999949e+01,2.990837499999999949e+01,3.300212499999999949e+01,3.554899999999999949e+01,3.545524999999999949e+01,3.623649999999999949e+01,3.962712499999999949e+01,4.190837499999999949e+01,4.273649999999999949e+01,4.423649999999999949e+01,4.458025000000000659e+01,4.511150000000000659e+01,4.708025000000001370e+01,5.117400000000002080e+01,5.361150000000002080e+01,5.553337500000002080e+01,5.858025000000002080e+01,5.978337500000002080e+01,5.986150000000002080e+01,5.881462500000002080e+01,5.850212500000002080e+01,5.708025000000002080e+01,5.570525000000002080e+01,5.540837500000002080e+01,5.359587500000002080e+01,5.433025000000002080e+01,5.450212500000002080e+01,5.633025000000002080e+01,5.906462500000002080e+01,5.976775000000002080e+01,6.101775000000002080e+01,6.253337500000002080e+01,6.608025000000002080e+01,6.759587500000002080e+01,7.050212500000002080e+01,7.262712500000002080e+01,7.256462500000002080e+01,7.420525000000002080e+01,7.687712500000002080e+01,7.875212500000002080e+01,7.720525000000002080e+01,7.539275000000002080e+01,7.378337500000002080e+01,7.073650000000002080e+01,6.820525000000002080e+01,6.551775000000002080e+01,5.973650000000002080e+01,5.259587500000002080e+01,4.792400000000002080e+01,4.493962500000000659e+01,3.970525000000000659e+01,3.506462499999999949e+01,2.801774999999999594e+01,1.929899999999999238e+01,1.231462499999998528e+01,5.783374999999981725e+00,-3.372875000000023604e+00,-1.526350000000002893e+01,-2.771662500000003604e+01,-4.235725000000005025e+01,-5.641975000000005736e+01,-7.238850000000006446e+01,-9.160725000000007867e+01,-1.127322500000001071e+02,-1.341541250000001071e+02,-1.565916250000001355e+02,-1.799041250000001355e+02,-2.031228750000001924e+02,-2.261697500000001924e+02,-2.465291250000001924e+02,-2.638572500000001924e+02,-2.769978750000001924e+02,-2.872166250000001924e+02,-2.940447500000001924e+02,-2.950291250000001924e+02,-2.899822500000001924e+02,-2.803572500000001924e+02,-2.701541250000001924e+02,-2.604666250000001924e+02,-2.535447500000001924e+02,-2.492947500000001924e+02,-2.484041250000001924e+02,-2.528103750000001924e+02,-2.623728750000001924e+02,-2.766697500000001924e+02,-2.901228750000001924e+02,-3.017635000000001924e+02,-3.093885000000001924e+02,-3.100603750000001924e+02,-3.029666250000001924e+02,-2.895447500000001924e+02,-2.709510000000001924e+02,-2.477478750000001924e+02,-2.206228750000001924e+02,-1.888572500000001639e+02,-1.555603750000001355e+02,-1.240603750000001071e+02,-9.318537500000007867e+01,-6.196662500000005025e+01,-3.098225000000003959e+01,7.989999999999781721e-01,3.120524999999999594e+01,5.743962500000000659e+01,8.217400000000003502e+01,1.067052500000000492e+02,1.300021250000000634e+02,1.511427500000000634e+02,1.721427500000000919e+02,1.913302500000001487e+02,2.078302500000001487e+02,2.248146250000001487e+02,2.400958750000001487e+02,2.536740000000001487e+02,2.637052500000001487e+02,2.711271250000001487e+02,2.747052500000001487e+02,2.751271250000001487e+02,2.746583750000001487e+02,2.710802500000001487e+02,2.652990000000001487e+02,2.566115000000001487e+02,2.457208750000001487e+02,2.339552500000001487e+02,2.202208750000001487e+02,2.056271250000001487e+02,1.888927500000001487e+02,1.698771250000000919e+02,1.498458750000000634e+02,1.279552500000000634e+02,1.064552500000000492e+02,8.433025000000003502e+01,6.318962500000002080e+01,4.250212500000000659e+01,2.284587499999999238e+01,6.080249999999982613e+00,-9.279125000000028933e+00,-2.056037500000003604e+01,-2.985725000000004314e+01,-3.804475000000005025e+01,-4.402912500000005025e+01,-4.720100000000005025e+01,-4.993537500000005736e+01,-5.207600000000006446e+01,-5.320100000000006446e+01,-5.582600000000006446e+01,-5.770100000000006446e+01,-5.865412500000006446e+01,-5.957600000000006446e+01,-6.159162500000006446e+01,-6.243537500000006446e+01,-6.282600000000006446e+01,-6.349787500000006446e+01,-6.159162500000006446e+01,-5.962287500000006446e+01,-5.673225000000006446e+01,-5.379475000000006446e+01,-4.998225000000006446e+01,-4.468537500000005025e+01,-3.849787500000005025e+01,-3.066975000000004314e+01,-2.306037500000003604e+01,-1.387287500000002893e+01,-4.201000000000022716e+00,6.158374999999983501e+00,1.614274999999998883e+01,2.564274999999999238e+01,3.284587499999999949e+01,4.012712500000000659e+01,4.672087500000000659e+01,5.020525000000001370e+01,5.326775000000002080e+01,5.518962500000002080e+01,5.631462500000002080e+01,5.534587500000002080e+01,5.659587500000002080e+01,5.609587500000002080e+01,5.384587500000002080e+01,5.320525000000002080e+01,5.097087500000002080e+01,4.870525000000000659e+01,4.653337500000000659e+01,4.508025000000000659e+01,4.229899999999999949e+01,4.033024999999999949e+01,3.986149999999999949e+01,3.901774999999999949e+01,3.828337499999999949e+01,3.745524999999999949e+01,3.692399999999999949e+01,3.775212499999999949e+01,3.764274999999999949e+01,3.556462499999999949e+01,3.354899999999999949e+01,3.125212499999999949e+01,3.011149999999999949e+01,2.923649999999999949e+01,2.826774999999999949e+01,2.581462499999999594e+01,2.404899999999999594e+01,2.442399999999999949e+01,2.501774999999999949e+01,2.584587499999999949e+01,2.584587499999999949e+01,2.579899999999999949e+01,2.626774999999999949e+01,2.658024999999999949e+01,2.815837499999999949e+01,2.861149999999999949e+01,2.686149999999999949e+01,2.472087499999999949e+01,2.211149999999999238e+01,1.868962499999998883e+01,1.397087499999998528e+01,1.009587499999998528e+01,4.470874999999981725e+00,-1.216625000000022494e+00,-4.482250000000024492e+00,-8.154125000000027157e+00,-9.951000000000027157e+00,-1.163850000000002893e+01,-1.102912500000002893e+01,-1.088850000000002893e+01,-1.057600000000002893e+01,-8.576000000000027157e+00,-7.701000000000027157e+00,-4.857250000000025381e+00,-3.607250000000024492e+00,-1.872875000000023160e+00,-2.169750000000023160e+00,-2.763500000000023604e+00,-1.997875000000023160e+00,-3.779125000000024048e+00,-5.044750000000024492e+00,-9.279125000000027157e+00,-1.335725000000003071e+01,-1.776350000000003249e+01,-2.187287500000003604e+01,-2.637287500000003959e+01,-3.216975000000004314e+01,-3.570100000000004314e+01,-4.048225000000005025e+01,-4.357600000000005025e+01,-4.631037500000005736e+01,-4.802912500000006446e+01,-4.977912500000006446e+01,-5.106037500000006446e+01,-5.231037500000006446e+01,-5.551350000000006446e+01,-5.781037500000006446e+01,-5.923225000000006446e+01,-6.162287500000006446e+01,-6.524787500000006446e+01,-6.851350000000006446e+01,-7.040412500000006446e+01,-7.148225000000006446e+01,-7.184162500000006446e+01,-7.096662500000006446e+01,-7.224787500000006446e+01,-7.274787500000006446e+01,-7.174787500000006446e+01,-7.215412500000006446e+01,-7.516975000000006446e+01,-7.907600000000006446e+01,-8.246662500000006446e+01,-8.762287500000007867e+01,-9.176350000000007867e+01,-9.518537500000010709e+01,-1.000760000000001071e+02,-1.037010000000001071e+02,-1.051853750000001071e+02,-1.067010000000001071e+02,-1.084822500000001071e+02,-1.106853750000001071e+02,-1.123885000000001071e+02,-1.160916250000001071e+02,-1.192010000000001071e+02,-1.217010000000001071e+02,-1.249510000000001071e+02,-1.279353750000001071e+02,-1.306385000000001071e+02,-1.318416250000001071e+02,-1.333572500000001071e+02,-1.333416250000001071e+02,-1.340760000000001071e+02,-1.349353750000001071e+02,-1.359666250000001071e+02,-1.364666250000001071e+02,-1.380135000000001071e+02,-1.395760000000001071e+02,-1.406541250000001071e+02,-1.409510000000001071e+02,-1.403885000000001071e+02,-1.400603750000001071e+02,-1.394197500000001071e+02,-1.382010000000001071e+02,-1.357478750000001071e+02,-1.327635000000001071e+02,-1.301697500000001071e+02,-1.279978750000001071e+02,-1.251853750000001071e+02,-1.226228750000001071e+02,-1.192322500000001071e+02,-1.154978750000001071e+02,-1.111072500000001071e+02,-1.074041250000001071e+02,-1.032322500000001071e+02,-9.956037500000010709e+01,-9.602912500000009288e+01,-9.162287500000007867e+01,-8.684162500000006446e+01,-8.334162500000006446e+01,-7.940412500000006446e+01,-7.538850000000006446e+01,-7.002912500000006446e+01,-6.310725000000006446e+01,-5.591975000000006446e+01,-4.868537500000005736e+01,-4.220100000000005025e+01,-3.446662500000004314e+01,-2.870100000000004314e+01,-2.248225000000003604e+01,-1.887287500000003249e+01,-1.723225000000003249e+01,-1.518537500000003249e+01,-1.340412500000003071e+01,-1.123225000000002893e+01,-9.919750000000028933e+00,-7.841625000000027157e+00,-6.372875000000026269e+00,-4.122875000000024492e+00,-9.666250000000226050e-01,1.752124999999979282e+00,4.345874999999980837e+00,5.986499999999981725e+00,8.408374999999983501e+00,1.175212499999998528e+01,1.539274999999998883e+01,2.039274999999999238e+01,2.437712499999999594e+01,2.634587499999999949e+01,2.634587499999999949e+01,2.545524999999999949e+01,2.186149999999999238e+01,1.687712499999998883e+01,1.111149999999998528e+01,2.252124999999979948e+00,-6.372875000000025381e+00,-1.427912500000002893e+01,-2.146662500000003604e+01,-2.837287500000004314e+01,-3.320100000000004314e+01,-4.040412500000005025e+01,-5.112287500000005736e+01,-6.513850000000006446e+01,-8.399787500000006446e+01,-1.067322500000000787e+02,-1.323728750000001071e+02,-1.591853750000001355e+02,-1.871697500000001639e+02,-2.102166250000001924e+02,-2.245916250000001924e+02,-2.274510000000001924e+02,-2.192947500000001924e+02,-1.994822500000001639e+02,-1.664041250000001355e+02,-1.245447500000001071e+02,-7.738850000000007867e+01,-2.868537500000004314e+01,1.739274999999998883e+01,6.008025000000000659e+01,1.000646250000000350e+02,1.325646250000000634e+02,1.531115000000000634e+02,1.634708750000000634e+02,1.664708750000000634e+02,1.626427500000000634e+02,1.537365000000000634e+02,1.381427500000000634e+02,1.137677500000000634e+02,8.533025000000003502e+01,5.468962500000002080e+01,2.434587499999999238e+01,-6.419750000000025381e+00,-3.895100000000004314e+01,-7.224787500000006446e+01,-1.045603750000000787e+02,-1.317478750000001071e+02,-1.551385000000001071e+02,-1.737010000000001355e+02,-1.896228750000001924e+02,-2.022478750000001924e+02,-2.085135000000001924e+02,-2.100603750000001924e+02,-2.084041250000001924e+02,-2.049510000000001924e+02,-1.989353750000001924e+02,-1.905135000000001924e+02,-1.789822500000001355e+02,-1.648728750000001355e+02,-1.500760000000001071e+02,-1.345135000000001071e+02,-1.174353750000001071e+02,-1.007478750000001071e+02,-8.540412500000007867e+01,-7.229475000000006446e+01,-6.166975000000006446e+01,-5.354475000000006446e+01,-4.695100000000005025e+01,-4.123225000000004314e+01,-3.679475000000004314e+01,-3.281037500000004314e+01,-3.007600000000004314e+01,-2.799787500000004314e+01,-2.602912500000004314e+01,-2.452912500000004314e+01,-2.556037500000004314e+01,-2.738850000000004314e+01,-3.088850000000004314e+01,-3.493537500000004314e+01,-3.823225000000005025e+01,-4.218537500000005025e+01,-4.665412500000006446e+01,-5.026350000000006446e+01,-5.209162500000006446e+01,-5.552912500000006446e+01,-5.793537500000006446e+01,-6.051350000000006446e+01,-6.381037500000006446e+01,-6.513850000000006446e+01,-6.541975000000006446e+01,-6.638850000000006446e+01,-6.704475000000006446e+01,-6.556037500000006446e+01,-6.456037500000006446e+01,-6.221662500000006446e+01,-5.821662500000006446e+01,-5.581037500000006446e+01,-5.406037500000006446e+01,-5.204475000000006446e+01,-5.004475000000006446e+01,-4.849787500000005025e+01,-4.576350000000005025e+01,-4.409162500000004314e+01,-4.318537500000004314e+01,-4.081037500000004314e+01,-3.784162500000004314e+01,-3.427912500000004314e+01
-5.656250000000003553e+00,2.031250000000006661e-01,6.765625000000004441e+00,1.168750000000000711e+01,1.068750000000000711e+01,4.625000000000003553e+00,-8.437500000000000000e-01,-5.750000000000003553e+00,-4.812500000000003553e+00,1.171875000000001110e+00,4.203125000000002665e+00,5.328125000000003553e+00,4.718750000000003553e+00,3.593750000000002220e-01,-2.156250000000001332e+00,-1.296875000000000888e+00,-3.515625000000002665e+00,-3.125000000000002220e+00,-4.531250000000006661e-01,-1.406250000000001332e+00,-1.875000000000002220e-01,-1.390625000000000888e+00,-4.312500000000002665e+00,-4.718750000000003553e+00,-1.546875000000001554e+00,3.406250000000001776e+00,4.390625000000003553e+00,5.984375000000004441e+00,1.531250000000001776e+00,-4.046875000000001776e+00,-2.468750000000001776e+00,-3.671875000000001776e+00,-2.218750000000000888e+00,1.093750000000000000e-01,-2.046875000000001332e+00,-2.312500000000001776e+00,-1.484375000000000888e+00,-1.562500000000011102e-02,2.171875000000001332e+00,3.062500000000002220e+00,2.781250000000001776e+00,1.890625000000001332e+00,1.437500000000001332e+00,3.000000000000001776e+00,4.062500000000002665e+00,3.171875000000002220e+00,1.187500000000000666e+00,-8.750000000000005551e-01,-2.750000000000001776e+00,-2.906250000000001776e+00,4.375000000000002220e-01,-5.625000000000006661e-01,3.437500000000000000e-01,2.718750000000001776e+00,-1.718750000000000888e+00,6.250000000000000000e-02,-1.875000000000000000e-01,-4.484375000000002665e+00,-1.015625000000000666e+00,-3.406250000000001776e+00,-5.625000000000003553e+00,-1.921875000000001332e+00,-4.406250000000002665e+00,-3.281250000000000000e-01,3.437500000000002665e+00,5.937500000000005551e-01,2.843750000000001776e+00,-1.546875000000000888e+00,-4.000000000000002665e+00,-2.140625000000001332e+00,-5.187500000000003553e+00,-4.484375000000003553e+00,-4.484375000000003553e+00,-6.093750000000003553e+00,-2.953125000000001776e+00,1.406250000000004996e-01,2.656250000000002776e-01,2.390625000000000888e+00,1.375000000000000444e+00,-8.437500000000008882e-01,1.968750000000001776e+00,3.328125000000002665e+00,4.625000000000003553e+00,6.781250000000005329e+00,3.625000000000002665e+00,-8.750000000000002220e-01,-2.125000000000000888e+00,-5.203125000000003553e+00,-2.640625000000001776e+00,5.937499999999998890e-01,-8.437500000000009992e-01,1.796875000000000888e+00,1.062500000000000444e+00,3.468750000000002220e+00,7.828125000000005329e+00,8.078125000000005329e+00,6.437500000000003553e+00,-4.218750000000008882e-01,-3.890625000000002665e+00,-6.250000000000003553e+00,-4.750000000000002665e+00,1.296875000000000666e+00,1.125000000000000444e+00,2.703125000000000888e+00,3.078125000000001332e+00,1.000000000000000666e+00,2.828125000000001776e+00,1.625000000000001110e+00,-4.062500000000002220e-01,-1.562500000000001110e+00,-1.062500000000000888e+00,1.640625000000000888e+00,5.156250000000003553e+00,7.203125000000005329e+00,3.984375000000003553e+00,1.296875000000001332e+00,-2.046875000000001332e+00,-2.359375000000001332e+00,1.421875000000000888e+00,2.359375000000001776e+00,3.562500000000002220e+00,1.234375000000000666e+00,-3.062500000000001776e+00,-5.593750000000003553e+00,-7.656250000000005329e+00,-8.125000000000005329e+00,-7.781250000000005329e+00,-5.015625000000003553e+00,-2.718750000000001776e+00,1.453125000000000444e+00,8.218750000000003553e+00,9.906250000000005329e+00,1.114062500000000711e+01,9.515625000000005329e+00,2.078125000000000888e+00,-7.968750000000003331e-01,-2.125000000000000888e+00,-2.625000000000001332e+00,5.000000000000004441e-01,1.546875000000001110e+00,-3.125000000000022204e-02,-1.500000000000000888e+00,-1.875000000000001332e+00,-4.687500000000003553e+00,-3.093750000000001776e+00,2.656250000000002776e-01,1.406250000000001110e+00,9.687500000000005329e+00,1.192187500000000711e+01,1.062500000000000711e+01,9.937500000000007105e+00,6.718750000000008882e-01,-3.484375000000002220e+00,-3.859375000000002220e+00,-5.265625000000003553e+00,-9.218750000000008882e-01,1.515625000000000666e+00,-1.312500000000001776e+00,-2.328125000000002665e+00,-5.703125000000003553e+00,-1.092187500000000711e+01,-8.671875000000005329e+00,-5.656250000000003553e+00,-2.109375000000000888e+00,6.328125000000004441e+00,7.546875000000005329e+00,2.531250000000001332e+00,-2.593750000000002220e+00,-1.526562500000001066e+01,-2.568750000000001776e+01,-2.546875000000001776e+01,-2.270312500000001421e+01,-9.953125000000005329e+00,8.421875000000003553e+00,1.735937500000001066e+01,2.128125000000001421e+01,1.657812500000001066e+01,5.609375000000003553e+00,1.453125000000001110e+00,3.421875000000001776e+00,1.150000000000000711e+01,2.025000000000001066e+01,2.268750000000001421e+01,1.781250000000001066e+01,7.171875000000005329e+00,-4.609375000000001776e+00,-1.326562500000000711e+01,-1.629687500000001066e+01,-1.685937500000001066e+01,-1.321875000000000711e+01,-7.796875000000005329e+00,-4.781250000000003553e+00,-6.406250000000002220e-01,2.000000000000001332e+00,1.593750000000001110e+00,4.109375000000002665e+00,7.375000000000005329e+00,6.437500000000003553e+00,6.421875000000003553e+00,1.406250000000001332e+00,-7.359375000000005329e+00,-7.921875000000005329e+00,-9.125000000000007105e+00,-7.984375000000007105e+00,-2.625000000000002220e+00,-5.218750000000003553e+00,-6.140625000000003553e+00,-4.406250000000001776e+00,-7.656250000000003553e+00,-8.468750000000005329e+00,-8.671875000000005329e+00,-1.209375000000000711e+01,-9.312500000000005329e+00,-4.875000000000002665e+00,-1.890625000000001110e+00,-2.656250000000011102e-01,-4.375000000000003553e+00,-7.093750000000006217e+00,-1.506250000000000888e+01,-1.717187500000000711e+01,-1.598437500000000711e+01,-1.789062500000000711e+01,-5.718750000000003553e+00,4.140625000000002665e+00,1.696875000000001066e+01,3.132812500000001776e+01,3.312500000000002132e+01,3.151562500000002132e+01,2.323437500000001421e+01,1.317187500000000711e+01,6.562500000000003553e+00,2.109375000000001776e+00,5.781250000000004441e-01,1.875000000000001665e-01,1.562500000000001388e-01,1.406250000000001110e-01,2.500000000000001665e-01,3.125000000000002220e-01,3.593750000000002220e-01,4.062500000000003331e-01,2.187500000000001943e-01,1.562500000000001735e-02,-1.718750000000001388e-01,-2.968750000000002220e-01,-2.187500000000001665e-01,-1.093750000000000971e-01,-6.938893903907228378e-18,-6.938893903907228378e-18,-4.687500000000004163e-02,-7.812500000000005551e-02,-1.093750000000000833e-01,-4.687500000000002776e-02,-3.125000000000001388e-02,1.562500000000002082e-02,4.687500000000003469e-02,4.687500000000002776e-02,1.093750000000000833e-01,1.562500000000000694e-02,-1.562500000000000694e-02,-1.562500000000000694e-02,-6.250000000000004163e-02,1.406250000000000833e-01,2.343750000000001388e-01,2.500000000000001110e-01,2.812500000000001665e-01,1.387778780781445676e-17,-1.562500000000001110e-01,-2.500000000000001665e-01,-3.281250000000002220e-01,-9.375000000000005551e-02,3.125000000000003469e-02,1.562500000000001110e-01,2.187500000000001665e-01,9.375000000000005551e-02,1.562500000000001041e-02,-1.093750000000000833e-01,-1.718750000000001110e-01,-1.875000000000001388e-01,-1.718750000000001110e-01,-1.250000000000001110e-01,-1.387778780781445676e-17,1.250000000000000833e-01,2.031250000000001110e-01,3.125000000000002220e-01,1.718750000000001388e-01,1.562500000000001735e-02,-1.093750000000000694e-01,-2.812500000000002220e-01,-1.562500000000001110e-01,6.250000000000005551e-02,2.343750000000001665e-01,4.062500000000003331e-01,3.593750000000002776e-01,1.093750000000000833e-01,-9.375000000000004163e-02,-2.187500000000001110e-01,-2.656250000000001665e-01,-1.093750000000000694e-01,1.562500000000001041e-02,-6.938893903907229918e-18,0.000000000000000000e+00,-9.375000000000008327e-02,-1.250000000000001110e-01,-4.687500000000004163e-02,-6.938893903907228378e-18,6.250000000000004163e-02,4.687500000000003469e-02,1.562500000000001041e-02,4.687500000000004163e-02,7.812500000000006939e-02,1.406250000000001110e-01,1.718750000000001665e-01,1.875000000000001665e-01,3.281250000000002776e-01,1.296875000000000888e+00,3.484375000000001776e+00,7.218750000000003553e+00,1.132812500000000711e+01,1.298437500000001066e+01,1.125000000000000711e+01,5.281250000000003553e+00,-7.812499999999966693e-02,-3.281249999999997224e-01,3.421875000000003997e+00,1.084375000000000888e+01,1.387500000000001066e+01,8.062500000000007105e+00,3.124999999999991118e-01,-7.437500000000006217e+00,-1.134375000000000711e+01,-5.375000000000002665e+00,7.812499999999956979e-02,2.031250000000001332e+00,3.921875000000002220e+00,-7.187500000000000000e-01,-4.843750000000001776e+00,-2.765625000000000888e+00,4.406250000000002665e+00,1.225000000000000711e+01,1.821875000000000711e+01,1.665625000000000711e+01,-1.265625000000000888e+00,-1.362500000000000888e+01,-1.829687500000001066e+01,-1.818750000000001066e+01,1.031250000000000000e+00,9.640625000000007105e+00,4.562500000000002665e+00,-3.437500000000000000e-01,-1.428125000000000888e+01,-1.573437500000001066e+01,-1.203125000000000888e+00,1.357812500000000711e+01,2.326562500000001421e+01,2.403125000000001776e+01,9.375000000000005329e+00,-1.221875000000000533e+01,-2.307812500000001421e+01,-3.159375000000002132e+01,-2.646875000000001421e+01,-1.065625000000000711e+01,-1.203125000000001554e+00,9.875000000000007105e+00,1.268750000000000711e+01,9.921875000000005329e+00,7.218750000000004441e+00,3.562500000000002665e+00,5.000000000000002220e-01,-4.531250000000003553e+00,-3.578125000000003109e+00,-3.984375000000003109e+00,-6.406250000000008882e-01,5.781250000000003553e+00,1.312500000000000666e+00,-6.875000000000009992e-01,-7.171875000000005329e+00,-1.337500000000001066e+01,-8.484375000000005329e+00,-5.921875000000003553e+00,-3.906250000000008882e-01,4.234375000000002665e+00,2.078125000000001776e+00,1.140625000000000666e+00,-2.656250000000002220e-01,-2.671875000000001776e+00,-3.296875000000002220e+00,-3.796875000000002220e+00,-4.546875000000002665e+00,-3.687500000000002220e+00,-2.234375000000001776e+00,-1.093750000000000888e+00,-4.687500000000005551e-02,2.656250000000001665e-01,1.250000000000000833e-01,-4.687500000000004163e-02,-1.562500000000001110e-01,-2.187500000000001665e-01,-2.343750000000001665e-01,-2.031250000000001665e-01,-1.875000000000001388e-01,-4.687500000000003469e-02,6.250000000000004163e-02,1.562500000000001110e-01,-6.250000000000005551e-02,-7.031250000000004441e-01,-1.390625000000000888e+00,-2.078125000000001332e+00,-1.593750000000000888e+00,-3.437500000000002220e-01,8.125000000000005551e-01,6.406250000000004441e-01,-1.437500000000001110e+00,-4.562500000000003553e+00,-8.250000000000005329e+00,-7.390625000000005329e+00,-4.640625000000003553e+00,-6.093750000000006661e-01,4.687500000000003553e+00,2.562500000000001776e+00,-1.500000000000001332e+00,-6.843750000000005329e+00,-1.076562500000000711e+01,-6.328125000000004441e+00,7.812500000000066613e-02,9.000000000000007105e+00,1.385937500000001066e+01,1.312500000000001066e+01,1.162500000000000711e+01,4.375000000000002665e+00,-7.343750000000002220e-01,-5.687500000000002665e+00,-1.192187500000000711e+01,-1.048437500000000711e+01,-9.062500000000005329e+00,-5.515625000000002665e+00,2.328125000000001776e+00,5.609375000000003553e+00,1.135937500000000711e+01,1.650000000000001066e+01,1.339062500000000711e+01,8.671875000000003553e+00,-4.328125000000003553e+00,-1.817187500000001066e+01,-2.239062500000001421e+01,-2.459375000000001421e+01,-1.528125000000000888e+01,-4.734375000000003553e+00,5.312500000000004441e-01,1.337500000000000711e+01,1.804687500000001066e+01,2.129687500000001776e+01,2.473437500000001776e+01,1.203125000000000888e+01,1.578125000000001332e+00,-6.531250000000005329e+00,-1.665625000000001066e+01,-1.353125000000000711e+01,-8.828125000000007105e+00,-6.609375000000004441e+00,3.578125000000001776e+00,9.156250000000005329e+00,1.068750000000000711e+01,1.356250000000000888e+01,6.765625000000004441e+00,-2.375000000000001332e+00,-6.921875000000003553e+00,-1.403125000000000711e+01,-1.557812500000001066e+01,-1.060937500000000711e+01,-6.812500000000004441e+00,6.875000000000004441e-01,7.828125000000005329e+00,8.062500000000005329e+00,5.406250000000003553e+00,3.015625000000001776e+00,-2.500000000000002220e+00,-4.062500000000002665e+00,-1.937500000000001332e+00,-2.687500000000001776e+00,1.765625000000001110e+00,7.750000000000004441e+00,1.128125000000000711e+01,1.453125000000000888e+01,1.212500000000000711e+01,1.968750000000001332e+00,-6.296875000000003553e+00,-1.301562500000000711e+01,-1.492187500000000888e+01,-6.953125000000004441e+00,-9.062500000000011102e-01,4.968750000000002665e+00,7.437500000000004441e+00,3.421875000000002665e+00,-8.125000000000002220e-01,-2.875000000000001776e+00,-3.937500000000001776e+00,-4.031250000000001776e+00,-8.281250000000002220e-01,-2.265625000000001332e+00,-1.296875000000000666e+00,2.984375000000002220e+00,5.750000000000003553e+00,1.107812500000000711e+01,1.145312500000000711e+01,6.921875000000003553e+00,-2.328125000000001332e+00,-9.750000000000007105e+00,-1.348437500000000888e+01,-1.192187500000000711e+01,-1.406250000000000444e+00,4.812500000000003553e+00,1.306250000000000888e+01,1.329687500000000888e+01,3.906250000000002665e+00,-1.562500000000000222e+00,-1.375000000000000888e+01,-1.525000000000001066e+01,-7.593750000000005329e+00,-2.437500000000002665e+00,7.406250000000005329e+00,1.125000000000000711e+01,7.953125000000005329e+00,7.281250000000005329e+00,8.343750000000005329e+00,6.281250000000004441e+00,8.281250000000007105e+00,5.296875000000003553e+00,-4.343750000000003553e+00,-8.156250000000007105e+00,-1.523437500000000888e+01,-1.673437500000001066e+01,-1.042187500000000711e+01,-4.781250000000002665e+00,4.875000000000002665e+00,1.276562500000000711e+01,1.253125000000000711e+01,7.625000000000003553e+00,-1.390625000000001776e+00,-1.201562500000000888e+01,-1.401562500000001066e+01,-1.051562500000000711e+01,-2.578125000000001332e+00,5.468750000000003553e+00,6.515625000000005329e+00,3.531250000000003553e+00,-2.734375000000000888e+00,-4.812500000000002665e+00,-2.812499999999995559e-01,7.718750000000006217e+00,1.381250000000001066e+01,1.409375000000001066e+01,5.953125000000005329e+00,-5.734375000000003553e+00,-9.875000000000007105e+00,-1.160937500000000711e+01,-8.265625000000005329e+00,-7.500000000000001110e-01,-1.562499999999998890e-01,2.500000000000002220e+00,7.859375000000005329e+00,8.328125000000005329e+00,9.250000000000005329e+00,4.937500000000002665e+00,-5.781250000000003553e+00,-1.275000000000000888e+01,-1.540625000000001066e+01,-1.131250000000000711e+01,-3.750000000000004441e-01,9.953125000000007105e+00,1.440625000000001066e+01,1.601562500000001066e+01,9.312500000000005329e+00,-1.562500000000088818e-02,-1.828125000000001776e+00,-9.406250000000007105e+00,-7.843750000000005329e+00,-3.234375000000001776e+00,-5.921875000000003553e+00,2.843750000000001332e+00,3.421875000000001776e+00,2.156250000000001776e+00,3.296875000000002220e+00,-4.468750000000002665e+00,-6.718750000000004441e+00,-6.359375000000004441e+00,-2.218750000000001776e+00,3.703125000000002665e+00,7.046875000000005329e+00,6.671875000000004441e+00,1.671875000000001110e+00,-1.718750000000000888e+00,-4.265625000000002665e+00,-3.015625000000001776e+00,7.187500000000006661e-01,5.156250000000003553e+00,1.095312500000000711e+01,1.350000000000001066e+01,1.053125000000000711e+01,2.468750000000001776e+00,-6.687500000000002665e+00,-1.385937500000000711e+01,-1.050000000000000711e+01,6.093750000000008882e-01,8.406250000000005329e+00,1.360937500000000711e+01,1.009375000000000711e+01,1.375000000000000666e+00,-2.765625000000001776e+00,-1.609375000000000444e+00,1.796875000000001998e+00,5.562500000000004441e+00,9.765625000000007105e+00,8.468750000000005329e+00,7.968750000000003553e+00,1.006250000000000533e+01,7.093750000000004441e+00,6.906250000000005329e+00,6.953125000000006217e+00,1.390625000000002220e+00,4.531250000000002220e-01,-2.265625000000002665e+00,-7.593750000000007105e+00,-7.109375000000006217e+00,-1.234375000000000711e+01,-1.889062500000001066e+01,-2.273437500000001421e+01,-2.959375000000002132e+01,-2.854687500000002132e+01,-2.084375000000001421e+01,-1.484375000000000888e+01,-5.109375000000003553e+00,3.703125000000002665e+00,1.115625000000000711e+01,2.821875000000001421e+01,4.195312500000002842e+01,4.804687500000002842e+01,4.379687500000002842e+01,1.684375000000001066e+01,-1.532812500000000888e+01,-4.318750000000002842e+01,-6.056250000000004263e+01,-5.589062500000004263e+01,-4.017187500000002842e+01,-2.284375000000001776e+01,-8.125000000000007105e+00,-7.656250000000011102e-01,4.843750000000001665e-01,4.062500000000001665e-01,-1.406250000000000555e-01,-3.953125000000001776e+00,-5.890625000000002665e+00,-4.171875000000001776e+00,-7.812500000000000000e-01,7.500000000000004441e+00,1.434375000000000888e+01,1.542187500000001066e+01,1.312500000000000711e+01,7.906250000000004441e+00,2.796875000000001776e+00,-9.687500000000003331e-01,-2.281250000000000888e+00,-2.031250000000000888e+00,1.031250000000000888e+00,6.546875000000003553e+00,1.345312500000000711e+01,1.843750000000001066e+01,1.709375000000001066e+01,1.523437500000001066e+01,8.718750000000005329e+00,6.046875000000003553e+00,9.703125000000005329e+00,9.343750000000007105e+00,1.312500000000000888e+01,9.437500000000007105e+00,3.390625000000003109e+00,3.156250000000002220e+00,7.031249999999998890e-01,7.546875000000005329e+00,1.140625000000000711e+01,1.129687500000000711e+01,1.076562500000000711e+01,2.156250000000001776e+00,-5.937500000000000000e-01,-4.281250000000003553e+00,-5.953125000000003553e+00,-4.078125000000003553e+00,-9.046875000000007105e+00,-1.003125000000000711e+01,-1.304687500000000711e+01,-1.639062500000001066e+01,-1.221875000000000711e+01,-9.781250000000005329e+00,-5.671875000000002665e+00,4.375000000000007772e-01,8.593750000000008882e-01,-5.000000000000002220e-01,-1.187500000000000666e+00,-2.500000000000001776e+00,-1.812500000000001554e+00,3.328125000000002665e+00,5.250000000000003553e+00,1.703125000000001110e+00,-2.656250000000004996e-01,-8.562500000000005329e+00,-1.176562500000000711e+01,-6.671875000000004441e+00,-5.203125000000003553e+00,3.531250000000002220e+00,4.656250000000002665e+00,3.125000000000044409e-02,-1.453125000000000222e+00,-1.064062500000000711e+01,-1.096875000000000711e+01,-8.703125000000003553e+00,-7.765625000000004441e+00,1.687500000000000888e+00,3.578125000000002665e+00,5.093750000000002665e+00,8.281250000000005329e+00,4.515625000000003553e+00,6.671875000000003553e+00,7.140625000000004441e+00,6.156250000000004441e+00,5.906250000000003553e+00,1.984375000000001332e+00,1.609375000000000888e+00,-1.171875000000000888e+00,7.656250000000008882e-01,3.515625000000002665e+00,1.703125000000001332e+00,3.468750000000002220e+00,1.515625000000000888e+00,-7.187500000000003331e-01,-1.718750000000001388e-01,2.187500000000001943e-01,-7.500000000000003331e-01,-1.093750000000000666e+00,-2.000000000000001332e+00,-5.968750000000004441e+00,-4.671875000000003553e+00,-2.593750000000002220e+00,4.374999999999995559e-01,6.921875000000003553e+00,6.718750000000003553e+00,5.296875000000003553e+00,1.562500000000001554e+00,-2.640625000000001776e+00,-1.875000000000001332e+00,-3.562500000000002220e+00,-1.656250000000001110e+00,-2.703125000000001776e+00,-4.437500000000003553e+00,3.125000000000002220e-01,-2.812500000000000000e-01,2.578125000000001776e+00,2.890625000000001776e+00,-3.250000000000002665e+00,-2.281250000000001776e+00,-3.156250000000002665e+00,-1.859375000000001998e+00,4.750000000000003553e+00,5.500000000000003553e+00,6.328125000000003553e+00,9.187500000000007105e+00,6.484375000000004441e+00,4.765625000000003553e+00,3.265625000000002220e+00,-4.921875000000002665e+00,-7.734375000000003553e+00,-9.468750000000005329e+00,-9.234375000000005329e+00,-2.562500000000001332e+00,-5.000000000000003331e-01,2.265625000000001332e+00,-3.124999999999995559e-01,-3.750000000000001776e+00,-4.750000000000002665e+00,-4.937500000000002665e+00,1.093750000000001110e+00,2.468750000000002220e+00,6.359375000000003553e+00,5.406250000000003553e+00,2.062500000000000888e+00,4.171875000000002665e+00,6.406250000000005551e-01,2.531250000000001776e+00,3.390625000000002220e+00,2.156250000000001332e+00,4.437500000000002665e+00,3.484375000000002665e+00,1.734375000000001332e+00,-1.031250000000000444e+00,-5.562500000000004441e+00,-7.718750000000006217e+00,-6.750000000000005329e+00,-4.765625000000003553e+00,1.078125000000000444e+00,2.640625000000001776e+00,2.046875000000001332e+00,2.421875000000001332e+00,-1.437500000000001110e+00,1.171875000000000000e+00,3.343750000000001332e+00,3.234375000000001332e+00,4.046875000000001776e+00,-2.312500000000001776e+00,-5.734375000000003553e+00,-8.343750000000005329e+00,-9.796875000000007105e+00,-4.796875000000003553e+00,-1.203125000000000666e+00,4.859375000000002665e+00,8.859375000000005329e+00,1.064062500000000711e+01,9.218750000000005329e+00,3.687500000000001776e+00,2.890625000000001332e+00,-2.203125000000001776e+00,-3.562500000000002220e+00,-2.453125000000000888e+00,-7.750000000000003553e+00,-5.625000000000003553e+00,-5.265625000000003553e+00,-3.375000000000001776e+00,3.406250000000001776e+00,4.359375000000002665e+00,7.875000000000003553e+00,7.078125000000003553e+00,3.250000000000001776e+00,9.375000000000006661e-01,-5.125000000000002665e+00,-8.328125000000005329e+00,-9.187500000000007105e+00,-7.109375000000005329e+00,-1.781250000000001332e+00,3.140625000000001776e+00,7.125000000000004441e+00,6.234375000000003553e+00,2.890625000000001776e+00,-2.343750000000000000e-01,-4.562500000000002665e+00,-3.812500000000002665e+00,-1.921875000000001110e+00,-1.312500000000000666e+00,4.375000000000001110e-01,-2.765625000000001776e+00,-4.968750000000003553e+00,-4.375000000000002665e+00,-3.328125000000001776e+00,1.562500000000000666e+00,3.843750000000002220e+00,2.609375000000001776e+00,2.968749999999997780e-01,-3.203125000000002220e+00,-4.406250000000002665e+00,-3.140625000000001776e+00,-7.812500000000004441e-01,-2.343750000000002776e-01,-9.375000000000011102e-02,2.343750000000001943e-01,2.656250000000002220e-01,3.109375000000001776e+00,4.203125000000001776e+00,2.390625000000001332e+00,-1.296875000000000888e+00,-6.437500000000003553e+00,-8.734375000000005329e+00,-9.031250000000005329e+00,-4.531250000000002665e+00,-7.031250000000008882e-01,2.250000000000000888e+00,7.265625000000004441e+00,6.625000000000003553e+00,8.343750000000005329e+00,8.734375000000005329e+00,5.906250000000003553e+00,4.984375000000003553e+00,1.140625000000000888e+00,-4.031250000000003553e+00,-9.156250000000007105e+00,-1.042187500000000711e+01,-8.578125000000005329e+00,-1.406250000000000000e-01,1.076562500000000711e+01,1.360937500000001066e+01,1.232812500000000888e+01,1.312500000000000888e+00,-1.279687500000000888e+01,-1.720312500000001066e+01,-1.640625000000001066e+01,-6.781250000000004441e+00,8.234375000000007105e+00,1.620312500000001066e+01,2.057812500000001421e+01,2.159375000000001421e+01,1.481250000000000888e+01,8.859375000000007105e+00,1.437500000000000888e+00,-8.140625000000003553e+00,-1.214062500000000711e+01,-1.223437500000000711e+01,-6.109375000000002665e+00,2.109375000000001332e+00,8.062500000000005329e+00,1.057812500000000711e+01,7.859375000000003553e+00,1.006250000000000711e+01,1.998437500000001421e+01,3.128125000000002487e+01,4.198437500000002842e+01,3.504687500000002842e+01,4.343750000000005329e+00,-3.598437500000002842e+01,-8.085937500000005684e+01,-1.059375000000000853e+02,-9.971875000000007105e+01,-7.353125000000005684e+01,-3.067187500000002842e+01,5.656250000000000000e+00,2.106250000000001066e+01,2.298437500000001421e+01,1.659375000000001066e+01,1.290625000000001066e+01,2.204687500000001776e+01,3.710937500000002842e+01,4.556250000000002842e+01,4.976562500000004263e+01,4.589062500000002842e+01,3.396875000000002132e+01,2.737500000000002132e+01,1.628125000000001066e+01,5.281250000000003553e+00,2.343750000000000888e+00,-6.406250000000011102e-01,6.140625000000004441e+00,1.103125000000000711e+01,8.312500000000003553e+00,1.796875000000000888e+00,-1.345312500000000711e+01,-2.220312500000001421e+01,-2.706250000000001776e+01,-2.843750000000002132e+01,-2.307812500000001776e+01,-2.145312500000001421e+01,-1.700000000000001066e+01,-1.001562500000000711e+01,-6.671875000000004441e+00,-2.687500000000001776e+00,-1.890625000000001110e+00,-7.437500000000003553e+00,-1.178125000000000711e+01,-1.595312500000001066e+01,-1.850000000000001066e+01,-1.156250000000000711e+01,-1.890625000000001554e+00,1.054687500000000711e+01,2.307812500000001421e+01,2.434375000000001776e+01,2.134375000000001421e+01,1.178125000000000711e+01,-1.437500000000000222e+00,-5.968750000000003553e+00,-9.906250000000007105e+00,-7.640625000000005329e+00,1.375000000000000666e+00,5.421875000000003553e+00,1.257812500000000711e+01,1.595312500000001066e+01,1.104687500000000711e+01,7.750000000000005329e+00,3.750000000000013323e-01,-5.578125000000002665e+00,-6.281250000000003553e+00,-5.515625000000003553e+00,-2.421875000000001776e+00,1.250000000000001110e-01,2.703125000000001776e+00,1.828125000000001110e+00,-1.562500000000011102e-02,2.500000000000000555e-01,-1.265625000000000666e+00,-1.875000000000000888e+00,-1.343750000000000666e+00,-5.000000000000002665e+00,-8.656250000000005329e+00,-7.265625000000005329e+00,-5.640625000000003553e+00,-2.968750000000004441e-01,6.515625000000003553e+00,6.234375000000003553e+00,2.984375000000001776e+00,-4.062500000000000000e-01,-3.718750000000001776e+00,-2.765625000000001332e+00,1.875000000000001332e+00,3.328125000000002220e+00,2.234375000000001776e+00,-1.078125000000000666e+00,-6.359375000000003553e+00,-8.109375000000005329e+00
-1.000000000000000355e+01,-3.625000000000000888e+00,6.750000000000002665e+00,7.750000000000002665e+00,6.000000000000002665e+00,8.500000000000003553e+00,1.874999999999991118e-01,-1.631250000000000711e+01,-1.100000000000000355e+01,5.375000000000001776e+00,8.750000000000003553e+00,1.162500000000000533e+01,5.000000000000002665e+00,-1.731250000000000711e+01,-1.187500000000000711e+01,1.562500000000000711e+01,1.237500000000000711e+01,-9.062500000000003553e+00,-1.562500000000000711e+01,-5.062500000000002665e+00,1.668750000000000711e+01,1.693750000000000711e+01,-1.243750000000000711e+01,-2.237500000000001066e+01,-1.000000000000000000e+00,1.162500000000000533e+01,1.025000000000000355e+01,6.187500000000002665e+00,-8.125000000000003553e+00,-8.312500000000003553e+00,5.000000000000001776e+00,-4.062500000000001776e+00,-5.125000000000001776e+00,1.356250000000000533e+01,2.875000000000000000e+00,-1.750000000000000711e+01,-1.500000000000000000e+00,1.362500000000000533e+01,-3.937500000000001776e+00,-8.937500000000003553e+00,1.243750000000000711e+01,1.037500000000000711e+01,-1.431250000000000711e+01,-1.262500000000000711e+01,1.100000000000000533e+01,1.793750000000000711e+01,1.812500000000000888e+00,-1.656250000000000711e+01,-1.218750000000000355e+01,1.143750000000000711e+01,1.293750000000000711e+01,-9.000000000000005329e+00,-7.875000000000004441e+00,4.062500000000001776e+00,2.562500000000001332e+00,6.312500000000001776e+00,-1.187500000000001776e+00,-1.418750000000000711e+01,1.062500000000000000e+00,1.187500000000000533e+01,-2.500000000000000000e-01,-9.625000000000003553e+00,-7.250000000000002665e+00,4.062500000000000888e+00,4.937500000000001776e+00,5.000000000000003331e-01,6.062500000000001776e+00,-1.062500000000000888e+00,-1.087500000000000355e+01,-3.000000000000000888e+00,6.000000000000002665e+00,6.125000000000002665e+00,-3.937500000000001776e+00,-1.131250000000000355e+01,-3.562500000000001332e+00,3.625000000000000888e+00,6.812500000000003553e+00,7.500000000000003553e+00,-7.937500000000001776e+00,-1.206250000000000355e+01,1.012500000000000355e+01,9.625000000000003553e+00,-1.106250000000000355e+01,-3.125000000000000888e+00,1.631250000000000711e+01,8.812500000000003553e+00,-1.293750000000000711e+01,-1.581250000000000711e+01,2.500000000000001776e+00,9.750000000000003553e+00,4.937500000000001776e+00,2.937500000000001332e+00,-9.875000000000003553e+00,-1.343750000000000533e+01,9.437500000000005329e+00,2.012500000000001066e+01,3.500000000000001776e+00,-7.500000000000003553e+00,-4.750000000000002665e+00,-7.625000000000003553e+00,-4.125000000000001776e+00,6.750000000000002665e+00,6.000000000000001776e+00,3.625000000000001332e+00,-2.750000000000000888e+00,-1.181250000000000533e+01,7.500000000000000000e-01,1.693750000000000711e+01,5.937500000000001776e+00,-1.412500000000000533e+01,-1.193750000000000355e+01,5.000000000000002665e+00,1.025000000000000533e+01,2.562500000000000888e+00,1.875000000000000666e+00,5.875000000000002665e+00,-6.562500000000001776e+00,-1.593750000000000711e+01,1.875000000000000000e+00,1.843750000000000711e+01,5.937500000000003553e+00,-1.362500000000000711e+01,-4.937500000000003553e+00,1.118750000000000533e+01,-2.562500000000000000e+00,-1.587500000000000711e+01,2.000000000000000000e+00,1.006250000000000355e+01,-9.437500000000005329e+00,-8.625000000000003553e+00,9.812500000000003553e+00,6.375000000000003553e+00,1.062500000000000888e+00,7.687500000000003553e+00,5.500000000000001776e+00,-4.937500000000001776e+00,-1.362500000000000533e+01,-5.187500000000001776e+00,1.575000000000000888e+01,1.006250000000000711e+01,-1.281250000000000711e+01,-7.562500000000004441e+00,7.750000000000003553e+00,1.750000000000001332e+00,-3.625000000000001776e+00,-2.687500000000001332e+00,-4.000000000000001776e+00,1.687500000000000888e+00,7.187500000000003553e+00,1.100000000000000533e+01,7.625000000000003553e+00,-6.375000000000003553e+00,-6.312500000000003553e+00,-2.062500000000000888e+00,-5.500000000000002665e+00,3.500000000000000888e+00,8.250000000000003553e+00,-2.562500000000000000e+00,-3.437500000000000000e+00,1.875000000000003331e-01,-1.375000000000000888e+00,-2.562500000000001776e+00,-1.068750000000000355e+01,-6.937500000000002665e+00,1.281250000000000711e+01,1.025000000000000533e+01,-8.125000000000002220e-01,2.250000000000000888e+00,-4.187500000000002665e+00,-1.000000000000000533e+01,-8.812500000000003553e+00,-1.793750000000001066e+01,-1.025000000000000533e+01,9.750000000000005329e+00,9.562500000000005329e+00,1.556250000000000711e+01,2.287500000000001421e+01,-5.312500000000001776e+00,-2.962500000000001421e+01,-8.062500000000003553e+00,1.956250000000001066e+01,1.456250000000000711e+01,4.250000000000001776e+00,9.500000000000005329e+00,7.250000000000003553e+00,-6.812500000000003553e+00,-1.237500000000000711e+01,-8.687500000000003553e+00,-1.875000000000001332e+00,4.625000000000001776e+00,-4.562500000000001776e+00,-1.381250000000000711e+01,4.312500000000000000e+00,1.618750000000000711e+01,-1.187500000000000888e+00,-1.081250000000000533e+01,-3.562500000000001776e+00,4.750000000000002665e+00,1.506250000000000711e+01,1.137500000000000355e+01,-8.937500000000003553e+00,-2.118750000000000711e+01,-1.350000000000000711e+01,1.393750000000000711e+01,2.150000000000001066e+01,-1.056250000000000355e+01,-2.081250000000001066e+01,6.250000000000000000e-02,6.687500000000003553e+00,7.687500000000003553e+00,1.062500000000000000e+00,-2.043750000000001066e+01,-1.325000000000000533e+01,1.206250000000000711e+01,6.000000000000003553e+00,-4.812500000000002665e+00,7.312500000000002665e+00,1.437500000000000888e+00,-2.087500000000001066e+01,-5.750000000000003553e+00,1.137500000000000711e+01,-6.812500000000002665e+00,-1.575000000000000711e+01,-7.875000000000003553e+00,7.000000000000003553e+00,2.237500000000001066e+01,1.900000000000001066e+01,7.312500000000003553e+00,1.500000000000000888e+00,1.250000000000000833e-01,2.500000000000001665e-01,6.250000000000005551e-02,-6.250000000000002776e-02,6.250000000000002776e-02,0.000000000000000000e+00,0.000000000000000000e+00,1.875000000000000833e-01,0.000000000000000000e+00,-1.250000000000000555e-01,2.500000000000001110e-01,4.375000000000002220e-01,1.875000000000001110e-01,-3.125000000000001665e-01,-6.250000000000003331e-01,-1.875000000000001110e-01,4.375000000000002220e-01,3.125000000000001665e-01,-1.875000000000001110e-01,-1.875000000000001110e-01,0.000000000000000000e+00,-6.250000000000002776e-02,0.000000000000000000e+00,1.250000000000000555e-01,0.000000000000000000e+00,-1.250000000000000555e-01,0.000000000000000000e+00,6.250000000000002776e-02,6.250000000000002776e-02,2.500000000000001110e-01,-6.250000000000000000e-02,-5.625000000000002220e-01,-6.250000000000005551e-02,5.625000000000002220e-01,3.125000000000001665e-01,-1.875000000000001110e-01,-1.250000000000000833e-01,3.125000000000001110e-01,-6.250000000000005551e-02,-6.875000000000004441e-01,-1.875000000000001110e-01,4.375000000000002220e-01,3.125000000000001110e-01,0.000000000000000000e+00,-1.250000000000000555e-01,-6.250000000000002776e-02,6.250000000000002776e-02,6.250000000000002776e-02,-1.875000000000001110e-01,-2.500000000000001110e-01,1.250000000000000833e-01,1.875000000000001110e-01,-2.500000000000001110e-01,-1.250000000000000555e-01,4.375000000000002220e-01,3.125000000000001665e-01,-6.250000000000002776e-02,-1.875000000000000833e-01,-2.500000000000001110e-01,-1.250000000000000555e-01,-6.250000000000002776e-02,6.250000000000002776e-02,4.375000000000002220e-01,3.125000000000001665e-01,-6.250000000000004163e-02,-1.387778780781445676e-17,-2.500000000000001110e-01,-5.625000000000002220e-01,1.250000000000001110e-01,5.625000000000003331e-01,-6.250000000000000000e-02,-2.500000000000001110e-01,1.250000000000000555e-01,-6.250000000000005551e-02,-3.750000000000002220e-01,6.250000000000000000e-02,5.000000000000002220e-01,6.250000000000000000e-02,-3.750000000000002220e-01,-1.250000000000000833e-01,1.250000000000000555e-01,1.250000000000000555e-01,1.875000000000000833e-01,1.250000000000000555e-01,-1.875000000000001110e-01,-2.500000000000001110e-01,1.875000000000000833e-01,6.250000000000003331e-01,8.125000000000004441e-01,3.562500000000001776e+00,1.012500000000000533e+01,1.175000000000000533e+01,-6.250000000000008882e-01,-1.868750000000001066e+01,-1.668750000000000711e+01,1.050000000000000533e+01,2.887500000000001421e+01,1.825000000000001066e+01,-9.312500000000003553e+00,-2.962500000000001421e+01,-1.312500000000000533e+01,1.793750000000000711e+01,1.081250000000000533e+01,-7.250000000000003553e+00,-1.500000000000000888e+00,1.250000000000000000e-01,3.250000000000000888e+00,9.000000000000003553e+00,-1.843750000000000711e+01,-2.856250000000001066e+01,3.006250000000001066e+01,5.593750000000002132e+01,-3.500000000000003553e+00,-3.950000000000001421e+01,-2.300000000000001066e+01,-5.750000000000003553e+00,6.125000000000002665e+00,1.031250000000000355e+01,2.425000000000000711e+01,2.256250000000000711e+01,-3.412500000000001421e+01,-5.106250000000002132e+01,7.750000000000003553e+00,3.200000000000001421e+01,1.350000000000000355e+01,1.487500000000000711e+01,6.937500000000004441e+00,-1.550000000000000711e+01,-1.256250000000000711e+01,-8.062500000000003553e+00,-1.562500000000000711e+01,-1.512500000000000711e+01,4.312500000000000888e+00,2.962500000000001421e+01,1.393750000000000888e+01,-2.262500000000000711e+01,-1.137500000000000533e+01,2.081250000000000711e+01,1.100000000000000711e+01,-1.118750000000000355e+01,-6.937500000000003553e+00,-5.000000000000001776e+00,-4.687500000000001776e+00,8.375000000000003553e+00,1.343750000000000711e+01,4.500000000000002665e+00,-1.143750000000000355e+01,-1.393750000000000533e+01,-3.937500000000001776e+00,-2.500000000000000888e+00,6.625000000000002665e+00,1.375000000000000533e+01,-4.500000000000001776e+00,-1.243750000000000533e+01,3.875000000000001776e+00,8.125000000000003553e+00,-2.750000000000000888e+00,-5.812500000000002665e+00,-1.937500000000000888e+00,-1.875000000000000833e-01,6.250000000000002776e-02,3.750000000000001665e-01,3.125000000000001110e-01,0.000000000000000000e+00,-6.250000000000002776e-02,-6.250000000000002776e-02,-1.250000000000000555e-01,0.000000000000000000e+00,6.250000000000002776e-02,-1.875000000000001110e-01,-1.875000000000001110e-01,1.250000000000000555e-01,0.000000000000000000e+00,-1.250000000000000555e-01,2.500000000000001110e-01,3.125000000000001110e-01,-6.250000000000002776e-02,-1.875000000000000833e-01,-1.312500000000000444e+00,-3.562500000000001332e+00,-9.375000000000004441e-01,5.937500000000001776e+00,5.250000000000001776e+00,-3.312500000000001332e+00,-6.812500000000003553e+00,-5.375000000000001776e+00,-4.937500000000001776e+00,2.937500000000000888e+00,7.562500000000002665e+00,-1.750000000000000888e+00,2.812500000000001776e+00,1.175000000000000711e+01,-1.131250000000000355e+01,-3.262500000000001421e+01,-2.937500000000001776e+00,3.668750000000001421e+01,1.775000000000000711e+01,-2.156250000000001066e+01,-1.062500000000000355e+01,2.087500000000001066e+01,1.450000000000000711e+01,-1.575000000000000711e+01,-1.581250000000000711e+01,4.812500000000001776e+00,-1.937500000000000888e+00,-9.437500000000003553e+00,7.562500000000002665e+00,9.062500000000003553e+00,-6.125000000000001776e+00,-5.187500000000001776e+00,1.200000000000000533e+01,2.175000000000000711e+01,5.875000000000000888e+00,-1.668750000000001066e+01,-2.500000000000001421e+01,-1.737500000000000711e+01,5.562500000000001776e+00,1.512500000000000711e+01,2.687500000000001332e+00,-9.625000000000005329e+00,-1.112500000000000533e+01,1.500000000000000533e+01,3.325000000000001421e+01,8.125000000000003553e+00,-1.037500000000000711e+01,-1.393750000000000711e+01,-1.725000000000000711e+01,4.750000000000003553e+00,1.568750000000000888e+01,-9.000000000000005329e+00,-1.762500000000001066e+01,1.000000000000000888e+00,2.043750000000001066e+01,1.850000000000000711e+01,-7.187500000000003553e+00,-1.212500000000000533e+01,3.687500000000001332e+00,-3.250000000000001776e+00,-8.687500000000003553e+00,1.250000000000000444e+00,-6.750000000000002665e+00,-1.162500000000000355e+01,9.250000000000003553e+00,2.168750000000000711e+01,7.312500000000002665e+00,-1.600000000000000711e+01,-1.775000000000000711e+01,1.137500000000000533e+01,1.850000000000000711e+01,-1.256250000000000711e+01,-1.600000000000000711e+01,8.062500000000003553e+00,8.937500000000003553e+00,2.875000000000000888e+00,1.106250000000000355e+01,1.000000000000000355e+01,-7.250000000000002665e+00,-1.881250000000000711e+01,-8.625000000000003553e+00,3.562500000000000888e+00,-3.750000000000008882e-01,3.687500000000002220e+00,1.150000000000000711e+01,1.312500000000000888e+00,-5.625000000000002665e+00,-2.937500000000001332e+00,-6.625000000000001776e+00,-7.500000000000000000e-01,1.137500000000000355e+01,1.874999999999991118e-01,-1.050000000000000533e+01,-1.937500000000000888e+00,2.562500000000000888e+00,3.500000000000000888e+00,8.687500000000003553e+00,9.562500000000003553e+00,3.500000000000001776e+00,-7.375000000000003553e+00,-2.006250000000001066e+01,-1.225000000000000711e+01,1.262500000000000355e+01,1.250000000000000355e+01,-6.750000000000003553e+00,-4.250000000000001776e+00,2.237500000000000711e+01,1.762500000000000711e+01,-2.718750000000001421e+01,-2.956250000000001421e+01,4.500000000000001776e+00,1.075000000000000355e+01,7.375000000000002665e+00,7.125000000000002665e+00,-5.000000000000000000e-01,-2.125000000000000888e+00,-3.437500000000001776e+00,-2.687500000000001332e+00,1.456250000000000711e+01,1.337500000000000711e+01,-9.625000000000003553e+00,-1.087500000000000355e+01,-1.500000000000000666e+00,-2.687500000000000888e+00,-8.437500000000003553e+00,-7.437500000000003553e+00,5.750000000000002665e+00,9.062500000000003553e+00,1.562500000000000888e+00,1.087500000000000355e+01,1.400000000000000533e+01,-1.437500000000000533e+01,-2.981250000000001421e+01,-6.062500000000003553e+00,1.768750000000000711e+01,9.875000000000003553e+00,-5.500000000000001776e+00,1.437500000000000888e+00,1.081250000000000533e+01,-4.500000000000002665e+00,-2.512500000000001421e+01,-9.937500000000003553e+00,2.900000000000001421e+01,3.187500000000001421e+01,-4.125000000000001776e+00,-2.043750000000000711e+01,-1.256250000000000533e+01,-8.875000000000003553e+00,7.937500000000005329e+00,1.762500000000000711e+01,-8.375000000000005329e+00,-1.381250000000000711e+01,7.187500000000003553e+00,2.437500000000001776e+00,1.687500000000001776e+00,2.150000000000001066e+01,7.125000000000003553e+00,-2.968750000000001066e+01,-2.200000000000000711e+01,1.356250000000000533e+01,8.187500000000003553e+00,-1.556250000000000711e+01,7.437500000000003553e+00,3.287500000000001421e+01,5.000000000000000000e-01,-2.287500000000001066e+01,2.500000000000000000e-01,7.000000000000003553e+00,-4.687500000000001776e+00,-6.750000000000003553e+00,5.000000000000000000e-01,6.000000000000003553e+00,-6.750000000000003553e+00,-1.562500000000001776e+00,1.881250000000000711e+01,1.625000000000000000e+00,-1.837500000000000711e+01,-5.750000000000001776e+00,3.125000000000000000e-01,-4.375000000000001776e+00,1.362500000000000711e+01,2.162500000000001066e+01,-1.056250000000000355e+01,-2.406250000000001066e+01,5.812500000000003553e+00,1.643750000000000711e+01,-8.000000000000001776e+00,-1.037500000000000355e+01,8.687500000000003553e+00,5.437500000000002665e+00,3.437500000000001776e+00,1.943750000000001066e+01,4.125000000000003553e+00,-3.131250000000001421e+01,-2.175000000000001066e+01,7.125000000000003553e+00,1.306250000000000711e+01,2.075000000000001066e+01,1.631250000000000711e+01,-1.750000000000001066e+01,-2.712500000000001421e+01,2.750000000000001776e+00,2.050000000000001066e+01,9.375000000000005329e+00,-8.625000000000003553e+00,-1.118750000000000355e+01,1.087500000000000355e+01,1.725000000000000711e+01,-7.562500000000001776e+00,-8.250000000000001776e+00,1.087500000000000533e+01,5.125000000000001776e+00,-4.625000000000001776e+00,-1.187499999999999556e+00,4.375000000000009437e-01,-4.687500000000002665e+00,-8.125000000000005329e+00,4.562500000000001776e+00,7.125000000000003553e+00,-1.893750000000000711e+01,-2.625000000000001066e+01,-7.250000000000003553e+00,3.375000000000001776e+00,1.068750000000000533e+01,9.437500000000003553e+00,-1.143750000000000533e+01,-1.950000000000000711e+01,9.125000000000003553e+00,4.893750000000002132e+01,4.125000000000002132e+01,-7.000000000000000000e+00,-1.687500000000000711e+01,-4.875000000000001776e+00,-2.987500000000001421e+01,-4.737500000000002132e+01,-1.468750000000000355e+01,2.506250000000001066e+01,2.200000000000000711e+01,-1.306250000000000533e+01,-2.418750000000001066e+01,4.875000000000002665e+00,2.087500000000001421e+01,2.937500000000002665e+00,-9.750000000000003553e+00,-1.218750000000000533e+01,-1.206250000000000711e+01,8.875000000000003553e+00,2.387500000000001421e+01,4.312500000000001776e+00,-8.125000000000003553e+00,5.312500000000002665e+00,4.625000000000001776e+00,-8.750000000000005329e+00,-6.875000000000008882e-01,8.625000000000003553e+00,-5.187500000000001776e+00,-1.143750000000000533e+01,5.375000000000001776e+00,1.556250000000000711e+01,1.187500000000000533e+01,6.812500000000002665e+00,-4.500000000000002665e+00,-9.750000000000005329e+00,-1.187500000000001332e+00,8.250000000000003553e+00,1.375000000000000711e+01,6.875000000000003553e+00,-2.937500000000001332e+00,-7.437500000000003553e+00,-9.000000000000003553e+00,3.000000000000000888e+00,1.337500000000000711e+01,9.500000000000005329e+00,1.312500000000000000e+00,-2.937500000000001776e+00,-9.375000000000001110e-01,-4.625000000000002665e+00,-5.562500000000002665e+00,3.750000000000002665e+00,6.875000000000003553e+00,-2.125000000000001332e+00,-1.550000000000000711e+01,-8.875000000000003553e+00,7.750000000000002665e+00,-2.250000000000001776e+00,-1.212500000000000533e+01,1.437500000000000000e+00,8.250000000000003553e+00,6.250000000000003553e+00,1.562500000000000888e+00,-1.400000000000000711e+01,-1.156250000000000711e+01,1.300000000000000711e+01,1.125000000000000711e+01,-4.437500000000001776e+00,2.625000000000000444e+00,2.812500000000000000e+00,-1.231250000000000533e+01,-1.581250000000000711e+01,-1.000000000000001776e+00,1.687500000000000711e+01,9.062500000000003553e+00,-6.125000000000002665e+00,-4.437500000000001776e+00,-2.187500000000000888e+00,-1.687500000000000666e+00,-6.062500000000002665e+00,-7.687500000000003553e+00,2.437500000000000888e+00,5.687500000000002665e+00,6.687500000000003553e+00,3.500000000000001776e+00,-8.187500000000003553e+00,-1.375000000000001776e+00,9.312500000000003553e+00,2.562500000000000888e+00,7.500000000000000000e-01,5.000000000000001776e+00,-4.250000000000002665e+00,-8.750000000000003553e+00,7.062500000000002665e+00,4.062500000000001776e+00,-8.625000000000003553e+00,9.000000000000005329e+00,1.143750000000000711e+01,-1.631250000000000711e+01,-1.118750000000000533e+01,1.762500000000000711e+01,9.625000000000005329e+00,-1.556250000000000711e+01,-9.187500000000003553e+00,1.362500000000000711e+01,9.312500000000003553e+00,-1.968750000000000711e+01,-1.743750000000000711e+01,1.775000000000000711e+01,2.231250000000000711e+01,-2.187500000000001776e+00,-1.093750000000000533e+01,-4.937500000000001776e+00,-2.812500000000001332e+00,2.750000000000000888e+00,1.131250000000000533e+01,-9.375000000000000000e-01,-1.443750000000000711e+01,-5.062500000000002665e+00,5.437500000000002665e+00,9.000000000000003553e+00,4.687500000000002665e+00,-3.375000000000001776e+00,-6.062500000000003553e+00,-9.000000000000003553e+00,3.750000000000017764e-01,1.231250000000000711e+01,1.562500000000001776e+00,-3.375000000000001776e+00,3.625000000000000888e+00,-2.000000000000000888e+00,2.687500000000001776e+00,1.331250000000000711e+01,-2.375000000000000888e+00,-1.412500000000000533e+01,-3.625000000000000888e+00,1.062500000000000444e+00,-5.312500000000001776e+00,-1.687500000000000444e+00,1.193750000000000533e+01,6.625000000000002665e+00,-9.250000000000003553e+00,-8.500000000000003553e+00,-6.875000000000004441e-01,-1.312500000000000444e+00,8.125000000000008882e-01,1.243750000000000533e+01,6.187500000000001776e+00,-1.012500000000000533e+01,-7.750000000000003553e+00,5.062500000000001776e+00,1.293750000000000711e+01,3.125000000000000000e-01,-1.412500000000000711e+01,-1.000000000000000000e+00,1.381250000000000711e+01,5.562500000000002665e+00,-5.875000000000002665e+00,-4.812500000000001776e+00,-1.875000000000000888e+00,-3.500000000000001776e+00,-2.500000000000001332e+00,-6.250000000000001110e-01,6.250000000000011102e-02,1.018750000000000355e+01,9.062500000000003553e+00,-1.387500000000000711e+01,-1.418750000000000711e+01,8.562500000000003553e+00,1.431250000000000533e+01,3.125000000000000888e+00,-3.750000000000001776e+00,-5.187500000000002665e+00,-1.025000000000000533e+01,-2.187500000000000888e+00,1.118750000000000711e+01,-4.125000000000001776e+00,-1.593750000000000711e+01,8.062500000000003553e+00,2.218750000000001066e+01,1.625000000000000000e+00,-8.187500000000003553e+00,-7.500000000000000000e-01,-5.250000000000002665e+00,2.000000000000000888e+00,1.206250000000000533e+01,-6.500000000000003553e+00,-1.500000000000000711e+01,1.125000000000000000e+00,7.000000000000002665e+00,-3.750000000000000888e+00,-3.500000000000000888e+00,1.118750000000000355e+01,6.437500000000002665e+00,-6.625000000000002665e+00,-3.125000000000000000e-01,4.750000000000001776e+00,-2.062500000000001332e+00,-7.250000000000003553e+00,-8.375000000000003553e+00,-4.687500000000001776e+00,7.375000000000003553e+00,1.312500000000000711e+01,8.750000000000008882e-01,-7.250000000000003553e+00,3.750000000000004441e-01,4.750000000000002665e+00,-2.937500000000000888e+00,-1.175000000000000533e+01,-2.312500000000001776e+00,1.612500000000000711e+01,9.250000000000003553e+00,-1.343750000000000711e+01,-1.700000000000000711e+01,1.000000000000000888e+00,1.362500000000000711e+01,4.000000000000001776e+00,-4.687500000000002665e+00,2.312500000000000888e+00,2.000000000000000888e+00,-8.437500000000003553e+00,-6.937500000000003553e+00,4.062500000000001776e+00,8.062500000000003553e+00,3.500000000000001776e+00,-6.500000000000003553e+00,-1.006250000000000533e+01,2.437500000000000888e+00,1.106250000000000355e+01,4.875000000000001776e+00,-8.750000000000003331e-01,-3.750000000000002220e+00,-9.312500000000003553e+00,-7.937500000000003553e+00,3.125000000000000888e+00,6.562500000000002665e+00,8.750000000000004441e-01,-4.625000000000001776e+00,-2.250000000000000888e+00,1.181250000000000355e+01,9.562500000000003553e+00,-8.750000000000003553e+00,-4.875000000000001776e+00,9.437500000000005329e+00,5.187500000000002665e+00,-4.250000000000002665e+00,-7.562500000000003553e+00,-1.187500000000000533e+01,-7.062500000000003553e+00,7.375000000000003553e+00,1.606250000000000711e+01,1.500000000000000711e+01,2.625000000000001332e+00,-9.437500000000003553e+00,-1.662500000000000711e+01,-2.056250000000000711e+01,-1.187500000000000000e+00,2.031250000000000711e+01,9.125000000000003553e+00,-7.499999999999997780e-01,7.375000000000003553e+00,5.750000000000002665e+00,1.937500000000000444e+00,3.125000000000000888e+00,-9.375000000000002220e-01,-5.062500000000001776e+00,-1.106250000000000533e+01,-1.500000000000000711e+01,2.187500000000000888e+00,2.356250000000001066e+01,1.050000000000000533e+01,-1.156250000000000533e+01,-1.500000000000000000e+00,2.187500000000001776e+00,-1.237500000000000533e+01,1.281250000000000355e+01,5.456250000000002132e+01,3.825000000000001421e+01,-2.337500000000001421e+01,-5.912500000000002842e+01,-4.268750000000001421e+01,-2.906250000000001421e+01,-3.881250000000002132e+01,-1.825000000000000711e+01,2.656250000000001421e+01,4.675000000000001421e+01,2.662500000000000711e+01,-2.481250000000001421e+01,-4.531250000000002132e+01,5.062500000000003553e+00,4.600000000000001421e+01,2.625000000000000711e+01,6.437500000000002665e+00,5.312500000000002665e+00,1.312500000000000888e+00,8.062500000000003553e+00,1.650000000000000711e+01,9.375000000000005329e+00,-9.750000000000005329e+00,-2.387500000000001066e+01,-6.562500000000001776e+00,2.281250000000001066e+01,2.681250000000001066e+01,3.875000000000000000e+00,-2.081250000000001066e+01,-2.212500000000001066e+01,-8.375000000000003553e+00,5.062500000000001776e+00,3.875000000000001776e+00,-1.462500000000000711e+01,-1.706250000000000711e+01,-1.000000000000000444e+00,7.000000000000003553e+00,7.812500000000003553e+00,-7.500000000000000000e-01,-1.187500000000000533e+01,-1.312500000000001776e+00,8.500000000000003553e+00,-8.750000000000003553e+00,-2.275000000000000711e+01,-8.250000000000005329e+00,1.587500000000000711e+01,1.750000000000001066e+01,4.625000000000002665e+00,8.250000000000003553e+00,1.093750000000000355e+01,-3.937500000000001776e+00,-1.487500000000000711e+01,-1.012500000000000533e+01,6.625000000000002665e+00,7.875000000000003553e+00,-9.500000000000003553e+00,-2.875000000000000888e+00,1.625000000000000711e+01,1.418750000000000711e+01,2.062500000000000444e+00,-1.056250000000000355e+01,-1.056250000000000355e+01,4.937500000000002665e+00,5.375000000000003553e+00,-8.750000000000003553e+00,-4.937500000000002665e+00,8.312500000000003553e+00,5.625000000000002665e+00,3.750000000000004996e-01,-3.312500000000001332e+00,-1.050000000000000533e+01,1.187500000000000000e+00,1.518750000000000711e+01,-1.437500000000000000e+00,-1.262500000000000533e+01,-1.250000000000000444e+00,-4.375000000000001776e+00,-7.812500000000003553e+00,8.375000000000003553e+00,1.425000000000000533e+01,5.500000000000002665e+00,-4.875000000000000888e+00,-1.606250000000000711e+01,-8.562500000000003553e+00,1.406250000000000711e+01,1.268750000000000711e+01,-5.125000000000001776e+00,-5.187500000000001776e+00,2.375000000000001332e+00,-2.937500000000000888e+00
-1.875000000000000355e+01,9.000000000000001776e+00,-3.500000000000000444e+00,9.000000000000001776e+00,-5.250000000000001776e+00,3.000000000000000888e+00,1.100000000000000355e+01,-1.600000000000000355e+01,-8.000000000000000000e+00,1.575000000000000355e+01,-6.000000000000001776e+00,-1.000000000000000000e+00,2.000000000000000355e+01,-1.925000000000000355e+01,-1.300000000000000355e+01,1.925000000000000355e+01,1.050000000000000355e+01,-2.375000000000000711e+01,1.750000000000000355e+01,-2.500000000000000711e+01,1.700000000000000355e+01,1.550000000000000355e+01,-1.475000000000000355e+01,-9.250000000000001776e+00,-3.250000000000000000e+00,2.250000000000000355e+01,-2.275000000000000355e+01,2.475000000000000711e+01,-8.250000000000003553e+00,-2.225000000000000355e+01,2.975000000000000711e+01,-1.050000000000000355e+01,-1.925000000000000355e+01,2.700000000000000711e+01,-7.500000000000000000e-01,-1.725000000000000355e+01,-3.750000000000001776e+00,2.450000000000000711e+01,-1.175000000000000355e+01,-1.325000000000000355e+01,1.350000000000000355e+01,1.225000000000000355e+01,-1.550000000000000355e+01,-1.075000000000000355e+01,1.625000000000000355e+01,-1.250000000000000444e+00,1.000000000000000355e+01,-1.500000000000000355e+01,-4.000000000000000888e+00,1.000000000000000000e+00,2.125000000000000711e+01,-1.425000000000000355e+01,-1.875000000000000355e+01,3.850000000000000711e+01,-3.725000000000000711e+01,2.350000000000000711e+01,4.500000000000000000e+00,-2.325000000000000355e+01,4.500000000000000000e+00,2.325000000000000711e+01,-2.725000000000000711e+01,2.225000000000000355e+01,-2.400000000000000711e+01,9.750000000000003553e+00,1.425000000000000355e+01,-2.550000000000000711e+01,2.125000000000000711e+01,3.250000000000000000e+00,-2.850000000000000711e+01,3.075000000000000711e+01,-2.975000000000000711e+01,3.325000000000000711e+01,-2.500000000000000711e+01,1.325000000000000355e+01,-2.200000000000000355e+01,3.000000000000000711e+01,-3.025000000000000711e+01,3.025000000000000711e+01,-1.025000000000000355e+01,-1.950000000000000355e+01,1.700000000000000355e+01,1.150000000000000178e+01,-1.925000000000000355e+01,-2.000000000000000000e+00,1.625000000000000355e+01,0.000000000000000000e+00,-5.000000000000000888e+00,-7.750000000000001776e+00,-7.000000000000001776e+00,3.125000000000000711e+01,-3.700000000000000711e+01,3.525000000000000711e+01,-1.725000000000000355e+01,-1.400000000000000355e+01,1.600000000000000355e+01,0.000000000000000000e+00,1.500000000000000355e+01,-2.950000000000000711e+01,2.600000000000000711e+01,-1.700000000000000355e+01,-4.000000000000000888e+00,1.300000000000000355e+01,-2.500000000000000888e+00,-8.000000000000001776e+00,2.300000000000000711e+01,-3.250000000000000711e+01,1.550000000000000355e+01,1.750000000000000444e+00,1.000000000000000178e+01,-1.225000000000000178e+01,-9.750000000000001776e+00,1.425000000000000355e+01,-7.250000000000001776e+00,1.475000000000000355e+01,-2.175000000000000355e+01,2.350000000000000711e+01,-7.750000000000002665e+00,-1.425000000000000355e+01,5.000000000000000888e+00,9.250000000000001776e+00,5.250000000000000888e+00,-8.500000000000001776e+00,-1.575000000000000355e+01,2.925000000000000711e+01,-1.350000000000000355e+01,-5.250000000000001776e+00,-9.500000000000003553e+00,3.075000000000000711e+01,-2.350000000000000711e+01,-7.000000000000001776e+00,1.775000000000000355e+01,-2.500000000000000000e-01,-1.475000000000000355e+01,2.200000000000000355e+01,-1.200000000000000178e+01,6.000000000000000888e+00,-3.250000000000000444e+00,-1.675000000000000355e+01,2.000000000000000355e+01,6.750000000000002665e+00,-1.375000000000000355e+01,-8.500000000000001776e+00,1.825000000000000355e+01,-4.000000000000000888e+00,-1.475000000000000355e+01,2.550000000000000711e+01,-3.025000000000000711e+01,2.025000000000000355e+01,-2.750000000000000444e+00,-8.250000000000001776e+00,2.750000000000000355e+01,-2.575000000000000355e+01,4.250000000000000888e+00,1.025000000000000178e+01,-1.625000000000000355e+01,4.000000000000000000e+00,1.425000000000000355e+01,-1.225000000000000355e+01,-3.250000000000000888e+00,1.525000000000000355e+01,-2.050000000000000711e+01,1.650000000000000355e+01,-6.250000000000001776e+00,-1.750000000000000355e+01,1.925000000000000355e+01,8.750000000000003553e+00,-2.300000000000000711e+01,2.100000000000000355e+01,-3.500000000000000000e+00,-1.975000000000000711e+01,2.225000000000000711e+01,-1.750000000000000355e+01,-1.625000000000000711e+01,2.900000000000000711e+01,-1.175000000000000355e+01,-5.500000000000001776e+00,3.100000000000000711e+01,-1.075000000000000178e+01,-1.775000000000000355e+01,-4.250000000000001776e+00,1.700000000000000355e+01,7.000000000000001776e+00,-1.700000000000000355e+01,2.050000000000000711e+01,-8.000000000000003553e+00,8.000000000000003553e+00,-2.000000000000000711e+01,1.625000000000000355e+01,-1.850000000000000355e+01,1.375000000000000355e+01,3.500000000000000888e+00,-2.025000000000000711e+01,5.250000000000001776e+00,1.750000000000000355e+01,-6.750000000000000888e+00,-1.400000000000000355e+01,1.650000000000000355e+01,-1.575000000000000355e+01,1.250000000000000355e+01,1.150000000000000355e+01,-1.425000000000000355e+01,-7.500000000000002220e-01,-5.750000000000001776e+00,-1.175000000000000178e+01,4.475000000000001421e+01,-2.900000000000000711e+01,-1.375000000000000355e+01,1.950000000000000355e+01,-7.500000000000001776e+00,-2.750000000000000888e+00,1.850000000000000711e+01,-1.625000000000000355e+01,-2.325000000000000711e+01,3.750000000000000711e+01,-1.700000000000000355e+01,5.000000000000000000e-01,-2.750000000000000000e+00,1.925000000000000355e+01,-1.625000000000000355e+01,-3.425000000000000711e+01,7.675000000000001421e+01,-7.875000000000001421e+01,5.325000000000000711e+01,-4.050000000000000711e+01,1.775000000000000355e+01,6.250000000000002665e+00,5.250000000000000888e+00,5.000000000000001110e-01,-2.500000000000000555e-01,0.000000000000000000e+00,2.500000000000000555e-01,0.000000000000000000e+00,-2.500000000000000555e-01,2.500000000000000555e-01,0.000000000000000000e+00,-2.500000000000000555e-01,2.500000000000000555e-01,2.500000000000000555e-01,-7.500000000000002220e-01,7.500000000000002220e-01,-2.500000000000000555e-01,2.500000000000000555e-01,0.000000000000000000e+00,-5.000000000000001110e-01,0.000000000000000000e+00,2.500000000000000555e-01,2.500000000000000555e-01,-2.500000000000000555e-01,-2.500000000000000555e-01,5.000000000000001110e-01,-5.000000000000001110e-01,2.500000000000000555e-01,0.000000000000000000e+00,0.000000000000000000e+00,0.000000000000000000e+00,-2.500000000000000555e-01,5.000000000000001110e-01,-5.000000000000001110e-01,2.500000000000000555e-01,5.000000000000001110e-01,-1.000000000000000222e+00,2.500000000000000555e-01,5.000000000000001110e-01,-2.500000000000000555e-01,2.500000000000000555e-01,-5.000000000000001110e-01,2.500000000000000555e-01,7.500000000000002220e-01,-1.500000000000000444e+00,7.500000000000002220e-01,0.000000000000000000e+00,0.000000000000000000e+00,2.500000000000000555e-01,-5.000000000000001110e-01,5.000000000000001110e-01,-5.000000000000001110e-01,5.000000000000001110e-01,-2.500000000000000555e-01,-2.500000000000000555e-01,2.500000000000000555e-01,0.000000000000000000e+00,2.500000000000000555e-01,-1.000000000000000222e+00,1.250000000000000444e+00,-5.000000000000001110e-01,0.000000000000000000e+00,2.500000000000000555e-01,-5.000000000000001110e-01,2.500000000000000555e-01,0.000000000000000000e+00,-2.500000000000000555e-01,2.500000000000000555e-01,5.000000000000001110e-01,-7.500000000000002220e-01,5.000000000000001110e-01,0.000000000000000000e+00,-5.000000000000001110e-01,-2.500000000000000555e-01,1.250000000000000444e+00,-1.000000000000000222e+00,2.500000000000000555e-01,0.000000000000000000e+00,2.500000000000000555e-01,-5.000000000000001110e-01,0.000000000000000000e+00,5.000000000000001110e-01,0.000000000000000000e+00,-5.000000000000001110e-01,2.500000000000000555e-01,0.000000000000000000e+00,0.000000000000000000e+00,0.000000000000000000e+00,2.500000000000000555e-01,-2.500000000000000555e-01,0.000000000000000000e+00,-2.500000000000000555e-01,7.500000000000002220e-01,-5.000000000000001110e-01,1.000000000000000222e+00,-5.000000000000001110e-01,1.150000000000000355e+01,-6.000000000000001776e+00,3.000000000000000000e+00,-2.400000000000000711e+01,1.575000000000000355e+01,8.250000000000001776e+00,7.500000000000001776e+00,-3.000000000000000000e+00,-8.750000000000003553e+00,-2.250000000000000355e+01,2.850000000000000711e+01,6.500000000000001776e+00,-2.650000000000000711e+01,1.875000000000000355e+01,5.000000000000000000e-01,-2.100000000000000355e+01,3.300000000000000711e+01,-1.375000000000000178e+01,-2.350000000000000711e+01,-8.250000000000000000e+00,8.175000000000001421e+01,-4.950000000000001421e+01,-1.225000000000000355e+01,1.325000000000000355e+01,-2.125000000000000355e+01,1.200000000000000178e+01,1.575000000000000355e+01,-3.875000000000000711e+01,7.500000000000001421e+01,-4.550000000000001421e+01,-3.850000000000000711e+01,2.925000000000000711e+01,1.675000000000000355e+01,-1.200000000000000355e+01,-3.000000000000000444e+00,4.175000000000000711e+01,-5.825000000000001421e+01,3.425000000000000711e+01,-1.350000000000000355e+01,-1.050000000000000355e+01,1.200000000000000355e+01,-2.775000000000000355e+01,3.400000000000000711e+01,1.025000000000000178e+01,-2.750000000000000355e+01,-4.000000000000000888e+00,1.550000000000000355e+01,1.625000000000000355e+01,-3.125000000000000711e+01,1.350000000000000355e+01,8.250000000000003553e+00,-3.300000000000000711e+01,3.975000000000000711e+01,-2.625000000000000711e+01,2.375000000000000711e+01,-9.750000000000001776e+00,-2.025000000000000711e+01,2.500000000000000711e+01,-1.900000000000000355e+01,1.000000000000000000e+00,2.025000000000000711e+01,-9.500000000000003553e+00,-1.350000000000000355e+01,1.100000000000000178e+01,5.000000000000001776e+00,-7.000000000000001776e+00,0.000000000000000000e+00,0.000000000000000000e+00,-2.500000000000000555e-01,2.500000000000000555e-01,-2.500000000000000555e-01,7.500000000000002220e-01,-7.500000000000002220e-01,5.000000000000001110e-01,-2.500000000000000555e-01,0.000000000000000000e+00,0.000000000000000000e+00,0.000000000000000000e+00,2.500000000000000555e-01,-7.500000000000002220e-01,7.500000000000002220e-01,-2.500000000000000555e-01,-2.500000000000000555e-01,2.500000000000000555e-01,2.500000000000000555e-01,-2.500000000000000555e-01,0.000000000000000000e+00,0.000000000000000000e+00,0.000000000000000000e+00,-5.000000000000000888e+00,5.750000000000000888e+00,3.250000000000000888e+00,-3.750000000000000888e+00,-1.500000000000000222e+00,-3.500000000000000888e+00,7.500000000000001776e+00,-2.075000000000000355e+01,3.375000000000000711e+01,-2.525000000000000711e+01,4.250000000000000888e+00,1.325000000000000355e+01,0.000000000000000000e+00,-2.425000000000000711e+01,-5.500000000000000000e+00,2.375000000000000355e+01,2.325000000000000711e+01,-4.250000000000001421e+01,1.200000000000000355e+01,4.000000000000000888e+00,1.625000000000000355e+01,-1.100000000000000355e+01,-2.350000000000000355e+01,2.800000000000000711e+01,-6.500000000000001776e+00,-1.775000000000000355e+01,1.375000000000000355e+01,1.175000000000000178e+01,-2.175000000000000711e+01,1.550000000000000355e+01,-1.675000000000000355e+01,2.850000000000000711e+01,-5.750000000000001776e+00,-9.500000000000001776e+00,-1.250000000000000222e+00,-1.025000000000000178e+01,-7.750000000000001776e+00,3.750000000000000711e+01,-3.900000000000000711e+01,3.275000000000000711e+01,-2.850000000000000711e+01,-2.500000000000000000e+00,4.450000000000001421e+01,-2.175000000000000711e+01,-8.500000000000001776e+00,2.150000000000000355e+01,-3.400000000000000711e+01,7.000000000000001776e+00,2.950000000000000711e+01,-2.650000000000000711e+01,-2.250000000000000000e+00,7.000000000000001776e+00,-8.500000000000001776e+00,3.150000000000000711e+01,-1.900000000000000355e+01,-1.200000000000000178e+01,1.575000000000000355e+01,5.000000000000000888e+00,-3.275000000000000711e+01,3.700000000000000711e+01,-2.200000000000000711e+01,-3.000000000000000000e+00,1.750000000000000000e+00,1.550000000000000355e+01,-1.500000000000000888e+00,-4.250000000000000888e+00,-8.500000000000001776e+00,-1.400000000000000178e+01,5.450000000000001421e+01,-5.025000000000001421e+01,1.250000000000000355e+01,-2.750000000000000888e+00,1.850000000000000355e+01,-2.500000000000000711e+01,2.325000000000000711e+01,-2.750000000000000000e+00,-2.750000000000000888e+00,-5.000000000000000000e-01,-2.275000000000000355e+01,3.250000000000000711e+01,-2.325000000000000711e+01,3.750000000000000000e+00,1.575000000000000355e+01,-1.025000000000000178e+01,7.500000000000002220e-01,-3.000000000000000888e+00,1.025000000000000355e+01,-2.750000000000000711e+01,3.325000000000000711e+01,-9.000000000000003553e+00,-1.825000000000000355e+01,2.225000000000000711e+01,-1.875000000000000355e+01,1.575000000000000355e+01,-1.100000000000000355e+01,1.625000000000000355e+01,-8.500000000000001776e+00,3.000000000000000444e+00,-1.000000000000000000e+00,-2.575000000000000355e+01,2.525000000000000355e+01,5.500000000000000888e+00,-1.900000000000000355e+01,1.775000000000000355e+01,-3.125000000000000711e+01,7.200000000000002842e+01,-6.300000000000001421e+01,-2.250000000000000000e+00,2.150000000000000355e+01,-1.075000000000000355e+01,4.000000000000001776e+00,7.750000000000001776e+00,-4.000000000000000888e+00,-7.250000000000001776e+00,1.600000000000000355e+01,-2.075000000000000355e+01,6.250000000000000888e+00,3.200000000000000711e+01,-4.025000000000001421e+01,1.825000000000000355e+01,-4.250000000000000888e+00,-7.000000000000000888e+00,1.475000000000000355e+01,-2.900000000000000711e+01,2.600000000000000711e+01,-1.175000000000000355e+01,1.525000000000000355e+01,-2.925000000000000711e+01,5.275000000000001421e+01,-4.125000000000000711e+01,6.250000000000001776e+00,-1.675000000000000355e+01,2.250000000000000355e+01,2.500000000000000888e+00,-1.350000000000000355e+01,5.250000000000001776e+00,5.500000000000001776e+00,3.750000000000000888e+00,-1.225000000000000355e+01,-1.875000000000000355e+01,2.750000000000000355e+01,8.000000000000000000e+00,6.250000000000001776e+00,-3.675000000000000711e+01,3.350000000000000711e+01,-2.825000000000000711e+01,2.500000000000001776e+00,2.675000000000000711e+01,-1.075000000000000355e+01,-2.875000000000000355e+01,3.650000000000000711e+01,-1.250000000000000355e+01,-1.450000000000000355e+01,2.550000000000000711e+01,5.250000000000001776e+00,-1.750000000000000355e+01,-2.050000000000000355e+01,2.175000000000000355e+01,1.275000000000000355e+01,-2.775000000000000711e+01,7.500000000000000000e-01,2.850000000000000711e+01,9.500000000000003553e+00,-5.275000000000001421e+01,4.125000000000001421e+01,-6.500000000000001776e+00,-1.900000000000000711e+01,3.075000000000000711e+01,-4.300000000000001421e+01,4.300000000000001421e+01,-1.600000000000000355e+01,-2.875000000000000711e+01,5.500000000000001421e+01,-3.275000000000000711e+01,7.250000000000001776e+00,-1.725000000000000355e+01,2.800000000000000711e+01,-2.775000000000000711e+01,6.000000000000001776e+00,3.025000000000000711e+01,-1.950000000000000355e+01,-1.325000000000000178e+01,7.500000000000000000e-01,2.800000000000000711e+01,-2.075000000000000355e+01,-9.000000000000003553e+00,1.575000000000000355e+01,4.500000000000000888e+00,-2.100000000000000711e+01,2.475000000000000711e+01,7.000000000000000000e+00,-1.925000000000000355e+01,-2.650000000000000711e+01,4.350000000000001421e+01,-3.200000000000000711e+01,2.075000000000000355e+01,1.375000000000000355e+01,-1.200000000000000178e+01,-2.025000000000000711e+01,7.250000000000002665e+00,1.825000000000000355e+01,-1.250000000000000355e+01,1.375000000000000355e+01,-2.275000000000000711e+01,5.750000000000000888e+00,2.625000000000000355e+01,-1.875000000000000355e+01,-1.375000000000000355e+01,2.650000000000000711e+01,-7.750000000000001776e+00,-1.075000000000000178e+01,1.775000000000000355e+01,-2.050000000000000355e+01,2.150000000000000355e+01,-2.150000000000000355e+01,2.500000000000000444e+00,2.100000000000000355e+01,-1.625000000000000355e+01,-2.100000000000000355e+01,1.925000000000000355e+01,-1.200000000000000178e+01,3.750000000000000000e+00,1.450000000000000355e+01,-9.000000000000001776e+00,-1.625000000000000355e+01,1.150000000000000178e+01,-5.000000000000000000e+00,6.150000000000001421e+01,-5.000000000000001421e+01,4.500000000000000888e+00,1.300000000000000355e+01,-8.000000000000001776e+00,-3.350000000000000711e+01,6.000000000000000000e+00,6.500000000000001776e+00,2.125000000000000355e+01,-1.425000000000000355e+01,-1.450000000000000355e+01,-2.500000000000000000e-01,2.700000000000000711e+01,-1.475000000000000355e+01,-4.000000000000000000e+00,8.500000000000001776e+00,-1.700000000000000355e+01,-1.000000000000000000e+00,2.775000000000000711e+01,-1.000000000000000178e+01,-1.000000000000000355e+01,7.250000000000002665e+00,1.075000000000000178e+01,-1.525000000000000355e+01,-4.000000000000001776e+00,2.225000000000000711e+01,-1.750000000000000355e+01,2.250000000000000000e+00,-9.750000000000001776e+00,2.750000000000000711e+01,-2.150000000000000355e+01,2.000000000000000355e+01,-3.750000000000000888e+00,-1.925000000000000355e+01,2.300000000000000711e+01,-2.050000000000000355e+01,2.000000000000000355e+01,3.250000000000001776e+00,-1.900000000000000711e+01,2.450000000000000711e+01,-2.875000000000000711e+01,1.100000000000000178e+01,1.350000000000000355e+01,-1.750000000000000355e+01,2.725000000000000355e+01,-3.100000000000000711e+01,2.225000000000000711e+01,-6.250000000000001776e+00,-1.550000000000000355e+01,2.300000000000000711e+01,-1.850000000000000355e+01,1.925000000000000355e+01,-1.500000000000000355e+01,-1.300000000000000178e+01,2.150000000000000355e+01,-2.750000000000000000e+00,-2.000000000000000711e+01,1.450000000000000355e+01,3.000000000000000444e+00,-1.050000000000000178e+01,1.900000000000000355e+01,-1.450000000000000355e+01,-1.075000000000000355e+01,8.500000000000003553e+00,2.325000000000000355e+01,-3.450000000000000711e+01,2.025000000000000355e+01,6.750000000000002665e+00,-2.325000000000000711e+01,1.725000000000000355e+01,-2.600000000000000711e+01,2.350000000000000355e+01,1.225000000000000355e+01,-3.575000000000000711e+01,3.775000000000000711e+01,-3.350000000000000711e+01,2.050000000000000355e+01,-5.000000000000000888e+00,-1.350000000000000355e+01,1.125000000000000355e+01,4.750000000000000888e+00,-1.775000000000000355e+01,3.375000000000000711e+01,-3.200000000000000711e+01,5.750000000000001776e+00,1.900000000000000355e+01,-2.175000000000000355e+01,1.925000000000000355e+01,-1.800000000000000355e+01,2.750000000000000711e+01,-3.725000000000000711e+01,1.975000000000000355e+01,1.750000000000000355e+01,-3.875000000000000711e+01,2.450000000000000355e+01,1.025000000000000355e+01,-1.450000000000000355e+01,-1.700000000000000355e+01,2.425000000000000711e+01,8.000000000000001776e+00,-2.450000000000000711e+01,8.500000000000001776e+00,-5.500000000000001776e+00,2.425000000000000711e+01,-1.900000000000000355e+01,-1.875000000000000355e+01,1.875000000000000355e+01,1.950000000000000355e+01,-2.550000000000000711e+01,1.800000000000000355e+01,-2.450000000000000711e+01,2.875000000000000711e+01,-3.425000000000000711e+01,3.325000000000000711e+01,-7.000000000000001776e+00,-1.800000000000000355e+01,1.150000000000000178e+01,-1.000000000000000222e+00,-6.250000000000001776e+00,2.475000000000000711e+01,-3.300000000000000711e+01,2.825000000000000711e+01,-2.125000000000000711e+01,-1.500000000000000000e+00,1.750000000000000355e+01,-2.750000000000000888e+00,-1.750000000000000355e+01,2.425000000000000711e+01,-1.200000000000000355e+01,-1.025000000000000178e+01,2.550000000000000711e+01,-6.000000000000001776e+00,-2.275000000000000711e+01,2.575000000000000711e+01,-2.450000000000000711e+01,2.600000000000000711e+01,-3.300000000000000711e+01,2.700000000000000711e+01,3.750000000000000000e+00,-2.325000000000000355e+01,2.200000000000000355e+01,-2.750000000000000711e+01,3.325000000000000711e+01,-3.550000000000000711e+01,2.525000000000000355e+01,9.750000000000003553e+00,-3.200000000000000711e+01,2.875000000000000711e+01,-2.775000000000000711e+01,2.575000000000000711e+01,7.500000000000000000e-01,-2.350000000000000711e+01,1.550000000000000355e+01,-6.250000000000001776e+00,2.125000000000000355e+01,-3.075000000000000711e+01,2.725000000000000711e+01,-2.675000000000000711e+01,2.600000000000000711e+01,-2.925000000000000711e+01,2.675000000000000711e+01,-1.875000000000000355e+01,3.000000000000000888e+00,2.300000000000000355e+01,-2.100000000000000355e+01,-1.100000000000000355e+01,1.950000000000000711e+01,-7.750000000000001776e+00,1.325000000000000178e+01,-1.625000000000000355e+01,9.500000000000001776e+00,-7.500000000000000000e-01,-2.300000000000000355e+01,3.375000000000000711e+01,-1.225000000000000355e+01,-1.600000000000000355e+01,9.000000000000003553e+00,1.150000000000000355e+01,8.500000000000001776e+00,-3.425000000000000711e+01,3.750000000000000711e+01,-2.275000000000000355e+01,-8.500000000000003553e+00,3.375000000000000711e+01,-2.250000000000000355e+01,-7.500000000000001776e+00,1.250000000000000355e+01,-8.750000000000001776e+00,1.700000000000000355e+01,-3.000000000000000711e+01,2.550000000000000711e+01,4.750000000000001776e+00,-2.425000000000000711e+01,2.225000000000000711e+01,-1.450000000000000355e+01,1.550000000000000355e+01,-2.075000000000000355e+01,1.750000000000000355e+01,-2.200000000000000711e+01,1.700000000000000355e+01,-4.000000000000000888e+00,1.400000000000000355e+01,-2.550000000000000711e+01,2.050000000000000711e+01,-1.000000000000000178e+01,6.500000000000001776e+00,-3.500000000000000888e+00,-1.725000000000000355e+01,2.700000000000000711e+01,-6.250000000000000888e+00,0.000000000000000000e+00,-1.625000000000000355e+01,9.250000000000001776e+00,-1.250000000000000444e+00,1.850000000000000355e+01,-3.275000000000000711e+01,3.175000000000000711e+01,-2.200000000000000711e+01,1.925000000000000355e+01,-3.125000000000000711e+01,3.200000000000000711e+01,-2.325000000000000355e+01,2.300000000000000355e+01,-1.700000000000000355e+01,5.000000000000000888e+00,-1.275000000000000355e+01,2.575000000000000711e+01,-1.975000000000000711e+01,1.475000000000000355e+01,-1.125000000000000355e+01,6.250000000000001776e+00,-1.175000000000000178e+01,2.500000000000000000e+00,1.500000000000000355e+01,-2.175000000000000711e+01,2.500000000000000711e+01,-2.850000000000000711e+01,1.750000000000000355e+01,1.375000000000000355e+01,-2.375000000000000711e+01,9.250000000000001776e+00,-2.000000000000000444e+00,1.425000000000000355e+01,-2.050000000000000711e+01,1.600000000000000355e+01,-1.300000000000000355e+01,-6.500000000000002665e+00,1.300000000000000355e+01,-5.250000000000000888e+00,1.150000000000000355e+01,4.250000000000000000e+00,-1.800000000000000355e+01,1.625000000000000355e+01,-2.325000000000000711e+01,-3.250000000000000000e+00,2.325000000000000711e+01,-1.500000000000000888e+00,-1.600000000000000355e+01,1.975000000000000355e+01,-3.250000000000000888e+00,-1.050000000000000178e+01,2.150000000000000355e+01,-2.200000000000000355e+01,1.675000000000000355e+01,-1.425000000000000355e+01,2.750000000000000888e+00,-1.475000000000000355e+01,2.275000000000000711e+01,9.500000000000001776e+00,-2.400000000000000711e+01,4.750000000000001776e+00,1.800000000000000355e+01,-2.000000000000000355e+01,-1.425000000000000355e+01,5.075000000000001421e+01,-4.250000000000000000e+00,7.750000000000000000e+00,-4.125000000000000711e+01,-8.750000000000003553e+00,1.925000000000000355e+01,-3.800000000000000711e+01,-3.500000000000000000e+00,1.850000000000000355e+01,6.750000000000001776e+00,2.025000000000000355e+01,-5.000000000000000888e+00,-4.050000000000000711e+01,5.000000000000000000e+00,4.150000000000000711e+01,-8.750000000000001776e+00,-9.500000000000001776e+00,2.450000000000000711e+01,-2.175000000000000355e+01,8.000000000000001776e+00,1.525000000000000355e+01,-1.425000000000000355e+01,2.125000000000000711e+01,-3.100000000000000711e+01,-7.500000000000000000e-01,2.275000000000000711e+01,-1.000000000000000178e+01,2.875000000000000711e+01,-3.800000000000000711e+01,1.225000000000000355e+01,-9.250000000000001776e+00,-1.750000000000000444e+00,1.800000000000000355e+01,-1.650000000000000355e+01,-1.025000000000000178e+01,1.125000000000000178e+01,-3.750000000000000888e+00,1.000000000000000444e+00,1.175000000000000178e+01,-1.800000000000000355e+01,-1.750000000000000000e+00,1.950000000000000355e+01,-1.250000000000000355e+01,-8.000000000000000000e+00,-4.250000000000001776e+00,4.500000000000001776e+00,1.900000000000000355e+01,-1.450000000000000355e+01,2.500000000000000000e-01,2.400000000000000711e+01,-2.550000000000000711e+01,1.525000000000000355e+01,-2.000000000000000711e+01,7.000000000000002665e+00,1.600000000000000355e+01,-1.475000000000000355e+01,-1.350000000000000355e+01,3.350000000000000711e+01,-2.150000000000000355e+01,1.875000000000000355e+01,-9.750000000000003553e+00,-1.275000000000000355e+01,1.375000000000000355e+01,-5.000000000000000000e-01,0.000000000000000000e+00,-1.775000000000000355e+01,2.425000000000000711e+01,-9.750000000000001776e+00,-2.250000000000000444e+00,1.075000000000000178e+01,-1.325000000000000355e+01,-6.000000000000000888e+00,2.075000000000000355e+01,0.000000000000000000e+00,-2.650000000000000711e+01,2.325000000000000711e+01,-5.250000000000001776e+00,-1.750000000000000355e+01,1.750000000000000355e+01,1.500000000000000444e+00,-2.250000000000000888e+00,4.500000000000000888e+00,-6.000000000000000888e+00,-1.500000000000000355e+01,1.600000000000000355e+01,1.125000000000000355e+01,-1.875000000000000711e+01,9.250000000000001776e+00,-6.000000000000001776e+00,1.150000000000000355e+01
