-4.431124999999954461e+00,-1.263424999999995890e+01,-1.930612499999996601e+01,-2.691549999999996601e+01,-3.452487499999997311e+01,-3.875924999999997311e+01,-4.211862499999997311e+01,-4.185299999999997311e+01,-4.139987499999997311e+01,-4.285299999999997311e+01,-4.300924999999997311e+01,-4.155612499999997311e+01,-3.988424999999997311e+01,-3.924362499999997311e+01,-3.827487499999997311e+01,-3.950924999999997311e+01,-3.974362499999997311e+01,-3.763424999999997311e+01,-3.711862499999997311e+01,-3.675924999999997311e+01,-3.502487499999997311e+01,-3.343112499999997311e+01,-3.229049999999997311e+01,-2.961862499999997311e+01,-2.646237499999997311e+01,-2.483737499999997311e+01,-2.222799999999996956e+01,-2.007174999999996601e+01,-1.986862499999996245e+01,-1.997799999999996245e+01,-1.897799999999996245e+01,-1.866549999999996245e+01,-2.021237499999996601e+01,-2.135299999999996601e+01,-2.391549999999996956e+01,-2.541549999999997311e+01,-2.588424999999997311e+01,-2.697799999999997311e+01,-2.954049999999997311e+01,-3.107174999999997311e+01,-3.163424999999997311e+01,-3.294674999999997311e+01,-3.322799999999997311e+01,-3.447799999999997311e+01,-3.543112499999997311e+01,-3.489987499999997311e+01,-3.307174999999997311e+01,-3.222799999999997311e+01,-3.105612499999997311e+01,-2.869674999999997311e+01,-2.583737499999996956e+01,-2.197799999999996601e+01,-1.894674999999996601e+01,-1.550924999999996245e+01,-1.299362499999996068e+01,-8.977999999999957126e+00,-3.962374999999953573e+00,1.584500000000049313e+00,7.756375000000052644e+00,1.306887500000005531e+01,2.080325000000006241e+01,2.916262500000006952e+01,3.888137500000007662e+01,4.781887500000008373e+01,5.750637500000009084e+01,6.645950000000009084e+01,7.505325000000009084e+01,8.455325000000010505e+01,9.219387500000011926e+01,9.933450000000013347e+01,1.059907500000001335e+02,1.134595000000001335e+02,1.187095000000001335e+02,1.237095000000001335e+02,1.294126250000001335e+02,1.357876250000001335e+02,1.430532500000001335e+02,1.485532500000001335e+02,1.546626250000001335e+02,1.587095000000001335e+02,1.636157500000001335e+02,1.693813750000001335e+02,1.734438750000001335e+02,1.757095000000001335e+02,1.770688750000001335e+02,1.792876250000001335e+02,1.805220000000001335e+02,1.835220000000001335e+02,1.866001250000001335e+02,1.880220000000001619e+02,1.893188750000001619e+02,1.913188750000001903e+02,1.929595000000002187e+02,1.955688750000002187e+02,1.973345000000002187e+02,1.981157500000002187e+02,1.975845000000002187e+02,1.973970000000002187e+02,1.977563750000002187e+02,1.974907500000002187e+02,1.971313750000002187e+02,1.945376250000002187e+02,1.919751250000002187e+02,1.890063750000001619e+02,1.861938750000001619e+02,1.833501250000001619e+02,1.796001250000001335e+02,1.758970000000001335e+02,1.715376250000001335e+02,1.683970000000001335e+02,1.668032500000001335e+02,1.653657500000001335e+02,1.648970000000001335e+02,1.659282500000001335e+02,1.678501250000001335e+02,1.693032500000001335e+02,1.718188750000001335e+02,1.738657500000001335e+02,1.746157500000001335e+02,1.751938750000001335e+02,1.744438750000001335e+02,1.710688750000001335e+02,1.673813750000001335e+02,1.636470000000001335e+02,1.592095000000001335e+02,1.553970000000001335e+02,1.502876250000001335e+02,1.452407500000001335e+02,1.412095000000001335e+02,1.385220000000001335e+02,1.355845000000001335e+02,1.321157500000001335e+02,1.285688750000001335e+02,1.234907500000001335e+02,1.190220000000001335e+02,1.132876250000001335e+02,1.062720000000001335e+02,9.758450000000013347e+01,8.710012500000010505e+01,7.719387500000009084e+01,6.631887500000009084e+01,5.566262500000009084e+01,4.506887500000007662e+01,3.463137500000006952e+01,2.477200000000006241e+01,1.666262500000005886e+01,9.912625000000055309e+00,3.443875000000050868e+00,-1.618624999999952907e+00,-6.759249999999955349e+00,-1.080612499999995890e+01,-1.374362499999996245e+01,-1.689987499999996245e+01,-1.907174999999996245e+01,-1.900924999999996245e+01,-1.739987499999996245e+01,-1.291549999999996068e+01,-5.321749999999955349e+00,2.787625000000049980e+00,1.310012500000005531e+01,2.647512500000006241e+01,3.947512500000007662e+01,5.130325000000008373e+01,6.219387500000009084e+01,6.910012500000009084e+01,7.356887500000009084e+01,7.653762500000009084e+01,7.658450000000009084e+01,7.183450000000009084e+01,6.470950000000009084e+01,5.583450000000009084e+01,4.422512500000007662e+01,3.306887500000006952e+01,2.228762500000006241e+01,1.238137500000005709e+01,2.881375000000050868e+00,-3.509249999999952685e+00,-8.493624999999955349e+00,-1.150924999999995890e+01,-1.127487499999995890e+01,-1.104049999999995890e+01,-1.200924999999995890e+01,-1.364987499999996068e+01,-1.466549999999996245e+01,-1.579049999999996245e+01,-1.733737499999996245e+01,-2.063424999999996601e+01,-2.480612499999996956e+01,-2.749362499999997311e+01,-2.797799999999997311e+01,-2.655612499999997311e+01,-2.497799999999997311e+01,-2.457174999999997311e+01,-2.064987499999996601e+01,-1.350924999999996245e+01,-4.884249999999955349e+00,5.178250000000052644e+00,1.675637500000005886e+01,2.842825000000006597e+01,4.245950000000007662e+01,6.195950000000009084e+01,7.953762500000010505e+01,9.922512500000011926e+01,1.204595000000001335e+02,1.440532500000001335e+02,1.698345000000001619e+02,1.998188750000002187e+02,2.325063750000002187e+02,2.631001250000002187e+02,2.978657500000002187e+02,3.308813750000002187e+02,3.639282500000002756e+02,3.936938750000003893e+02,4.192720000000003893e+02,4.393188750000003893e+02,4.541626250000003893e+02,4.663501250000003893e+02,4.735845000000003893e+02,4.784751250000003893e+02,4.803813750000003893e+02,4.811470000000003893e+02,4.814907500000003893e+02,4.817563750000003893e+02,4.819595000000003893e+02,4.820845000000003893e+02,4.821626250000003893e+02,4.822407500000003893e+02,4.822407500000003893e+02,4.821938750000003893e+02,4.821313750000003893e+02,4.820688750000003893e+02,4.820532500000003893e+02,4.820688750000003893e+02,4.820845000000003893e+02,4.820845000000003893e+02,4.821313750000003893e+02,4.822251250000003893e+02,4.823188750000003893e+02,4.824438750000003893e+02,4.825532500000003893e+02,4.826313750000003893e+02,4.827251250000003893e+02,4.828501250000003893e+02,4.829751250000003893e+02,4.830688750000003893e+02,4.831626250000003893e+02,4.832251250000003893e+02,4.832720000000003893e+02,4.833188750000003893e+02,4.833501250000003893e+02,4.833345000000003893e+02,4.833032500000003893e+02,4.832720000000003893e+02,4.832407500000003893e+02,4.832095000000003893e+02,4.831626250000003893e+02,4.831782500000003893e+02,4.831782500000003893e+02,4.831782500000003893e+02,4.831782500000003893e+02,4.831782500000003893e+02,4.831938750000003893e+02,4.831938750000003893e+02,4.832563750000003893e+02,4.832720000000003893e+02,4.833188750000003893e+02,4.833970000000003893e+02,4.834595000000003893e+02,4.835220000000003893e+02,4.835688750000003893e+02,4.836470000000003893e+02,4.836626250000003893e+02,4.836938750000003893e+02,4.836938750000003893e+02,4.836782500000003893e+02,4.836782500000003893e+02,4.836470000000003893e+02,4.836001250000003893e+02,4.835532500000003893e+02,4.834751250000003893e+02,4.833501250000003893e+02,4.832407500000003893e+02,4.831157500000003893e+02,4.829751250000003893e+02,4.828813750000003893e+02,4.828188750000003893e+02,4.827095000000003893e+02,4.826470000000003893e+02,4.826157500000003893e+02,4.825845000000003893e+02,4.825688750000003893e+02,4.825845000000003893e+02,4.825845000000003893e+02,4.825376250000003893e+02,4.825063750000003893e+02,4.824751250000003893e+02,4.824438750000003893e+02,4.823813750000003893e+02,4.822876250000003893e+02,4.820845000000003893e+02,4.817563750000003893e+02,4.806001250000003893e+02,4.782251250000003893e+02,4.740532500000003893e+02,4.690063750000003893e+02,4.631001250000003893e+02,4.557720000000003893e+02,4.461157500000003893e+02,4.333501250000003893e+02,4.186626250000003893e+02,4.039126250000003893e+02,3.895532500000003893e+02,3.726470000000002756e+02,3.538345000000002756e+02,3.336470000000002187e+02,3.134595000000002187e+02,2.956157500000002187e+02,2.785845000000002187e+02,2.592563750000002187e+02,2.393657500000002187e+02,2.234751250000002187e+02,2.067407500000002187e+02,1.892407500000001903e+02,1.714126250000001619e+02,1.504282500000001335e+02,1.294595000000001335e+02,1.106157500000001335e+02,9.030325000000010505e+01,6.591262500000009084e+01,4.202200000000007662e+01,1.869387500000006241e+01,-3.165499999999953573e+00,-2.150924999999996601e+01,-4.005612499999998022e+01,-5.941549999999999443e+01,-7.657175000000000864e+01,-9.544675000000002285e+01,-1.120561250000000371e+02,-1.271498750000000371e+02,-1.446811250000000371e+02,-1.651186250000000655e+02,-1.862592500000000939e+02,-2.064155000000001223e+02,-2.273842500000001223e+02,-2.439623750000001223e+02,-2.611967500000001223e+02,-2.767592500000001223e+02,-2.885717500000001223e+02,-2.987123750000001223e+02,-3.068530000000001223e+02,-3.162280000000001223e+02,-3.261498750000001223e+02,-3.351967500000001223e+02,-3.442280000000001223e+02,-3.551030000000001223e+02,-3.683842500000001792e+02,-3.813373750000002360e+02,-3.946186250000002929e+02,-4.070248750000002929e+02,-4.172592500000002929e+02,-4.288530000000002929e+02,-4.399155000000002929e+02,-4.509936250000002929e+02,-4.597905000000002929e+02,-4.669311250000002929e+02,-4.739311250000002929e+02,-4.795873750000002929e+02,-4.855873750000002929e+02,-4.914311250000002929e+02,-4.965561250000002929e+02,-4.999623750000002929e+02,-5.038061250000002929e+02,-5.083061250000002929e+02,-5.117436250000002929e+02,-5.148686250000002929e+02,-5.172280000000002929e+02,-5.184311250000002929e+02,-5.193842500000002929e+02,-5.203686250000002929e+02,-5.208686250000002929e+02,-5.209155000000002929e+02,-5.209936250000002929e+02,-5.210717500000002929e+02,-5.211342500000002929e+02,-5.211811250000002929e+02,-5.212123750000002929e+02,-5.212280000000002929e+02,-5.211811250000002929e+02,-5.211655000000002929e+02,-5.211342500000002929e+02,-5.207905000000002929e+02,-5.202123750000002929e+02,-5.196498750000002929e+02,-5.190873750000002929e+02,-5.184467500000002929e+02,-5.174467500000002929e+02,-5.162280000000002929e+02,-5.136811250000002929e+02,-5.114155000000002929e+02,-5.087280000000002929e+02,-5.047905000000002929e+02,-5.000873750000002929e+02,-4.952748750000002929e+02,-4.899311250000002929e+02,-4.823530000000002929e+02,-4.749155000000002929e+02,-4.669155000000002929e+02,-4.585092500000002929e+02,-4.502748750000002929e+02,-4.411498750000002929e+02,-4.309936250000002929e+02,-4.217905000000002929e+02,-4.152123750000002929e+02,-4.104155000000002929e+02,-4.053530000000002929e+02,-4.006030000000002929e+02,-3.963686250000002929e+02,-3.939155000000002929e+02,-3.911186250000002929e+02,-3.866811250000002929e+02,-3.808530000000002929e+02,-3.736498750000001792e+02,-3.669936250000001792e+02,-3.617748750000001223e+02,-3.578373750000001223e+02,-3.531655000000001223e+02,-3.489936250000001223e+02,-3.462748750000001223e+02,-3.441498750000001223e+02,-3.419936250000001223e+02,-3.377123750000001223e+02,-3.291342500000001223e+02,-3.178842500000001223e+02,-3.062436250000001223e+02,-2.955717500000001223e+02,-2.848530000000001223e+02,-2.747748750000001223e+02,-2.641498750000001223e+02,-2.568373750000001223e+02,-2.547592500000001223e+02,-2.540561250000001223e+02,-2.533842500000001223e+02,-2.514467500000001223e+02,-2.485717500000001223e+02,-2.457123750000001223e+02,-2.442436250000001223e+02,-2.410561250000001223e+02,-2.365092500000001223e+02,-2.319780000000001223e+02,-2.289155000000001223e+02,-2.279311250000001223e+02,-2.268530000000001223e+02,-2.238686250000001223e+02,-2.200717500000001223e+02,-2.163373750000001223e+02,-2.109936250000001223e+02,-2.057905000000001223e+02,-1.974155000000001223e+02,-1.881811250000000939e+02,-1.796030000000000655e+02,-1.725717500000000371e+02,-1.651186250000000371e+02,-1.576030000000000371e+02,-1.496655000000000371e+02,-1.414155000000000371e+02,-1.368530000000000371e+02,-1.316186250000000371e+02,-1.274155000000000371e+02,-1.230717500000000371e+02,-1.207592500000000371e+02,-1.187905000000000371e+02,-1.185717500000000371e+02,-1.190561250000000371e+02,-1.180248750000000371e+02,-1.170561250000000371e+02,-1.144623750000000371e+02,-1.128217500000000371e+02,-1.087592500000000371e+02,-1.050405000000000371e+02,-1.018373750000000371e+02,-9.766550000000003706e+01,-9.354050000000000864e+01,-8.904049999999999443e+01,-8.507174999999999443e+01,-7.914987499999999443e+01,-7.527487499999999443e+01,-7.130612499999999443e+01,-6.664987499999999443e+01,-6.391549999999999443e+01,-6.068112499999999443e+01,-5.849362499999999443e+01,-5.708737499999999443e+01,-5.702487499999999443e+01,-5.622799999999999443e+01,-5.380612499999999443e+01,-5.243112499999999443e+01,-4.982174999999999443e+01,-4.816549999999999443e+01,-4.666549999999998732e+01,-4.414987499999998022e+01,-4.138424999999997311e+01,-3.841549999999997311e+01,-3.841549999999997311e+01,-3.529049999999997311e+01,-3.175924999999997311e+01,-2.791549999999996956e+01,-2.313424999999996601e+01,-2.047799999999996245e+01,-1.880612499999996245e+01,-1.825924999999996245e+01,-1.725924999999996245e+01,-1.919674999999996601e+01,-2.244674999999996601e+01,-2.602487499999996956e+01,-3.113424999999997311e+01,-3.357174999999997311e+01,-3.536862499999997311e+01,-3.493112499999997311e+01,-3.424362499999997311e+01,-3.313424999999997311e+01,-3.097799999999997311e+01,-2.843112499999997311e+01,-2.469674999999997311e+01,-2.260299999999996601e+01,-1.971237499999996245e+01,-1.871237499999996245e+01,-1.577487499999996245e+01,-1.202487499999995890e+01,-7.962374999999957126e+00,-3.196749999999954461e+00,2.131375000000049980e+00,8.428250000000053532e+00,1.306887500000005531e+01,1.820950000000005886e+01,2.130325000000006241e+01,2.461575000000006597e+01,2.833450000000006952e+01,2.967825000000006952e+01,2.856887500000006952e+01,2.756887500000006952e+01,2.858450000000006952e+01,2.938137500000006952e+01,3.247512500000006952e+01,3.502200000000006952e+01,3.492825000000006952e+01,3.570950000000006952e+01,3.910012500000006952e+01,4.138137500000006952e+01,4.220950000000006952e+01,4.370950000000006952e+01,4.405325000000007662e+01,4.458450000000007662e+01,4.655325000000008373e+01,5.064700000000009084e+01,5.308450000000009084e+01,5.500637500000009084e+01,5.805325000000009084e+01,5.925637500000009084e+01,5.933450000000009084e+01,5.828762500000009084e+01,5.797512500000009084e+01,5.655325000000009084e+01,5.517825000000009084e+01,5.488137500000009084e+01,5.306887500000009084e+01,5.380325000000009084e+01,5.397512500000009084e+01,5.580325000000009084e+01,5.853762500000009084e+01,5.924075000000009084e+01,6.049075000000009084e+01,6.200637500000009084e+01,6.555325000000009084e+01,6.706887500000009084e+01,6.997512500000009084e+01,7.210012500000009084e+01,7.203762500000009084e+01,7.367825000000009084e+01,7.635012500000009084e+01,7.822512500000009084e+01,7.667825000000009084e+01,7.486575000000009084e+01,7.325637500000009084e+01,7.020950000000009084e+01,6.767825000000009084e+01,6.499075000000009084e+01,5.920950000000009084e+01,5.206887500000009084e+01,4.739700000000009084e+01,4.441262500000007662e+01,3.917825000000007662e+01,3.453762500000006952e+01,2.749075000000006597e+01,1.877200000000006241e+01,1.178762500000005531e+01,5.256375000000051756e+00,-3.899874999999954017e+00,-1.579049999999995890e+01,-2.824362499999996601e+01,-4.288424999999998022e+01,-5.694674999999998732e+01,-7.291549999999999443e+01,-9.213425000000000864e+01,-1.132592500000000371e+02,-1.346811250000000371e+02,-1.571186250000000655e+02,-1.804311250000000655e+02,-2.036498750000001223e+02,-2.266967500000001223e+02,-2.470561250000001223e+02,-2.643842500000001223e+02,-2.775248750000001223e+02,-2.877436250000001223e+02,-2.945717500000001223e+02,-2.955561250000001223e+02,-2.905092500000001223e+02,-2.808842500000001223e+02,-2.706811250000001223e+02,-2.609936250000001223e+02,-2.540717500000001223e+02,-2.498217500000001223e+02,-2.489311250000001223e+02,-2.533373750000001223e+02,-2.628998750000001223e+02,-2.771967500000001223e+02,-2.906498750000001223e+02,-3.022905000000001223e+02,-3.099155000000001223e+02,-3.105873750000001223e+02,-3.034936250000001223e+02,-2.900717500000001223e+02,-2.714780000000001223e+02,-2.482748750000001223e+02,-2.211498750000001223e+02,-1.893842500000000939e+02,-1.560873750000000655e+02,-1.245873750000000371e+02,-9.371237500000000864e+01,-6.249362499999998022e+01,-3.150924999999996956e+01,2.720000000000482032e-01,3.067825000000006597e+01,5.691262500000007662e+01,8.164700000000010505e+01,1.061782500000001193e+02,1.294751250000001335e+02,1.506157500000001335e+02,1.716157500000001619e+02,1.908032500000002187e+02,2.073032500000002187e+02,2.242876250000002187e+02,2.395688750000002187e+02,2.531470000000002187e+02,2.631782500000002187e+02,2.706001250000002187e+02,2.741782500000002187e+02,2.746001250000002187e+02,2.741313750000002187e+02,2.705532500000002187e+02,2.647720000000002187e+02,2.560845000000002187e+02,2.451938750000002187e+02,2.334282500000002187e+02,2.196938750000002187e+02,2.051001250000002187e+02,1.883657500000002187e+02,1.693501250000001619e+02,1.493188750000001335e+02,1.274282500000001335e+02,1.059282500000001050e+02,8.380325000000010505e+01,6.266262500000009084e+01,4.197512500000007662e+01,2.231887500000006241e+01,5.553250000000052644e+00,-9.806124999999958902e+00,-2.108737499999996601e+01,-3.038424999999997311e+01,-3.857174999999998022e+01,-4.455612499999998022e+01,-4.772799999999999443e+01,-5.046237499999999443e+01,-5.260299999999999443e+01,-5.372799999999999443e+01,-5.635299999999999443e+01,-5.822799999999999443e+01,-5.918112499999999443e+01,-6.010299999999999443e+01,-6.211862499999999443e+01,-6.296237499999999443e+01,-6.335299999999999443e+01,-6.402487499999999443e+01,-6.211862499999999443e+01,-6.014987499999999443e+01,-5.725924999999999443e+01,-5.432174999999999443e+01,-5.050924999999999443e+01,-4.521237499999998022e+01,-3.902487499999998022e+01,-3.119674999999997311e+01,-2.358737499999996601e+01,-1.439987499999995890e+01,-4.727999999999954461e+00,5.631375000000050868e+00,1.561575000000005709e+01,2.511575000000006241e+01,3.231887500000006952e+01,3.960012500000007662e+01,4.619387500000007662e+01,4.967825000000008373e+01,5.274075000000009084e+01,5.466262500000009084e+01,5.578762500000009084e+01,5.481887500000009084e+01,5.606887500000009084e+01,5.556887500000009084e+01,5.331887500000009084e+01,5.267825000000009084e+01,5.044387500000009084e+01,4.817825000000007662e+01,4.600637500000007662e+01,4.455325000000007662e+01,4.177200000000006952e+01,3.980325000000006952e+01,3.933450000000006952e+01,3.849075000000006952e+01,3.775637500000006952e+01,3.692825000000006952e+01,3.639700000000006952e+01,3.722512500000006952e+01,3.711575000000006952e+01,3.503762500000006952e+01,3.302200000000006952e+01,3.072512500000006952e+01,2.958450000000006952e+01,2.870950000000006952e+01,2.774075000000006952e+01,2.528762500000006597e+01,2.352200000000006241e+01,2.389700000000006241e+01,2.449075000000006597e+01,2.531887500000006952e+01,2.531887500000006952e+01,2.527200000000006952e+01,2.574075000000006952e+01,2.605325000000006952e+01,2.763137500000006952e+01,2.808450000000006952e+01,2.633450000000006952e+01,2.419387500000006597e+01,2.158450000000006241e+01,1.816262500000005886e+01,1.344387500000005531e+01,9.568875000000053532e+00,3.943875000000050868e+00,-1.743624999999953129e+00,-5.009249999999955349e+00,-8.681124999999957126e+00,-1.047799999999995713e+01,-1.216549999999995890e+01,-1.155612499999995890e+01,-1.141549999999995890e+01,-1.110299999999995890e+01,-9.102999999999957126e+00,-8.227999999999957126e+00,-5.384249999999955349e+00,-4.134249999999954461e+00,-2.399874999999953129e+00,-2.696749999999953129e+00,-3.290499999999953573e+00,-2.524874999999953573e+00,-4.306124999999954461e+00,-5.571749999999954461e+00,-9.806124999999957126e+00,-1.388424999999996068e+01,-1.829049999999996245e+01,-2.239987499999996601e+01,-2.689987499999996956e+01,-3.269674999999997311e+01,-3.622799999999997311e+01,-4.100924999999998022e+01,-4.410299999999998022e+01,-4.683737499999998732e+01,-4.855612499999999443e+01,-5.030612499999999443e+01,-5.158737499999999443e+01,-5.283737499999999443e+01,-5.604049999999999443e+01,-5.833737499999999443e+01,-5.975924999999999443e+01,-6.214987499999999443e+01,-6.577487499999999443e+01,-6.904049999999999443e+01,-7.093112499999999443e+01,-7.200924999999999443e+01,-7.236862499999999443e+01,-7.149362499999999443e+01,-7.277487499999999443e+01,-7.327487499999999443e+01,-7.227487499999999443e+01,-7.268112499999999443e+01,-7.569674999999999443e+01,-7.960299999999999443e+01,-8.299362499999999443e+01,-8.814987500000000864e+01,-9.229050000000000864e+01,-9.571237500000003706e+01,-1.006030000000000371e+02,-1.042280000000000371e+02,-1.057123750000000371e+02,-1.072280000000000371e+02,-1.090092500000000371e+02,-1.112123750000000371e+02,-1.129155000000000371e+02,-1.166186250000000371e+02,-1.197280000000000371e+02,-1.222280000000000371e+02,-1.254780000000000371e+02,-1.284623750000000371e+02,-1.311655000000000371e+02,-1.323686250000000371e+02,-1.338842500000000371e+02,-1.338686250000000371e+02,-1.346030000000000371e+02,-1.354623750000000371e+02,-1.364936250000000371e+02,-1.369936250000000371e+02,-1.385405000000000371e+02,-1.401030000000000371e+02,-1.411811250000000371e+02,-1.414780000000000371e+02,-1.409155000000000371e+02,-1.405873750000000371e+02,-1.399467500000000371e+02,-1.387280000000000371e+02,-1.362748750000000371e+02,-1.332905000000000371e+02,-1.306967500000000371e+02,-1.285248750000000371e+02,-1.257123750000000371e+02,-1.231498750000000371e+02,-1.197592500000000371e+02,-1.160248750000000371e+02,-1.116342500000000371e+02,-1.079311250000000371e+02,-1.037592500000000371e+02,-1.000873750000000371e+02,-9.655612500000002285e+01,-9.214987500000000864e+01,-8.736862499999999443e+01,-8.386862499999999443e+01,-7.993112499999999443e+01,-7.591549999999999443e+01,-7.055612499999999443e+01,-6.363424999999999443e+01,-5.644674999999999443e+01,-4.921237499999998732e+01,-4.272799999999998022e+01,-3.499362499999997311e+01,-2.922799999999997311e+01,-2.300924999999996601e+01,-1.939987499999996245e+01,-1.775924999999996245e+01,-1.571237499999996245e+01,-1.393112499999996245e+01,-1.175924999999995890e+01,-1.044674999999995890e+01,-8.368624999999957126e+00,-6.899874999999956238e+00,-4.649874999999954461e+00,-1.493624999999952685e+00,1.225125000000048647e+00,3.818875000000049980e+00,5.459500000000051756e+00,7.881375000000052644e+00,1.122512500000005531e+01,1.486575000000005886e+01,1.986575000000005886e+01,2.385012500000006241e+01,2.581887500000006952e+01,2.581887500000006952e+01,2.492825000000006952e+01,2.133450000000006241e+01,1.635012500000005886e+01,1.058450000000005531e+01,1.725125000000049980e+00,-6.899874999999955349e+00,-1.480612499999995890e+01,-2.199362499999996601e+01,-2.889987499999997311e+01,-3.372799999999997311e+01,-4.093112499999998022e+01,-5.164987499999999443e+01,-6.566550000000000864e+01,-8.452487500000000864e+01,-1.072592500000000229e+02,-1.328998750000000371e+02,-1.597123750000000655e+02,-1.876967500000000939e+02,-2.107436250000001223e+02,-2.251186250000001223e+02,-2.279780000000001223e+02,-2.198217500000001223e+02,-2.000092500000000939e+02,-1.669311250000000655e+02,-1.250717500000000371e+02,-7.791550000000000864e+01,-2.921237499999997311e+01,1.686575000000005886e+01,5.955325000000007662e+01,9.953762500000010505e+01,1.320376250000001335e+02,1.525845000000001335e+02,1.629438750000001335e+02,1.659438750000001335e+02,1.621157500000001335e+02,1.532095000000001335e+02,1.376157500000001335e+02,1.132407500000001335e+02,8.480325000000010505e+01,5.416262500000009084e+01,2.381887500000006241e+01,-6.946749999999955349e+00,-3.947799999999997311e+01,-7.277487499999999443e+01,-1.050873750000000086e+02,-1.322748750000000371e+02,-1.556655000000000371e+02,-1.742280000000000655e+02,-1.901498750000001223e+02,-2.027748750000001223e+02,-2.090405000000001223e+02,-2.105873750000001223e+02,-2.089311250000001223e+02,-2.054780000000001223e+02,-1.994623750000001223e+02,-1.910405000000001223e+02,-1.795092500000000655e+02,-1.653998750000000655e+02,-1.506030000000000371e+02,-1.350405000000000371e+02,-1.179623750000000371e+02,-1.012748750000000371e+02,-8.593112500000000864e+01,-7.282174999999999443e+01,-6.219674999999999443e+01,-5.407174999999999443e+01,-4.747799999999998732e+01,-4.175924999999998022e+01,-3.732174999999997311e+01,-3.333737499999997311e+01,-3.060299999999997311e+01,-2.852487499999997311e+01,-2.655612499999997311e+01,-2.505612499999997311e+01,-2.608737499999997311e+01,-2.791549999999997311e+01,-3.141549999999997311e+01,-3.546237499999997311e+01,-3.875924999999998022e+01,-4.271237499999998022e+01,-4.718112499999999443e+01,-5.079049999999999443e+01,-5.261862499999999443e+01,-5.605612499999999443e+01,-5.846237499999999443e+01,-6.104049999999999443e+01,-6.433737499999999443e+01,-6.566549999999999443e+01,-6.594674999999999443e+01,-6.691549999999999443e+01,-6.757174999999999443e+01,-6.608737499999999443e+01,-6.508737499999999443e+01,-6.274362499999999443e+01,-5.874362499999999443e+01,-5.633737499999999443e+01,-5.458737499999999443e+01,-5.257174999999999443e+01,-5.057174999999999443e+01,-4.772799999999998732e+01,-4.385299999999998022e+01,-4.135299999999998022e+01,-3.993112499999998022e+01,-3.641549999999997311e+01,-3.224362499999997311e+01,-2.650924999999996956e+01,-2.024362499999996601e+01,-1.549362499999996245e+01,-9.852999999999958902e+00,-2.946749999999954461e+00,5.490750000000050868e+00,1.275637500000005531e+01,1.836575000000005886e+01,2.066262500000005886e+01,2.183450000000006241e+01,2.260012500000006241e+01,1.960012500000006241e+01,1.469387500000005886e+01,5.740750000000050868e+00
-3.796875000000002220e+00,-1.078125000000000711e+01,-1.285937500000000888e+01,-1.331250000000000888e+01,-9.015625000000007105e+00,-3.468750000000002665e+00,-2.171875000000001332e+00,-1.875000000000002220e-01,-1.390625000000000888e+00,-4.312500000000002665e+00,-4.718750000000003553e+00,-1.546875000000001554e+00,3.406250000000001776e+00,4.390625000000003553e+00,5.984375000000004441e+00,1.531250000000001776e+00,-4.046875000000001776e+00,-2.468750000000001776e+00,-3.671875000000001776e+00,-2.218750000000000888e+00,1.093750000000000000e-01,-2.046875000000001332e+00,-2.312500000000001776e+00,-1.484375000000000888e+00,-1.562500000000011102e-02,2.171875000000001332e+00,3.062500000000002220e+00,2.781250000000001776e+00,1.890625000000001332e+00,1.437500000000001332e+00,3.000000000000001776e+00,4.062500000000002665e+00,3.171875000000002220e+00,1.187500000000000666e+00,-8.750000000000005551e-01,-2.750000000000001776e+00,-2.906250000000001776e+00,4.375000000000002220e-01,-5.625000000000006661e-01,3.437500000000000000e-01,2.718750000000001776e+00,-1.718750000000000888e+00,6.250000000000000000e-02,-1.875000000000000000e-01,-4.484375000000002665e+00,-1.015625000000000666e+00,-3.406250000000001776e+00,-5.625000000000003553e+00,-1.921875000000001332e+00,-4.406250000000002665e+00,-3.281250000000000000e-01,3.437500000000002665e+00,5.937500000000005551e-01,2.843750000000001776e+00,-1.546875000000000888e+00,-4.000000000000002665e+00,-2.140625000000001332e+00,-5.187500000000003553e+00,-4.484375000000003553e+00,-4.484375000000003553e+00,-6.093750000000003553e+00,-2.953125000000001776e+00,1.406250000000004996e-01,2.656250000000002776e-01,2.390625000000000888e+00,1.375000000000000444e+00,-8.437500000000008882e-01,1.968750000000001776e+00,3.328125000000002665e+00,4.625000000000003553e+00,6.781250000000005329e+00,3.625000000000002665e+00,-8.750000000000002220e-01,-2.125000000000000888e+00,-5.203125000000003553e+00,-2.640625000000001776e+00,5.937499999999998890e-01,-8.437500000000009992e-01,1.796875000000000888e+00,1.062500000000000444e+00,3.468750000000002220e+00,7.828125000000005329e+00,8.078125000000005329e+00,6.437500000000003553e+00,-4.218750000000008882e-01,-3.890625000000002665e+00,-6.250000000000003553e+00,-4.750000000000002665e+00,1.296875000000000666e+00,1.125000000000000444e+00,2.703125000000000888e+00,3.078125000000001332e+00,1.000000000000000666e+00,2.828125000000001776e+00,1.625000000000001110e+00,-4.062500000000002220e-01,-1.562500000000001110e+00,-1.062500000000000888e+00,1.640625000000000888e+00,5.156250000000003553e+00,7.203125000000005329e+00,3.984375000000003553e+00,1.296875000000001332e+00,-2.046875000000001332e+00,-2.359375000000001332e+00,1.421875000000000888e+00,2.359375000000001776e+00,3.562500000000002220e+00,1.234375000000000666e+00,-3.062500000000001776e+00,-5.593750000000003553e+00,-7.656250000000005329e+00,-8.125000000000005329e+00,-7.781250000000005329e+00,-5.015625000000003553e+00,-2.718750000000001776e+00,1.453125000000000444e+00,8.218750000000003553e+00,9.906250000000005329e+00,1.114062500000000711e+01,9.515625000000005329e+00,2.078125000000000888e+00,-7.968750000000003331e-01,-2.125000000000000888e+00,-2.625000000000001332e+00,5.000000000000004441e-01,1.546875000000001110e+00,-3.125000000000022204e-02,-1.500000000000000888e+00,-1.875000000000001332e+00,-4.687500000000003553e+00,-3.093750000000001776e+00,2.656250000000002776e-01,1.406250000000001110e+00,9.687500000000005329e+00,1.192187500000000711e+01,1.062500000000000711e+01,9.937500000000007105e+00,6.718750000000008882e-01,-3.484375000000002220e+00,-3.859375000000002220e+00,-5.265625000000003553e+00,-9.218750000000008882e-01,1.515625000000000666e+00,-1.312500000000001776e+00,-2.328125000000002665e+00,-5.703125000000003553e+00,-1.092187500000000711e+01,-8.671875000000005329e+00,-5.656250000000003553e+00,-2.109375000000000888e+00,6.328125000000004441e+00,7.546875000000005329e+00,2.531250000000001332e+00,-2.593750000000002220e+00,-1.526562500000001066e+01,-2.568750000000001776e+01,-2.546875000000001776e+01,-2.270312500000001421e+01,-9.953125000000005329e+00,8.421875000000003553e+00,1.735937500000001066e+01,2.128125000000001421e+01,1.657812500000001066e+01,5.609375000000003553e+00,1.453125000000001110e+00,3.421875000000001776e+00,1.150000000000000711e+01,2.025000000000001066e+01,2.268750000000001421e+01,1.781250000000001066e+01,7.171875000000005329e+00,-4.609375000000001776e+00,-1.326562500000000711e+01,-1.629687500000001066e+01,-1.685937500000001066e+01,-1.321875000000000711e+01,-7.796875000000005329e+00,-4.781250000000003553e+00,-6.406250000000002220e-01,2.000000000000001332e+00,1.593750000000001110e+00,4.109375000000002665e+00,7.375000000000005329e+00,6.437500000000003553e+00,6.421875000000003553e+00,1.406250000000001332e+00,-7.359375000000005329e+00,-7.921875000000005329e+00,-9.125000000000007105e+00,-7.984375000000007105e+00,-2.625000000000002220e+00,-5.218750000000003553e+00,-6.140625000000003553e+00,-4.406250000000001776e+00,-7.656250000000003553e+00,-8.468750000000005329e+00,-8.671875000000005329e+00,-1.209375000000000711e+01,-9.312500000000005329e+00,-4.875000000000002665e+00,-1.890625000000001110e+00,-2.656250000000011102e-01,-4.375000000000003553e+00,-7.093750000000006217e+00,-1.506250000000000888e+01,-1.717187500000000711e+01,-1.598437500000000711e+01,-1.789062500000000711e+01,-5.718750000000003553e+00,4.140625000000002665e+00,1.696875000000001066e+01,3.132812500000001776e+01,3.312500000000002132e+01,3.151562500000002132e+01,2.323437500000001421e+01,1.317187500000000711e+01,6.562500000000003553e+00,2.109375000000001776e+00,5.781250000000004441e-01,1.875000000000001665e-01,1.562500000000001388e-01,1.406250000000001110e-01,2.500000000000001665e-01,3.125000000000002220e-01,3.593750000000002220e-01,4.062500000000003331e-01,2.187500000000001943e-01,1.562500000000001735e-02,-1.718750000000001388e-01,-2.968750000000002220e-01,-2.187500000000001665e-01,-1.093750000000000971e-01,-6.938893903907228378e-18,-6.938893903907228378e-18,-4.687500000000004163e-02,-7.812500000000005551e-02,-1.093750000000000833e-01,-4.687500000000002776e-02,-3.125000000000001388e-02,1.562500000000002082e-02,4.687500000000003469e-02,4.687500000000002776e-02,1.093750000000000833e-01,1.562500000000000694e-02,-1.562500000000000694e-02,-1.562500000000000694e-02,-6.250000000000004163e-02,1.406250000000000833e-01,2.343750000000001388e-01,2.500000000000001110e-01,2.812500000000001665e-01,1.387778780781445676e-17,-1.562500000000001110e-01,-2.500000000000001665e-01,-3.281250000000002220e-01,-9.375000000000005551e-02,3.125000000000003469e-02,1.562500000000001110e-01,2.187500000000001665e-01,9.375000000000005551e-02,1.562500000000001041e-02,-1.093750000000000833e-01,-1.718750000000001110e-01,-1.875000000000001388e-01,-1.718750000000001110e-01,-1.250000000000001110e-01,-1.387778780781445676e-17,1.250000000000000833e-01,2.031250000000001110e-01,3.125000000000002220e-01,1.718750000000001388e-01,1.562500000000001735e-02,-1.093750000000000694e-01,-2.812500000000002220e-01,-1.562500000000001110e-01,6.250000000000005551e-02,2.343750000000001665e-01,4.062500000000003331e-01,3.593750000000002776e-01,1.093750000000000833e-01,-9.375000000000004163e-02,-2.187500000000001110e-01,-2.656250000000001665e-01,-1.093750000000000694e-01,1.562500000000001041e-02,-6.938893903907229918e-18,0.000000000000000000e+00,-9.375000000000008327e-02,-1.250000000000001110e-01,-4.687500000000004163e-02,-6.938893903907228378e-18,6.250000000000004163e-02,4.687500000000003469e-02,1.562500000000001041e-02,4.687500000000004163e-02,7.812500000000006939e-02,1.406250000000001110e-01,1.718750000000001665e-01,1.875000000000001665e-01,3.281250000000002776e-01,1.296875000000000888e+00,3.484375000000001776e+00,7.218750000000003553e+00,1.132812500000000711e+01,1.298437500000001066e+01,1.125000000000000711e+01,5.281250000000003553e+00,-7.812499999999966693e-02,-3.281249999999997224e-01,3.421875000000003997e+00,1.084375000000000888e+01,1.387500000000001066e+01,8.062500000000007105e+00,3.124999999999991118e-01,-7.437500000000006217e+00,-1.134375000000000711e+01,-5.375000000000002665e+00,7.812499999999956979e-02,2.031250000000001332e+00,3.921875000000002220e+00,-7.187500000000000000e-01,-4.843750000000001776e+00,-2.765625000000000888e+00,4.406250000000002665e+00,1.225000000000000711e+01,1.821875000000000711e+01,1.665625000000000711e+01,-1.265625000000000888e+00,-1.362500000000000888e+01,-1.829687500000001066e+01,-1.818750000000001066e+01,1.031250000000000000e+00,9.640625000000007105e+00,4.562500000000002665e+00,-3.437500000000000000e-01,-1.428125000000000888e+01,-1.573437500000001066e+01,-1.203125000000000888e+00,1.357812500000000711e+01,2.326562500000001421e+01,2.403125000000001776e+01,9.375000000000005329e+00,-1.221875000000000533e+01,-2.307812500000001421e+01,-3.159375000000002132e+01,-2.646875000000001421e+01,-1.065625000000000711e+01,-1.203125000000001554e+00,9.875000000000007105e+00,1.268750000000000711e+01,9.921875000000005329e+00,7.218750000000004441e+00,3.562500000000002665e+00,5.000000000000002220e-01,-4.531250000000003553e+00,-3.578125000000003109e+00,-3.984375000000003109e+00,-6.406250000000008882e-01,5.781250000000003553e+00,1.312500000000000666e+00,-6.875000000000009992e-01,-7.171875000000005329e+00,-1.337500000000001066e+01,-8.484375000000005329e+00,-5.921875000000003553e+00,-3.906250000000008882e-01,4.234375000000002665e+00,2.078125000000001776e+00,1.140625000000000666e+00,-2.656250000000002220e-01,-2.671875000000001776e+00,-3.296875000000002220e+00,-3.796875000000002220e+00,-4.546875000000002665e+00,-3.687500000000002220e+00,-2.234375000000001776e+00,-1.093750000000000888e+00,-4.687500000000005551e-02,2.656250000000001665e-01,1.250000000000000833e-01,-4.687500000000004163e-02,-1.562500000000001110e-01,-2.187500000000001665e-01,-2.343750000000001665e-01,-2.031250000000001665e-01,-1.875000000000001388e-01,-4.687500000000003469e-02,6.250000000000004163e-02,1.562500000000001110e-01,-6.250000000000005551e-02,-7.031250000000004441e-01,-1.390625000000000888e+00,-2.078125000000001332e+00,-1.593750000000000888e+00,-3.437500000000002220e-01,8.125000000000005551e-01,6.406250000000004441e-01,-1.437500000000001110e+00,-4.562500000000003553e+00,-8.250000000000005329e+00,-7.390625000000005329e+00,-4.640625000000003553e+00,-6.093750000000006661e-01,4.687500000000003553e+00,2.562500000000001776e+00,-1.500000000000001332e+00,-6.843750000000005329e+00,-1.076562500000000711e+01,-6.328125000000004441e+00,7.812500000000066613e-02,9.000000000000007105e+00,1.385937500000001066e+01,1.312500000000001066e+01,1.162500000000000711e+01,4.375000000000002665e+00,-7.343750000000002220e-01,-5.687500000000002665e+00,-1.192187500000000711e+01,-1.048437500000000711e+01,-9.062500000000005329e+00,-5.515625000000002665e+00,2.328125000000001776e+00,5.609375000000003553e+00,1.135937500000000711e+01,1.650000000000001066e+01,1.339062500000000711e+01,8.671875000000003553e+00,-4.328125000000003553e+00,-1.817187500000001066e+01,-2.239062500000001421e+01,-2.459375000000001421e+01,-1.528125000000000888e+01,-4.734375000000003553e+00,5.312500000000004441e-01,1.337500000000000711e+01,1.804687500000001066e+01,2.129687500000001776e+01,2.473437500000001776e+01,1.203125000000000888e+01,1.578125000000001332e+00,-6.531250000000005329e+00,-1.665625000000001066e+01,-1.353125000000000711e+01,-8.828125000000007105e+00,-6.609375000000004441e+00,3.578125000000001776e+00,9.156250000000005329e+00,1.068750000000000711e+01,1.356250000000000888e+01,6.765625000000004441e+00,-2.375000000000001332e+00,-6.921875000000003553e+00,-1.403125000000000711e+01,-1.557812500000001066e+01,-1.060937500000000711e+01,-6.812500000000004441e+00,6.875000000000004441e-01,7.828125000000005329e+00,8.062500000000005329e+00,5.406250000000003553e+00,3.015625000000001776e+00,-2.500000000000002220e+00,-4.062500000000002665e+00,-1.937500000000001332e+00,-2.687500000000001776e+00,1.765625000000001110e+00,7.750000000000004441e+00,1.128125000000000711e+01,1.453125000000000888e+01,1.212500000000000711e+01,1.968750000000001332e+00,-6.296875000000003553e+00,-1.301562500000000711e+01,-1.492187500000000888e+01,-6.953125000000004441e+00,-9.062500000000011102e-01,4.968750000000002665e+00,7.437500000000004441e+00,3.421875000000002665e+00,-8.125000000000002220e-01,-2.875000000000001776e+00,-3.937500000000001776e+00,-4.031250000000001776e+00,-8.281250000000002220e-01,-2.265625000000001332e+00,-1.296875000000000666e+00,2.984375000000002220e+00,5.750000000000003553e+00,1.107812500000000711e+01,1.145312500000000711e+01,6.921875000000003553e+00,-2.328125000000001332e+00,-9.750000000000007105e+00,-1.348437500000000888e+01,-1.192187500000000711e+01,-1.406250000000000444e+00,4.812500000000003553e+00,1.306250000000000888e+01,1.329687500000000888e+01,3.906250000000002665e+00,-1.562500000000000222e+00,-1.375000000000000888e+01,-1.525000000000001066e+01,-7.593750000000005329e+00,-2.437500000000002665e+00,7.406250000000005329e+00,1.125000000000000711e+01,7.953125000000005329e+00,7.281250000000005329e+00,8.343750000000005329e+00,6.281250000000004441e+00,8.281250000000007105e+00,5.296875000000003553e+00,-4.343750000000003553e+00,-8.156250000000007105e+00,-1.523437500000000888e+01,-1.673437500000001066e+01,-1.042187500000000711e+01,-4.781250000000002665e+00,4.875000000000002665e+00,1.276562500000000711e+01,1.253125000000000711e+01,7.625000000000003553e+00,-1.390625000000001776e+00,-1.201562500000000888e+01,-1.401562500000001066e+01,-1.051562500000000711e+01,-2.578125000000001332e+00,5.468750000000003553e+00,6.515625000000005329e+00,3.531250000000003553e+00,-2.734375000000000888e+00,-4.812500000000002665e+00,-2.812499999999995559e-01,7.718750000000006217e+00,1.381250000000001066e+01,1.409375000000001066e+01,5.953125000000005329e+00,-5.734375000000003553e+00,-9.875000000000007105e+00,-1.160937500000000711e+01,-8.265625000000005329e+00,-7.500000000000001110e-01,-1.562499999999998890e-01,2.500000000000002220e+00,7.859375000000005329e+00,8.328125000000005329e+00,9.250000000000005329e+00,4.937500000000002665e+00,-5.781250000000003553e+00,-1.275000000000000888e+01,-1.540625000000001066e+01,-1.131250000000000711e+01,-3.750000000000004441e-01,9.953125000000007105e+00,1.440625000000001066e+01,1.601562500000001066e+01,9.312500000000005329e+00,-1.562500000000088818e-02,-1.828125000000001776e+00,-9.406250000000007105e+00,-7.843750000000005329e+00,-3.234375000000001776e+00,-5.921875000000003553e+00,2.843750000000001332e+00,3.421875000000001776e+00,2.156250000000001776e+00,3.296875000000002220e+00,-4.468750000000002665e+00,-6.718750000000004441e+00,-6.359375000000004441e+00,-2.218750000000001776e+00,3.703125000000002665e+00,7.046875000000005329e+00,6.671875000000004441e+00,1.671875000000001110e+00,-1.718750000000000888e+00,-4.265625000000002665e+00,-3.015625000000001776e+00,7.187500000000006661e-01,5.156250000000003553e+00,1.095312500000000711e+01,1.350000000000001066e+01,1.053125000000000711e+01,2.468750000000001776e+00,-6.687500000000002665e+00,-1.385937500000000711e+01,-1.050000000000000711e+01,6.093750000000008882e-01,8.406250000000005329e+00,1.360937500000000711e+01,1.009375000000000711e+01,1.375000000000000666e+00,-2.765625000000001776e+00,-1.609375000000000444e+00,1.796875000000001998e+00,5.562500000000004441e+00,9.765625000000007105e+00,8.468750000000005329e+00,7.968750000000003553e+00,1.006250000000000533e+01,7.093750000000004441e+00,6.906250000000005329e+00,6.953125000000006217e+00,1.390625000000002220e+00,4.531250000000002220e-01,-2.265625000000002665e+00,-7.593750000000007105e+00,-7.109375000000006217e+00,-1.234375000000000711e+01,-1.889062500000001066e+01,-2.273437500000001421e+01,-2.959375000000002132e+01,-2.854687500000002132e+01,-2.084375000000001421e+01,-1.484375000000000888e+01,-5.109375000000003553e+00,3.703125000000002665e+00,1.115625000000000711e+01,2.821875000000001421e+01,4.195312500000002842e+01,4.804687500000002842e+01,4.379687500000002842e+01,1.684375000000001066e+01,-1.532812500000000888e+01,-4.318750000000002842e+01,-6.056250000000004263e+01,-5.589062500000004263e+01,-4.017187500000002842e+01,-2.284375000000001776e+01,-8.125000000000007105e+00,-7.656250000000011102e-01,4.843750000000001665e-01,4.062500000000001665e-01,-1.406250000000000555e-01,-3.953125000000001776e+00,-5.890625000000002665e+00,-4.171875000000001776e+00,-7.812500000000000000e-01,7.500000000000004441e+00,1.434375000000000888e+01,1.542187500000001066e+01,1.312500000000000711e+01,7.906250000000004441e+00,2.796875000000001776e+00,-9.687500000000003331e-01,-2.281250000000000888e+00,-2.031250000000000888e+00,1.031250000000000888e+00,6.546875000000003553e+00,1.345312500000000711e+01,1.843750000000001066e+01,1.709375000000001066e+01,1.523437500000001066e+01,8.718750000000005329e+00,6.046875000000003553e+00,9.703125000000005329e+00,9.343750000000007105e+00,1.312500000000000888e+01,9.437500000000007105e+00,3.390625000000003109e+00,3.156250000000002220e+00,7.031249999999998890e-01,7.546875000000005329e+00,1.140625000000000711e+01,1.129687500000000711e+01,1.076562500000000711e+01,2.156250000000001776e+00,-5.937500000000000000e-01,-4.281250000000003553e+00,-5.953125000000003553e+00,-4.078125000000003553e+00,-9.046875000000007105e+00,-1.003125000000000711e+01,-1.304687500000000711e+01,-1.639062500000001066e+01,-1.221875000000000711e+01,-9.781250000000005329e+00,-5.671875000000002665e+00,4.375000000000007772e-01,8.593750000000008882e-01,-5.000000000000002220e-01,-1.187500000000000666e+00,-2.500000000000001776e+00,-1.812500000000001554e+00,3.328125000000002665e+00,5.250000000000003553e+00,1.703125000000001110e+00,-2.656250000000004996e-01,-8.562500000000005329e+00,-1.176562500000000711e+01,-6.671875000000004441e+00,-5.203125000000003553e+00,3.531250000000002220e+00,4.656250000000002665e+00,3.125000000000044409e-02,-1.453125000000000222e+00,-1.064062500000000711e+01,-1.096875000000000711e+01,-8.703125000000003553e+00,-7.765625000000004441e+00,1.687500000000000888e+00,3.578125000000002665e+00,5.093750000000002665e+00,8.281250000000005329e+00,4.515625000000003553e+00,6.671875000000003553e+00,7.140625000000004441e+00,6.156250000000004441e+00,5.906250000000003553e+00,1.984375000000001332e+00,1.609375000000000888e+00,-1.171875000000000888e+00,7.656250000000008882e-01,3.515625000000002665e+00,1.703125000000001332e+00,3.468750000000002220e+00,1.515625000000000888e+00,-7.187500000000003331e-01,-1.718750000000001388e-01,2.187500000000001943e-01,-7.500000000000003331e-01,-1.093750000000000666e+00,-2.000000000000001332e+00,-5.968750000000004441e+00,-4.671875000000003553e+00,-2.593750000000002220e+00,4.374999999999995559e-01,6.921875000000003553e+00,6.718750000000003553e+00,5.296875000000003553e+00,1.562500000000001554e+00,-2.640625000000001776e+00,-1.875000000000001332e+00,-3.562500000000002220e+00,-1.656250000000001110e+00,-2.703125000000001776e+00,-4.437500000000003553e+00,3.125000000000002220e-01,-2.812500000000000000e-01,2.578125000000001776e+00,2.890625000000001776e+00,-3.250000000000002665e+00,-2.281250000000001776e+00,-3.156250000000002665e+00,-1.859375000000001998e+00,4.750000000000003553e+00,5.500000000000003553e+00,6.328125000000003553e+00,9.187500000000007105e+00,6.484375000000004441e+00,4.765625000000003553e+00,3.265625000000002220e+00,-4.921875000000002665e+00,-7.734375000000003553e+00,-9.468750000000005329e+00,-9.234375000000005329e+00,-2.562500000000001332e+00,-5.000000000000003331e-01,2.265625000000001332e+00,-3.124999999999995559e-01,-3.750000000000001776e+00,-4.750000000000002665e+00,-4.937500000000002665e+00,1.093750000000001110e+00,2.468750000000002220e+00,6.359375000000003553e+00,5.406250000000003553e+00,2.062500000000000888e+00,4.171875000000002665e+00,6.406250000000005551e-01,2.531250000000001776e+00,3.390625000000002220e+00,2.156250000000001332e+00,4.437500000000002665e+00,3.484375000000002665e+00,1.734375000000001332e+00,-1.031250000000000444e+00,-5.562500000000004441e+00,-7.718750000000006217e+00,-6.750000000000005329e+00,-4.765625000000003553e+00,1.078125000000000444e+00,2.640625000000001776e+00,2.046875000000001332e+00,2.421875000000001332e+00,-1.437500000000001110e+00,1.171875000000000000e+00,3.343750000000001332e+00,3.234375000000001332e+00,4.046875000000001776e+00,-2.312500000000001776e+00,-5.734375000000003553e+00,-8.343750000000005329e+00,-9.796875000000007105e+00,-4.796875000000003553e+00,-1.203125000000000666e+00,4.859375000000002665e+00,8.859375000000005329e+00,1.064062500000000711e+01,9.218750000000005329e+00,3.687500000000001776e+00,2.890625000000001332e+00,-2.203125000000001776e+00,-3.562500000000002220e+00,-2.453125000000000888e+00,-7.750000000000003553e+00,-5.625000000000003553e+00,-5.265625000000003553e+00,-3.375000000000001776e+00,3.406250000000001776e+00,4.359375000000002665e+00,7.875000000000003553e+00,7.078125000000003553e+00,3.250000000000001776e+00,9.375000000000006661e-01,-5.125000000000002665e+00,-8.328125000000005329e+00,-9.187500000000007105e+00,-7.109375000000005329e+00,-1.781250000000001332e+00,3.140625000000001776e+00,7.125000000000004441e+00,6.234375000000003553e+00,2.890625000000001776e+00,-2.343750000000000000e-01,-4.562500000000002665e+00,-3.812500000000002665e+00,-1.921875000000001110e+00,-1.312500000000000666e+00,4.375000000000001110e-01,-2.765625000000001776e+00,-4.968750000000003553e+00,-4.375000000000002665e+00,-3.328125000000001776e+00,1.562500000000000666e+00,3.843750000000002220e+00,2.609375000000001776e+00,2.968749999999997780e-01,-3.203125000000002220e+00,-4.406250000000002665e+00,-3.140625000000001776e+00,-7.812500000000004441e-01,-2.343750000000002776e-01,-9.375000000000011102e-02,2.343750000000001943e-01,2.656250000000002220e-01,3.109375000000001776e+00,4.203125000000001776e+00,2.390625000000001332e+00,-1.296875000000000888e+00,-6.437500000000003553e+00,-8.734375000000005329e+00,-9.031250000000005329e+00,-4.531250000000002665e+00,-7.031250000000008882e-01,2.250000000000000888e+00,7.265625000000004441e+00,6.625000000000003553e+00,8.343750000000005329e+00,8.734375000000005329e+00,5.906250000000003553e+00,4.984375000000003553e+00,1.140625000000000888e+00,-4.031250000000003553e+00,-9.156250000000007105e+00,-1.042187500000000711e+01,-8.578125000000005329e+00,-1.406250000000000000e-01,1.076562500000000711e+01,1.360937500000001066e+01,1.232812500000000888e+01,1.312500000000000888e+00,-1.279687500000000888e+01,-1.720312500000001066e+01,-1.640625000000001066e+01,-6.781250000000004441e+00,8.234375000000007105e+00,1.620312500000001066e+01,2.057812500000001421e+01,2.159375000000001421e+01,1.481250000000000888e+01,8.859375000000007105e+00,1.437500000000000888e+00,-8.140625000000003553e+00,-1.214062500000000711e+01,-1.223437500000000711e+01,-6.109375000000002665e+00,2.109375000000001332e+00,8.062500000000005329e+00,1.057812500000000711e+01,7.859375000000003553e+00,1.006250000000000711e+01,1.998437500000001421e+01,3.128125000000002487e+01,4.198437500000002842e+01,3.504687500000002842e+01,4.343750000000005329e+00,-3.598437500000002842e+01,-8.085937500000005684e+01,-1.059375000000000853e+02,-9.971875000000007105e+01,-7.353125000000005684e+01,-3.067187500000002842e+01,5.656250000000000000e+00,2.106250000000001066e+01,2.298437500000001421e+01,1.659375000000001066e+01,1.290625000000001066e+01,2.204687500000001776e+01,3.710937500000002842e+01,4.556250000000002842e+01,4.976562500000004263e+01,4.589062500000002842e+01,3.396875000000002132e+01,2.737500000000002132e+01,1.628125000000001066e+01,5.281250000000003553e+00,2.343750000000000888e+00,-6.406250000000011102e-01,6.140625000000004441e+00,1.103125000000000711e+01,8.312500000000003553e+00,1.796875000000000888e+00,-1.345312500000000711e+01,-2.220312500000001421e+01,-2.706250000000001776e+01,-2.843750000000002132e+01,-2.307812500000001776e+01,-2.145312500000001421e+01,-1.700000000000001066e+01,-1.001562500000000711e+01,-6.671875000000004441e+00,-2.687500000000001776e+00,-1.890625000000001110e+00,-7.437500000000003553e+00,-1.178125000000000711e+01,-1.595312500000001066e+01,-1.850000000000001066e+01,-1.156250000000000711e+01,-1.890625000000001554e+00,1.054687500000000711e+01,2.307812500000001421e+01,2.434375000000001776e+01,2.134375000000001421e+01,1.178125000000000711e+01,-1.437500000000000222e+00,-5.968750000000003553e+00,-9.906250000000007105e+00,-7.640625000000005329e+00,1.375000000000000666e+00,5.421875000000003553e+00,1.257812500000000711e+01,1.595312500000001066e+01,1.104687500000000711e+01,7.750000000000005329e+00,3.750000000000013323e-01,-5.578125000000002665e+00,-6.281250000000003553e+00,-5.515625000000003553e+00,-2.421875000000001776e+00,1.250000000000001110e-01,2.703125000000001776e+00,1.828125000000001110e+00,-1.562500000000011102e-02,2.500000000000000555e-01,-1.265625000000000666e+00,-1.875000000000000888e+00,-1.343750000000000666e+00,-5.000000000000002665e+00,-8.656250000000005329e+00,-7.265625000000005329e+00,-5.640625000000003553e+00,-2.968750000000004441e-01,6.515625000000003553e+00,6.234375000000003553e+00,2.984375000000001776e+00,-4.062500000000000000e-01,-3.718750000000001776e+00,-4.062500000000002665e+00,-5.625000000000004441e-01,6.250000000000011102e-02,-1.546875000000000888e+00,-8.125000000000004441e-01,-2.734375000000001332e+00,-3.343750000000001776e+00,-2.234375000000001332e+00,-3.921875000000001776e+00,-4.750000000000002665e+00,-2.093750000000000888e+00,-3.124999999999980571e-02,1.328125000000001110e+00,6.406250000000003553e+00,7.484375000000004441e+00,1.168750000000000711e+01,1.967187500000001421e+01,1.892187500000001421e+01,1.670312500000001066e+01,9.093750000000005329e+00
-2.862500000000001421e+01,-2.393750000000001066e+01,1.256250000000000711e+01,1.237500000000000711e+01,-9.062500000000003553e+00,-1.562500000000000711e+01,-5.062500000000002665e+00,1.668750000000000711e+01,1.693750000000000711e+01,-1.243750000000000711e+01,-2.237500000000001066e+01,-1.000000000000000000e+00,1.162500000000000533e+01,1.025000000000000355e+01,6.187500000000002665e+00,-8.125000000000003553e+00,-8.312500000000003553e+00,5.000000000000001776e+00,-4.062500000000001776e+00,-5.125000000000001776e+00,1.356250000000000533e+01,2.875000000000000000e+00,-1.750000000000000711e+01,-1.500000000000000000e+00,1.362500000000000533e+01,-3.937500000000001776e+00,-8.937500000000003553e+00,1.243750000000000711e+01,1.037500000000000711e+01,-1.431250000000000711e+01,-1.262500000000000711e+01,1.100000000000000533e+01,1.793750000000000711e+01,1.812500000000000888e+00,-1.656250000000000711e+01,-1.218750000000000355e+01,1.143750000000000711e+01,1.293750000000000711e+01,-9.000000000000005329e+00,-7.875000000000004441e+00,4.062500000000001776e+00,2.562500000000001332e+00,6.312500000000001776e+00,-1.187500000000001776e+00,-1.418750000000000711e+01,1.062500000000000000e+00,1.187500000000000533e+01,-2.500000000000000000e-01,-9.625000000000003553e+00,-7.250000000000002665e+00,4.062500000000000888e+00,4.937500000000001776e+00,5.000000000000003331e-01,6.062500000000001776e+00,-1.062500000000000888e+00,-1.087500000000000355e+01,-3.000000000000000888e+00,6.000000000000002665e+00,6.125000000000002665e+00,-3.937500000000001776e+00,-1.131250000000000355e+01,-3.562500000000001332e+00,3.625000000000000888e+00,6.812500000000003553e+00,7.500000000000003553e+00,-7.937500000000001776e+00,-1.206250000000000355e+01,1.012500000000000355e+01,9.625000000000003553e+00,-1.106250000000000355e+01,-3.125000000000000888e+00,1.631250000000000711e+01,8.812500000000003553e+00,-1.293750000000000711e+01,-1.581250000000000711e+01,2.500000000000001776e+00,9.750000000000003553e+00,4.937500000000001776e+00,2.937500000000001332e+00,-9.875000000000003553e+00,-1.343750000000000533e+01,9.437500000000005329e+00,2.012500000000001066e+01,3.500000000000001776e+00,-7.500000000000003553e+00,-4.750000000000002665e+00,-7.625000000000003553e+00,-4.125000000000001776e+00,6.750000000000002665e+00,6.000000000000001776e+00,3.625000000000001332e+00,-2.750000000000000888e+00,-1.181250000000000533e+01,7.500000000000000000e-01,1.693750000000000711e+01,5.937500000000001776e+00,-1.412500000000000533e+01,-1.193750000000000355e+01,5.000000000000002665e+00,1.025000000000000533e+01,2.562500000000000888e+00,1.875000000000000666e+00,5.875000000000002665e+00,-6.562500000000001776e+00,-1.593750000000000711e+01,1.875000000000000000e+00,1.843750000000000711e+01,5.937500000000003553e+00,-1.362500000000000711e+01,-4.937500000000003553e+00,1.118750000000000533e+01,-2.562500000000000000e+00,-1.587500000000000711e+01,2.000000000000000000e+00,1.006250000000000355e+01,-9.437500000000005329e+00,-8.625000000000003553e+00,9.812500000000003553e+00,6.375000000000003553e+00,1.062500000000000888e+00,7.687500000000003553e+00,5.500000000000001776e+00,-4.937500000000001776e+00,-1.362500000000000533e+01,-5.187500000000001776e+00,1.575000000000000888e+01,1.006250000000000711e+01,-1.281250000000000711e+01,-7.562500000000004441e+00,7.750000000000003553e+00,1.750000000000001332e+00,-3.625000000000001776e+00,-2.687500000000001332e+00,-4.000000000000001776e+00,1.687500000000000888e+00,7.187500000000003553e+00,1.100000000000000533e+01,7.625000000000003553e+00,-6.375000000000003553e+00,-6.312500000000003553e+00,-2.062500000000000888e+00,-5.500000000000002665e+00,3.500000000000000888e+00,8.250000000000003553e+00,-2.562500000000000000e+00,-3.437500000000000000e+00,1.875000000000003331e-01,-1.375000000000000888e+00,-2.562500000000001776e+00,-1.068750000000000355e+01,-6.937500000000002665e+00,1.281250000000000711e+01,1.025000000000000533e+01,-8.125000000000002220e-01,2.250000000000000888e+00,-4.187500000000002665e+00,-1.000000000000000533e+01,-8.812500000000003553e+00,-1.793750000000001066e+01,-1.025000000000000533e+01,9.750000000000005329e+00,9.562500000000005329e+00,1.556250000000000711e+01,2.287500000000001421e+01,-5.312500000000001776e+00,-2.962500000000001421e+01,-8.062500000000003553e+00,1.956250000000001066e+01,1.456250000000000711e+01,4.250000000000001776e+00,9.500000000000005329e+00,7.250000000000003553e+00,-6.812500000000003553e+00,-1.237500000000000711e+01,-8.687500000000003553e+00,-1.875000000000001332e+00,4.625000000000001776e+00,-4.562500000000001776e+00,-1.381250000000000711e+01,4.312500000000000000e+00,1.618750000000000711e+01,-1.187500000000000888e+00,-1.081250000000000533e+01,-3.562500000000001776e+00,4.750000000000002665e+00,1.506250000000000711e+01,1.137500000000000355e+01,-8.937500000000003553e+00,-2.118750000000000711e+01,-1.350000000000000711e+01,1.393750000000000711e+01,2.150000000000001066e+01,-1.056250000000000355e+01,-2.081250000000001066e+01,6.250000000000000000e-02,6.687500000000003553e+00,7.687500000000003553e+00,1.062500000000000000e+00,-2.043750000000001066e+01,-1.325000000000000533e+01,1.206250000000000711e+01,6.000000000000003553e+00,-4.812500000000002665e+00,7.312500000000002665e+00,1.437500000000000888e+00,-2.087500000000001066e+01,-5.750000000000003553e+00,1.137500000000000711e+01,-6.812500000000002665e+00,-1.575000000000000711e+01,-7.875000000000003553e+00,7.000000000000003553e+00,2.237500000000001066e+01,1.900000000000001066e+01,7.312500000000003553e+00,1.500000000000000888e+00,1.250000000000000833e-01,2.500000000000001665e-01,6.250000000000005551e-02,-6.250000000000002776e-02,6.250000000000002776e-02,0.000000000000000000e+00,0.000000000000000000e+00,1.875000000000000833e-01,0.000000000000000000e+00,-1.250000000000000555e-01,2.500000000000001110e-01,4.375000000000002220e-01,1.875000000000001110e-01,-3.125000000000001665e-01,-6.250000000000003331e-01,-1.875000000000001110e-01,4.375000000000002220e-01,3.125000000000001665e-01,-1.875000000000001110e-01,-1.875000000000001110e-01,0.000000000000000000e+00,-6.250000000000002776e-02,0.000000000000000000e+00,1.250000000000000555e-01,0.000000000000000000e+00,-1.250000000000000555e-01,0.000000000000000000e+00,6.250000000000002776e-02,6.250000000000002776e-02,2.500000000000001110e-01,-6.250000000000000000e-02,-5.625000000000002220e-01,-6.250000000000005551e-02,5.625000000000002220e-01,3.125000000000001665e-01,-1.875000000000001110e-01,-1.250000000000000833e-01,3.125000000000001110e-01,-6.250000000000005551e-02,-6.875000000000004441e-01,-1.875000000000001110e-01,4.375000000000002220e-01,3.125000000000001110e-01,0.000000000000000000e+00,-1.250000000000000555e-01,-6.250000000000002776e-02,6.250000000000002776e-02,6.250000000000002776e-02,-1.875000000000001110e-01,-2.500000000000001110e-01,1.250000000000000833e-01,1.875000000000001110e-01,-2.500000000000001110e-01,-1.250000000000000555e-01,4.375000000000002220e-01,3.125000000000001665e-01,-6.250000000000002776e-02,-1.875000000000000833e-01,-2.500000000000001110e-01,-1.250000000000000555e-01,-6.250000000000002776e-02,6.250000000000002776e-02,4.375000000000002220e-01,3.125000000000001665e-01,-6.250000000000004163e-02,-1.387778780781445676e-17,-2.500000000000001110e-01,-5.625000000000002220e-01,1.250000000000001110e-01,5.625000000000003331e-01,-6.250000000000000000e-02,-2.500000000000001110e-01,1.250000000000000555e-01,-6.250000000000005551e-02,-3.750000000000002220e-01,6.250000000000000000e-02,5.000000000000002220e-01,6.250000000000000000e-02,-3.750000000000002220e-01,-1.250000000000000833e-01,1.250000000000000555e-01,1.250000000000000555e-01,1.875000000000000833e-01,1.250000000000000555e-01,-1.875000000000001110e-01,-2.500000000000001110e-01,1.875000000000000833e-01,6.250000000000003331e-01,8.125000000000004441e-01,3.562500000000001776e+00,1.012500000000000533e+01,1.175000000000000533e+01,-6.250000000000008882e-01,-1.868750000000001066e+01,-1.668750000000000711e+01,1.050000000000000533e+01,2.887500000000001421e+01,1.825000000000001066e+01,-9.312500000000003553e+00,-2.962500000000001421e+01,-1.312500000000000533e+01,1.793750000000000711e+01,1.081250000000000533e+01,-7.250000000000003553e+00,-1.500000000000000888e+00,1.250000000000000000e-01,3.250000000000000888e+00,9.000000000000003553e+00,-1.843750000000000711e+01,-2.856250000000001066e+01,3.006250000000001066e+01,5.593750000000002132e+01,-3.500000000000003553e+00,-3.950000000000001421e+01,-2.300000000000001066e+01,-5.750000000000003553e+00,6.125000000000002665e+00,1.031250000000000355e+01,2.425000000000000711e+01,2.256250000000000711e+01,-3.412500000000001421e+01,-5.106250000000002132e+01,7.750000000000003553e+00,3.200000000000001421e+01,1.350000000000000355e+01,1.487500000000000711e+01,6.937500000000004441e+00,-1.550000000000000711e+01,-1.256250000000000711e+01,-8.062500000000003553e+00,-1.562500000000000711e+01,-1.512500000000000711e+01,4.312500000000000888e+00,2.962500000000001421e+01,1.393750000000000888e+01,-2.262500000000000711e+01,-1.137500000000000533e+01,2.081250000000000711e+01,1.100000000000000711e+01,-1.118750000000000355e+01,-6.937500000000003553e+00,-5.000000000000001776e+00,-4.687500000000001776e+00,8.375000000000003553e+00,1.343750000000000711e+01,4.500000000000002665e+00,-1.143750000000000355e+01,-1.393750000000000533e+01,-3.937500000000001776e+00,-2.500000000000000888e+00,6.625000000000002665e+00,1.375000000000000533e+01,-4.500000000000001776e+00,-1.243750000000000533e+01,3.875000000000001776e+00,8.125000000000003553e+00,-2.750000000000000888e+00,-5.812500000000002665e+00,-1.937500000000000888e+00,-1.875000000000000833e-01,6.250000000000002776e-02,3.750000000000001665e-01,3.125000000000001110e-01,0.000000000000000000e+00,-6.250000000000002776e-02,-6.250000000000002776e-02,-1.250000000000000555e-01,0.000000000000000000e+00,6.250000000000002776e-02,-1.875000000000001110e-01,-1.875000000000001110e-01,1.250000000000000555e-01,0.000000000000000000e+00,-1.250000000000000555e-01,2.500000000000001110e-01,3.125000000000001110e-01,-6.250000000000002776e-02,-1.875000000000000833e-01,-1.312500000000000444e+00,-3.562500000000001332e+00,-9.375000000000004441e-01,5.937500000000001776e+00,5.250000000000001776e+00,-3.312500000000001332e+00,-6.812500000000003553e+00,-5.375000000000001776e+00,-4.937500000000001776e+00,2.937500000000000888e+00,7.562500000000002665e+00,-1.750000000000000888e+00,2.812500000000001776e+00,1.175000000000000711e+01,-1.131250000000000355e+01,-3.262500000000001421e+01,-2.937500000000001776e+00,3.668750000000001421e+01,1.775000000000000711e+01,-2.156250000000001066e+01,-1.062500000000000355e+01,2.087500000000001066e+01,1.450000000000000711e+01,-1.575000000000000711e+01,-1.581250000000000711e+01,4.812500000000001776e+00,-1.937500000000000888e+00,-9.437500000000003553e+00,7.562500000000002665e+00,9.062500000000003553e+00,-6.125000000000001776e+00,-5.187500000000001776e+00,1.200000000000000533e+01,2.175000000000000711e+01,5.875000000000000888e+00,-1.668750000000001066e+01,-2.500000000000001421e+01,-1.737500000000000711e+01,5.562500000000001776e+00,1.512500000000000711e+01,2.687500000000001332e+00,-9.625000000000005329e+00,-1.112500000000000533e+01,1.500000000000000533e+01,3.325000000000001421e+01,8.125000000000003553e+00,-1.037500000000000711e+01,-1.393750000000000711e+01,-1.725000000000000711e+01,4.750000000000003553e+00,1.568750000000000888e+01,-9.000000000000005329e+00,-1.762500000000001066e+01,1.000000000000000888e+00,2.043750000000001066e+01,1.850000000000000711e+01,-7.187500000000003553e+00,-1.212500000000000533e+01,3.687500000000001332e+00,-3.250000000000001776e+00,-8.687500000000003553e+00,1.250000000000000444e+00,-6.750000000000002665e+00,-1.162500000000000355e+01,9.250000000000003553e+00,2.168750000000000711e+01,7.312500000000002665e+00,-1.600000000000000711e+01,-1.775000000000000711e+01,1.137500000000000533e+01,1.850000000000000711e+01,-1.256250000000000711e+01,-1.600000000000000711e+01,8.062500000000003553e+00,8.937500000000003553e+00,2.875000000000000888e+00,1.106250000000000355e+01,1.000000000000000355e+01,-7.250000000000002665e+00,-1.881250000000000711e+01,-8.625000000000003553e+00,3.562500000000000888e+00,-3.750000000000008882e-01,3.687500000000002220e+00,1.150000000000000711e+01,1.312500000000000888e+00,-5.625000000000002665e+00,-2.937500000000001332e+00,-6.625000000000001776e+00,-7.500000000000000000e-01,1.137500000000000355e+01,1.874999999999991118e-01,-1.050000000000000533e+01,-1.937500000000000888e+00,2.562500000000000888e+00,3.500000000000000888e+00,8.687500000000003553e+00,9.562500000000003553e+00,3.500000000000001776e+00,-7.375000000000003553e+00,-2.006250000000001066e+01,-1.225000000000000711e+01,1.262500000000000355e+01,1.250000000000000355e+01,-6.750000000000003553e+00,-4.250000000000001776e+00,2.237500000000000711e+01,1.762500000000000711e+01,-2.718750000000001421e+01,-2.956250000000001421e+01,4.500000000000001776e+00,1.075000000000000355e+01,7.375000000000002665e+00,7.125000000000002665e+00,-5.000000000000000000e-01,-2.125000000000000888e+00,-3.437500000000001776e+00,-2.687500000000001332e+00,1.456250000000000711e+01,1.337500000000000711e+01,-9.625000000000003553e+00,-1.087500000000000355e+01,-1.500000000000000666e+00,-2.687500000000000888e+00,-8.437500000000003553e+00,-7.437500000000003553e+00,5.750000000000002665e+00,9.062500000000003553e+00,1.562500000000000888e+00,1.087500000000000355e+01,1.400000000000000533e+01,-1.437500000000000533e+01,-2.981250000000001421e+01,-6.062500000000003553e+00,1.768750000000000711e+01,9.875000000000003553e+00,-5.500000000000001776e+00,1.437500000000000888e+00,1.081250000000000533e+01,-4.500000000000002665e+00,-2.512500000000001421e+01,-9.937500000000003553e+00,2.900000000000001421e+01,3.187500000000001421e+01,-4.125000000000001776e+00,-2.043750000000000711e+01,-1.256250000000000533e+01,-8.875000000000003553e+00,7.937500000000005329e+00,1.762500000000000711e+01,-8.375000000000005329e+00,-1.381250000000000711e+01,7.187500000000003553e+00,2.437500000000001776e+00,1.687500000000001776e+00,2.150000000000001066e+01,7.125000000000003553e+00,-2.968750000000001066e+01,-2.200000000000000711e+01,1.356250000000000533e+01,8.187500000000003553e+00,-1.556250000000000711e+01,7.437500000000003553e+00,3.287500000000001421e+01,5.000000000000000000e-01,-2.287500000000001066e+01,2.500000000000000000e-01,7.000000000000003553e+00,-4.687500000000001776e+00,-6.750000000000003553e+00,5.000000000000000000e-01,6.000000000000003553e+00,-6.750000000000003553e+00,-1.562500000000001776e+00,1.881250000000000711e+01,1.625000000000000000e+00,-1.837500000000000711e+01,-5.750000000000001776e+00,3.125000000000000000e-01,-4.375000000000001776e+00,1.362500000000000711e+01,2.162500000000001066e+01,-1.056250000000000355e+01,-2.406250000000001066e+01,5.812500000000003553e+00,1.643750000000000711e+01,-8.000000000000001776e+00,-1.037500000000000355e+01,8.687500000000003553e+00,5.437500000000002665e+00,3.437500000000001776e+00,1.943750000000001066e+01,4.125000000000003553e+00,-3.131250000000001421e+01,-2.175000000000001066e+01,7.125000000000003553e+00,1.306250000000000711e+01,2.075000000000001066e+01,1.631250000000000711e+01,-1.750000000000001066e+01,-2.712500000000001421e+01,2.750000000000001776e+00,2.050000000000001066e+01,9.375000000000005329e+00,-8.625000000000003553e+00,-1.118750000000000355e+01,1.087500000000000355e+01,1.725000000000000711e+01,-7.562500000000001776e+00,-8.250000000000001776e+00,1.087500000000000533e+01,5.125000000000001776e+00,-4.625000000000001776e+00,-1.187499999999999556e+00,4.375000000000009437e-01,-4.687500000000002665e+00,-8.125000000000005329e+00,4.562500000000001776e+00,7.125000000000003553e+00,-1.893750000000000711e+01,-2.625000000000001066e+01,-7.250000000000003553e+00,3.375000000000001776e+00,1.068750000000000533e+01,9.437500000000003553e+00,-1.143750000000000533e+01,-1.950000000000000711e+01,9.125000000000003553e+00,4.893750000000002132e+01,4.125000000000002132e+01,-7.000000000000000000e+00,-1.687500000000000711e+01,-4.875000000000001776e+00,-2.987500000000001421e+01,-4.737500000000002132e+01,-1.468750000000000355e+01,2.506250000000001066e+01,2.200000000000000711e+01,-1.306250000000000533e+01,-2.418750000000001066e+01,4.875000000000002665e+00,2.087500000000001421e+01,2.937500000000002665e+00,-9.750000000000003553e+00,-1.218750000000000533e+01,-1.206250000000000711e+01,8.875000000000003553e+00,2.387500000000001421e+01,4.312500000000001776e+00,-8.125000000000003553e+00,5.312500000000002665e+00,4.625000000000001776e+00,-8.750000000000005329e+00,-6.875000000000008882e-01,8.625000000000003553e+00,-5.187500000000001776e+00,-1.143750000000000533e+01,5.375000000000001776e+00,1.556250000000000711e+01,1.187500000000000533e+01,6.812500000000002665e+00,-4.500000000000002665e+00,-9.750000000000005329e+00,-1.187500000000001332e+00,8.250000000000003553e+00,1.375000000000000711e+01,6.875000000000003553e+00,-2.937500000000001332e+00,-7.437500000000003553e+00,-9.000000000000003553e+00,3.000000000000000888e+00,1.337500000000000711e+01,9.500000000000005329e+00,1.312500000000000000e+00,-2.937500000000001776e+00,-9.375000000000001110e-01,-4.625000000000002665e+00,-5.562500000000002665e+00,3.750000000000002665e+00,6.875000000000003553e+00,-2.125000000000001332e+00,-1.550000000000000711e+01,-8.875000000000003553e+00,7.750000000000002665e+00,-2.250000000000001776e+00,-1.212500000000000533e+01,1.437500000000000000e+00,8.250000000000003553e+00,6.250000000000003553e+00,1.562500000000000888e+00,-1.400000000000000711e+01,-1.156250000000000711e+01,1.300000000000000711e+01,1.125000000000000711e+01,-4.437500000000001776e+00,2.625000000000000444e+00,2.812500000000000000e+00,-1.231250000000000533e+01,-1.581250000000000711e+01,-1.000000000000001776e+00,1.687500000000000711e+01,9.062500000000003553e+00,-6.125000000000002665e+00,-4.437500000000001776e+00,-2.187500000000000888e+00,-1.687500000000000666e+00,-6.062500000000002665e+00,-7.687500000000003553e+00,2.437500000000000888e+00,5.687500000000002665e+00,6.687500000000003553e+00,3.500000000000001776e+00,-8.187500000000003553e+00,-1.375000000000001776e+00,9.312500000000003553e+00,2.562500000000000888e+00,7.500000000000000000e-01,5.000000000000001776e+00,-4.250000000000002665e+00,-8.750000000000003553e+00,7.062500000000002665e+00,4.062500000000001776e+00,-8.625000000000003553e+00,9.000000000000005329e+00,1.143750000000000711e+01,-1.631250000000000711e+01,-1.118750000000000533e+01,1.762500000000000711e+01,9.625000000000005329e+00,-1.556250000000000711e+01,-9.187500000000003553e+00,1.362500000000000711e+01,9.312500000000003553e+00,-1.968750000000000711e+01,-1.743750000000000711e+01,1.775000000000000711e+01,2.231250000000000711e+01,-2.187500000000001776e+00,-1.093750000000000533e+01,-4.937500000000001776e+00,-2.812500000000001332e+00,2.750000000000000888e+00,1.131250000000000533e+01,-9.375000000000000000e-01,-1.443750000000000711e+01,-5.062500000000002665e+00,5.437500000000002665e+00,9.000000000000003553e+00,4.687500000000002665e+00,-3.375000000000001776e+00,-6.062500000000003553e+00,-9.000000000000003553e+00,3.750000000000017764e-01,1.231250000000000711e+01,1.562500000000001776e+00,-3.375000000000001776e+00,3.625000000000000888e+00,-2.000000000000000888e+00,2.687500000000001776e+00,1.331250000000000711e+01,-2.375000000000000888e+00,-1.412500000000000533e+01,-3.625000000000000888e+00,1.062500000000000444e+00,-5.312500000000001776e+00,-1.687500000000000444e+00,1.193750000000000533e+01,6.625000000000002665e+00,-9.250000000000003553e+00,-8.500000000000003553e+00,-6.875000000000004441e-01,-1.312500000000000444e+00,8.125000000000008882e-01,1.243750000000000533e+01,6.187500000000001776e+00,-1.012500000000000533e+01,-7.750000000000003553e+00,5.062500000000001776e+00,1.293750000000000711e+01,3.125000000000000000e-01,-1.412500000000000711e+01,-1.000000000000000000e+00,1.381250000000000711e+01,5.562500000000002665e+00,-5.875000000000002665e+00,-4.812500000000001776e+00,-1.875000000000000888e+00,-3.500000000000001776e+00,-2.500000000000001332e+00,-6.250000000000001110e-01,6.250000000000011102e-02,1.018750000000000355e+01,9.062500000000003553e+00,-1.387500000000000711e+01,-1.418750000000000711e+01,8.562500000000003553e+00,1.431250000000000533e+01,3.125000000000000888e+00,-3.750000000000001776e+00,-5.187500000000002665e+00,-1.025000000000000533e+01,-2.187500000000000888e+00,1.118750000000000711e+01,-4.125000000000001776e+00,-1.593750000000000711e+01,8.062500000000003553e+00,2.218750000000001066e+01,1.625000000000000000e+00,-8.187500000000003553e+00,-7.500000000000000000e-01,-5.250000000000002665e+00,2.000000000000000888e+00,1.206250000000000533e+01,-6.500000000000003553e+00,-1.500000000000000711e+01,1.125000000000000000e+00,7.000000000000002665e+00,-3.750000000000000888e+00,-3.500000000000000888e+00,1.118750000000000355e+01,6.437500000000002665e+00,-6.625000000000002665e+00,-3.125000000000000000e-01,4.750000000000001776e+00,-2.062500000000001332e+00,-7.250000000000003553e+00,-8.375000000000003553e+00,-4.687500000000001776e+00,7.375000000000003553e+00,1.312500000000000711e+01,8.750000000000008882e-01,-7.250000000000003553e+00,3.750000000000004441e-01,4.750000000000002665e+00,-2.937500000000000888e+00,-1.175000000000000533e+01,-2.312500000000001776e+00,1.612500000000000711e+01,9.250000000000003553e+00,-1.343750000000000711e+01,-1.700000000000000711e+01,1.000000000000000888e+00,1.362500000000000711e+01,4.000000000000001776e+00,-4.687500000000002665e+00,2.312500000000000888e+00,2.000000000000000888e+00,-8.437500000000003553e+00,-6.937500000000003553e+00,4.062500000000001776e+00,8.062500000000003553e+00,3.500000000000001776e+00,-6.500000000000003553e+00,-1.006250000000000533e+01,2.437500000000000888e+00,1.106250000000000355e+01,4.875000000000001776e+00,-8.750000000000003331e-01,-3.750000000000002220e+00,-9.312500000000003553e+00,-7.937500000000003553e+00,3.125000000000000888e+00,6.562500000000002665e+00,8.750000000000004441e-01,-4.625000000000001776e+00,-2.250000000000000888e+00,1.181250000000000355e+01,9.562500000000003553e+00,-8.750000000000003553e+00,-4.875000000000001776e+00,9.437500000000005329e+00,5.187500000000002665e+00,-4.250000000000002665e+00,-7.562500000000003553e+00,-1.187500000000000533e+01,-7.062500000000003553e+00,7.375000000000003553e+00,1.606250000000000711e+01,1.500000000000000711e+01,2.625000000000001332e+00,-9.437500000000003553e+00,-1.662500000000000711e+01,-2.056250000000000711e+01,-1.187500000000000000e+00,2.031250000000000711e+01,9.125000000000003553e+00,-7.499999999999997780e-01,7.375000000000003553e+00,5.750000000000002665e+00,1.937500000000000444e+00,3.125000000000000888e+00,-9.375000000000002220e-01,-5.062500000000001776e+00,-1.106250000000000533e+01,-1.500000000000000711e+01,2.187500000000000888e+00,2.356250000000001066e+01,1.050000000000000533e+01,-1.156250000000000533e+01,-1.500000000000000000e+00,2.187500000000001776e+00,-1.237500000000000533e+01,1.281250000000000355e+01,5.456250000000002132e+01,3.825000000000001421e+01,-2.337500000000001421e+01,-5.912500000000002842e+01,-4.268750000000001421e+01,-2.906250000000001421e+01,-3.881250000000002132e+01,-1.825000000000000711e+01,2.656250000000001421e+01,4.675000000000001421e+01,2.662500000000000711e+01,-2.481250000000001421e+01,-4.531250000000002132e+01,5.062500000000003553e+00,4.600000000000001421e+01,2.625000000000000711e+01,6.437500000000002665e+00,5.312500000000002665e+00,1.312500000000000888e+00,8.062500000000003553e+00,1.650000000000000711e+01,9.375000000000005329e+00,-9.750000000000005329e+00,-2.387500000000001066e+01,-6.562500000000001776e+00,2.281250000000001066e+01,2.681250000000001066e+01,3.875000000000000000e+00,-2.081250000000001066e+01,-2.212500000000001066e+01,-8.375000000000003553e+00,5.062500000000001776e+00,3.875000000000001776e+00,-1.462500000000000711e+01,-1.706250000000000711e+01,-1.000000000000000444e+00,7.000000000000003553e+00,7.812500000000003553e+00,-7.500000000000000000e-01,-1.187500000000000533e+01,-1.312500000000001776e+00,8.500000000000003553e+00,-8.750000000000003553e+00,-2.275000000000000711e+01,-8.250000000000005329e+00,1.587500000000000711e+01,1.750000000000001066e+01,4.625000000000002665e+00,8.250000000000003553e+00,1.093750000000000355e+01,-3.937500000000001776e+00,-1.487500000000000711e+01,-1.012500000000000533e+01,6.625000000000002665e+00,7.875000000000003553e+00,-9.500000000000003553e+00,-2.875000000000000888e+00,1.625000000000000711e+01,1.418750000000000711e+01,2.062500000000000444e+00,-1.056250000000000355e+01,-1.056250000000000355e+01,4.937500000000002665e+00,5.375000000000003553e+00,-8.750000000000003553e+00,-4.937500000000002665e+00,8.312500000000003553e+00,5.625000000000002665e+00,3.750000000000004996e-01,-3.312500000000001332e+00,-1.050000000000000533e+01,1.187500000000000000e+00,1.518750000000000711e+01,-1.437500000000000000e+00,-1.262500000000000533e+01,-1.250000000000000444e+00,-4.375000000000001776e+00,-7.812500000000003553e+00,8.375000000000003553e+00,1.425000000000000533e+01,5.500000000000002665e+00,-4.875000000000000888e+00,-1.606250000000000711e+01,-8.562500000000003553e+00,1.406250000000000711e+01,1.268750000000000711e+01,-5.125000000000001776e+00,-1.037500000000000355e+01,-7.375000000000003553e+00,4.750000000000001776e+00,1.387500000000000711e+01,-2.187500000000000000e+00,-1.575000000000000711e+01,-4.312500000000002665e+00,5.437500000000001776e+00,6.062500000000002665e+00,5.625000000000002665e+00,-2.750000000000000888e+00,-6.125000000000002665e+00,-6.250000000000001110e-01,1.037500000000000355e+01,2.900000000000001066e+01,1.406250000000000355e+01
-3.150000000000000711e+01,-1.300000000000000355e+01,1.925000000000000355e+01,1.050000000000000355e+01,-2.375000000000000711e+01,1.750000000000000355e+01,-2.500000000000000711e+01,1.700000000000000355e+01,1.550000000000000355e+01,-1.475000000000000355e+01,-9.250000000000001776e+00,-3.250000000000000000e+00,2.250000000000000355e+01,-2.275000000000000355e+01,2.475000000000000711e+01,-8.250000000000003553e+00,-2.225000000000000355e+01,2.975000000000000711e+01,-1.050000000000000355e+01,-1.925000000000000355e+01,2.700000000000000711e+01,-7.500000000000000000e-01,-1.725000000000000355e+01,-3.750000000000001776e+00,2.450000000000000711e+01,-1.175000000000000355e+01,-1.325000000000000355e+01,1.350000000000000355e+01,1.225000000000000355e+01,-1.550000000000000355e+01,-1.075000000000000355e+01,1.625000000000000355e+01,-1.250000000000000444e+00,1.000000000000000355e+01,-1.500000000000000355e+01,-4.000000000000000888e+00,1.000000000000000000e+00,2.125000000000000711e+01,-1.425000000000000355e+01,-1.875000000000000355e+01,3.850000000000000711e+01,-3.725000000000000711e+01,2.350000000000000711e+01,4.500000000000000000e+00,-2.325000000000000355e+01,4.500000000000000000e+00,2.325000000000000711e+01,-2.725000000000000711e+01,2.225000000000000355e+01,-2.400000000000000711e+01,9.750000000000003553e+00,1.425000000000000355e+01,-2.550000000000000711e+01,2.125000000000000711e+01,3.250000000000000000e+00,-2.850000000000000711e+01,3.075000000000000711e+01,-2.975000000000000711e+01,3.325000000000000711e+01,-2.500000000000000711e+01,1.325000000000000355e+01,-2.200000000000000355e+01,3.000000000000000711e+01,-3.025000000000000711e+01,3.025000000000000711e+01,-1.025000000000000355e+01,-1.950000000000000355e+01,1.700000000000000355e+01,1.150000000000000178e+01,-1.925000000000000355e+01,-2.000000000000000000e+00,1.625000000000000355e+01,0.000000000000000000e+00,-5.000000000000000888e+00,-7.750000000000001776e+00,-7.000000000000001776e+00,3.125000000000000711e+01,-3.700000000000000711e+01,3.525000000000000711e+01,-1.725000000000000355e+01,-1.400000000000000355e+01,1.600000000000000355e+01,0.000000000000000000e+00,1.500000000000000355e+01,-2.950000000000000711e+01,2.600000000000000711e+01,-1.700000000000000355e+01,-4.000000000000000888e+00,1.300000000000000355e+01,-2.500000000000000888e+00,-8.000000000000001776e+00,2.300000000000000711e+01,-3.250000000000000711e+01,1.550000000000000355e+01,1.750000000000000444e+00,1.000000000000000178e+01,-1.225000000000000178e+01,-9.750000000000001776e+00,1.425000000000000355e+01,-7.250000000000001776e+00,1.475000000000000355e+01,-2.175000000000000355e+01,2.350000000000000711e+01,-7.750000000000002665e+00,-1.425000000000000355e+01,5.000000000000000888e+00,9.250000000000001776e+00,5.250000000000000888e+00,-8.500000000000001776e+00,-1.575000000000000355e+01,2.925000000000000711e+01,-1.350000000000000355e+01,-5.250000000000001776e+00,-9.500000000000003553e+00,3.075000000000000711e+01,-2.350000000000000711e+01,-7.000000000000001776e+00,1.775000000000000355e+01,-2.500000000000000000e-01,-1.475000000000000355e+01,2.200000000000000355e+01,-1.200000000000000178e+01,6.000000000000000888e+00,-3.250000000000000444e+00,-1.675000000000000355e+01,2.000000000000000355e+01,6.750000000000002665e+00,-1.375000000000000355e+01,-8.500000000000001776e+00,1.825000000000000355e+01,-4.000000000000000888e+00,-1.475000000000000355e+01,2.550000000000000711e+01,-3.025000000000000711e+01,2.025000000000000355e+01,-2.750000000000000444e+00,-8.250000000000001776e+00,2.750000000000000355e+01,-2.575000000000000355e+01,4.250000000000000888e+00,1.025000000000000178e+01,-1.625000000000000355e+01,4.000000000000000000e+00,1.425000000000000355e+01,-1.225000000000000355e+01,-3.250000000000000888e+00,1.525000000000000355e+01,-2.050000000000000711e+01,1.650000000000000355e+01,-6.250000000000001776e+00,-1.750000000000000355e+01,1.925000000000000355e+01,8.750000000000003553e+00,-2.300000000000000711e+01,2.100000000000000355e+01,-3.500000000000000000e+00,-1.975000000000000711e+01,2.225000000000000711e+01,-1.750000000000000355e+01,-1.625000000000000711e+01,2.900000000000000711e+01,-1.175000000000000355e+01,-5.500000000000001776e+00,3.100000000000000711e+01,-1.075000000000000178e+01,-1.775000000000000355e+01,-4.250000000000001776e+00,1.700000000000000355e+01,7.000000000000001776e+00,-1.700000000000000355e+01,2.050000000000000711e+01,-8.000000000000003553e+00,8.000000000000003553e+00,-2.000000000000000711e+01,1.625000000000000355e+01,-1.850000000000000355e+01,1.375000000000000355e+01,3.500000000000000888e+00,-2.025000000000000711e+01,5.250000000000001776e+00,1.750000000000000355e+01,-6.750000000000000888e+00,-1.400000000000000355e+01,1.650000000000000355e+01,-1.575000000000000355e+01,1.250000000000000355e+01,1.150000000000000355e+01,-1.425000000000000355e+01,-7.500000000000002220e-01,-5.750000000000001776e+00,-1.175000000000000178e+01,4.475000000000001421e+01,-2.900000000000000711e+01,-1.375000000000000355e+01,1.950000000000000355e+01,-7.500000000000001776e+00,-2.750000000000000888e+00,1.850000000000000711e+01,-1.625000000000000355e+01,-2.325000000000000711e+01,3.750000000000000711e+01,-1.700000000000000355e+01,5.000000000000000000e-01,-2.750000000000000000e+00,1.925000000000000355e+01,-1.625000000000000355e+01,-3.425000000000000711e+01,7.675000000000001421e+01,-7.875000000000001421e+01,5.325000000000000711e+01,-4.050000000000000711e+01,1.775000000000000355e+01,6.250000000000002665e+00,5.250000000000000888e+00,5.000000000000001110e-01,-2.500000000000000555e-01,0.000000000000000000e+00,2.500000000000000555e-01,0.000000000000000000e+00,-2.500000000000000555e-01,2.500000000000000555e-01,0.000000000000000000e+00,-2.500000000000000555e-01,2.500000000000000555e-01,2.500000000000000555e-01,-7.500000000000002220e-01,7.500000000000002220e-01,-2.500000000000000555e-01,2.500000000000000555e-01,0.000000000000000000e+00,-5.000000000000001110e-01,0.000000000000000000e+00,2.500000000000000555e-01,2.500000000000000555e-01,-2.500000000000000555e-01,-2.500000000000000555e-01,5.000000000000001110e-01,-5.000000000000001110e-01,2.500000000000000555e-01,0.000000000000000000e+00,0.000000000000000000e+00,0.000000000000000000e+00,-2.500000000000000555e-01,5.000000000000001110e-01,-5.000000000000001110e-01,2.500000000000000555e-01,5.000000000000001110e-01,-1.000000000000000222e+00,2.500000000000000555e-01,5.000000000000001110e-01,-2.500000000000000555e-01,2.500000000000000555e-01,-5.000000000000001110e-01,2.500000000000000555e-01,7.500000000000002220e-01,-1.500000000000000444e+00,7.500000000000002220e-01,0.000000000000000000e+00,0.000000000000000000e+00,2.500000000000000555e-01,-5.000000000000001110e-01,5.000000000000001110e-01,-5.000000000000001110e-01,5.000000000000001110e-01,-2.500000000000000555e-01,-2.500000000000000555e-01,2.500000000000000555e-01,0.000000000000000000e+00,2.500000000000000555e-01,-1.000000000000000222e+00,1.250000000000000444e+00,-5.000000000000001110e-01,0.000000000000000000e+00,2.500000000000000555e-01,-5.000000000000001110e-01,2.500000000000000555e-01,0.000000000000000000e+00,-2.500000000000000555e-01,2.500000000000000555e-01,5.000000000000001110e-01,-7.500000000000002220e-01,5.000000000000001110e-01,0.000000000000000000e+00,-5.000000000000001110e-01,-2.500000000000000555e-01,1.250000000000000444e+00,-1.000000000000000222e+00,2.500000000000000555e-01,0.000000000000000000e+00,2.500000000000000555e-01,-5.000000000000001110e-01,0.000000000000000000e+00,5.000000000000001110e-01,0.000000000000000000e+00,-5.000000000000001110e-01,2.500000000000000555e-01,0.000000000000000000e+00,0.000000000000000000e+00,0.000000000000000000e+00,2.500000000000000555e-01,-2.500000000000000555e-01,0.000000000000000000e+00,-2.500000000000000555e-01,7.500000000000002220e-01,-5.000000000000001110e-01,1.000000000000000222e+00,-5.000000000000001110e-01,1.150000000000000355e+01,-6.000000000000001776e+00,3.000000000000000000e+00,-2.400000000000000711e+01,1.575000000000000355e+01,8.250000000000001776e+00,7.500000000000001776e+00,-3.000000000000000000e+00,-8.750000000000003553e+00,-2.250000000000000355e+01,2.850000000000000711e+01,6.500000000000001776e+00,-2.650000000000000711e+01,1.875000000000000355e+01,5.000000000000000000e-01,-2.100000000000000355e+01,3.300000000000000711e+01,-1.375000000000000178e+01,-2.350000000000000711e+01,-8.250000000000000000e+00,8.175000000000001421e+01,-4.950000000000001421e+01,-1.225000000000000355e+01,1.325000000000000355e+01,-2.125000000000000355e+01,1.200000000000000178e+01,1.575000000000000355e+01,-3.875000000000000711e+01,7.500000000000001421e+01,-4.550000000000001421e+01,-3.850000000000000711e+01,2.925000000000000711e+01,1.675000000000000355e+01,-1.200000000000000355e+01,-3.000000000000000444e+00,4.175000000000000711e+01,-5.825000000000001421e+01,3.425000000000000711e+01,-1.350000000000000355e+01,-1.050000000000000355e+01,1.200000000000000355e+01,-2.775000000000000355e+01,3.400000000000000711e+01,1.025000000000000178e+01,-2.750000000000000355e+01,-4.000000000000000888e+00,1.550000000000000355e+01,1.625000000000000355e+01,-3.125000000000000711e+01,1.350000000000000355e+01,8.250000000000003553e+00,-3.300000000000000711e+01,3.975000000000000711e+01,-2.625000000000000711e+01,2.375000000000000711e+01,-9.750000000000001776e+00,-2.025000000000000711e+01,2.500000000000000711e+01,-1.900000000000000355e+01,1.000000000000000000e+00,2.025000000000000711e+01,-9.500000000000003553e+00,-1.350000000000000355e+01,1.100000000000000178e+01,5.000000000000001776e+00,-7.000000000000001776e+00,0.000000000000000000e+00,0.000000000000000000e+00,-2.500000000000000555e-01,2.500000000000000555e-01,-2.500000000000000555e-01,7.500000000000002220e-01,-7.500000000000002220e-01,5.000000000000001110e-01,-2.500000000000000555e-01,0.000000000000000000e+00,0.000000000000000000e+00,0.000000000000000000e+00,2.500000000000000555e-01,-7.500000000000002220e-01,7.500000000000002220e-01,-2.500000000000000555e-01,-2.500000000000000555e-01,2.500000000000000555e-01,2.500000000000000555e-01,-2.500000000000000555e-01,0.000000000000000000e+00,0.000000000000000000e+00,0.000000000000000000e+00,-5.000000000000000888e+00,5.750000000000000888e+00,3.250000000000000888e+00,-3.750000000000000888e+00,-1.500000000000000222e+00,-3.500000000000000888e+00,7.500000000000001776e+00,-2.075000000000000355e+01,3.375000000000000711e+01,-2.525000000000000711e+01,4.250000000000000888e+00,1.325000000000000355e+01,0.000000000000000000e+00,-2.425000000000000711e+01,-5.500000000000000000e+00,2.375000000000000355e+01,2.325000000000000711e+01,-4.250000000000001421e+01,1.200000000000000355e+01,4.000000000000000888e+00,1.625000000000000355e+01,-1.100000000000000355e+01,-2.350000000000000355e+01,2.800000000000000711e+01,-6.500000000000001776e+00,-1.775000000000000355e+01,1.375000000000000355e+01,1.175000000000000178e+01,-2.175000000000000711e+01,1.550000000000000355e+01,-1.675000000000000355e+01,2.850000000000000711e+01,-5.750000000000001776e+00,-9.500000000000001776e+00,-1.250000000000000222e+00,-1.025000000000000178e+01,-7.750000000000001776e+00,3.750000000000000711e+01,-3.900000000000000711e+01,3.275000000000000711e+01,-2.850000000000000711e+01,-2.500000000000000000e+00,4.450000000000001421e+01,-2.175000000000000711e+01,-8.500000000000001776e+00,2.150000000000000355e+01,-3.400000000000000711e+01,7.000000000000001776e+00,2.950000000000000711e+01,-2.650000000000000711e+01,-2.250000000000000000e+00,7.000000000000001776e+00,-8.500000000000001776e+00,3.150000000000000711e+01,-1.900000000000000355e+01,-1.200000000000000178e+01,1.575000000000000355e+01,5.000000000000000888e+00,-3.275000000000000711e+01,3.700000000000000711e+01,-2.200000000000000711e+01,-3.000000000000000000e+00,1.750000000000000000e+00,1.550000000000000355e+01,-1.500000000000000888e+00,-4.250000000000000888e+00,-8.500000000000001776e+00,-1.400000000000000178e+01,5.450000000000001421e+01,-5.025000000000001421e+01,1.250000000000000355e+01,-2.750000000000000888e+00,1.850000000000000355e+01,-2.500000000000000711e+01,2.325000000000000711e+01,-2.750000000000000000e+00,-2.750000000000000888e+00,-5.000000000000000000e-01,-2.275000000000000355e+01,3.250000000000000711e+01,-2.325000000000000711e+01,3.750000000000000000e+00,1.575000000000000355e+01,-1.025000000000000178e+01,7.500000000000002220e-01,-3.000000000000000888e+00,1.025000000000000355e+01,-2.750000000000000711e+01,3.325000000000000711e+01,-9.000000000000003553e+00,-1.825000000000000355e+01,2.225000000000000711e+01,-1.875000000000000355e+01,1.575000000000000355e+01,-1.100000000000000355e+01,1.625000000000000355e+01,-8.500000000000001776e+00,3.000000000000000444e+00,-1.000000000000000000e+00,-2.575000000000000355e+01,2.525000000000000355e+01,5.500000000000000888e+00,-1.900000000000000355e+01,1.775000000000000355e+01,-3.125000000000000711e+01,7.200000000000002842e+01,-6.300000000000001421e+01,-2.250000000000000000e+00,2.150000000000000355e+01,-1.075000000000000355e+01,4.000000000000001776e+00,7.750000000000001776e+00,-4.000000000000000888e+00,-7.250000000000001776e+00,1.600000000000000355e+01,-2.075000000000000355e+01,6.250000000000000888e+00,3.200000000000000711e+01,-4.025000000000001421e+01,1.825000000000000355e+01,-4.250000000000000888e+00,-7.000000000000000888e+00,1.475000000000000355e+01,-2.900000000000000711e+01,2.600000000000000711e+01,-1.175000000000000355e+01,1.525000000000000355e+01,-2.925000000000000711e+01,5.275000000000001421e+01,-4.125000000000000711e+01,6.250000000000001776e+00,-1.675000000000000355e+01,2.250000000000000355e+01,2.500000000000000888e+00,-1.350000000000000355e+01,5.250000000000001776e+00,5.500000000000001776e+00,3.750000000000000888e+00,-1.225000000000000355e+01,-1.875000000000000355e+01,2.750000000000000355e+01,8.000000000000000000e+00,6.250000000000001776e+00,-3.675000000000000711e+01,3.350000000000000711e+01,-2.825000000000000711e+01,2.500000000000001776e+00,2.675000000000000711e+01,-1.075000000000000355e+01,-2.875000000000000355e+01,3.650000000000000711e+01,-1.250000000000000355e+01,-1.450000000000000355e+01,2.550000000000000711e+01,5.250000000000001776e+00,-1.750000000000000355e+01,-2.050000000000000355e+01,2.175000000000000355e+01,1.275000000000000355e+01,-2.775000000000000711e+01,7.500000000000000000e-01,2.850000000000000711e+01,9.500000000000003553e+00,-5.275000000000001421e+01,4.125000000000001421e+01,-6.500000000000001776e+00,-1.900000000000000711e+01,3.075000000000000711e+01,-4.300000000000001421e+01,4.300000000000001421e+01,-1.600000000000000355e+01,-2.875000000000000711e+01,5.500000000000001421e+01,-3.275000000000000711e+01,7.250000000000001776e+00,-1.725000000000000355e+01,2.800000000000000711e+01,-2.775000000000000711e+01,6.000000000000001776e+00,3.025000000000000711e+01,-1.950000000000000355e+01,-1.325000000000000178e+01,7.500000000000000000e-01,2.800000000000000711e+01,-2.075000000000000355e+01,-9.000000000000003553e+00,1.575000000000000355e+01,4.500000000000000888e+00,-2.100000000000000711e+01,2.475000000000000711e+01,7.000000000000000000e+00,-1.925000000000000355e+01,-2.650000000000000711e+01,4.350000000000001421e+01,-3.200000000000000711e+01,2.075000000000000355e+01,1.375000000000000355e+01,-1.200000000000000178e+01,-2.025000000000000711e+01,7.250000000000002665e+00,1.825000000000000355e+01,-1.250000000000000355e+01,1.375000000000000355e+01,-2.275000000000000711e+01,5.750000000000000888e+00,2.625000000000000355e+01,-1.875000000000000355e+01,-1.375000000000000355e+01,2.650000000000000711e+01,-7.750000000000001776e+00,-1.075000000000000178e+01,1.775000000000000355e+01,-2.050000000000000355e+01,2.150000000000000355e+01,-2.150000000000000355e+01,2.500000000000000444e+00,2.100000000000000355e+01,-1.625000000000000355e+01,-2.100000000000000355e+01,1.925000000000000355e+01,-1.200000000000000178e+01,3.750000000000000000e+00,1.450000000000000355e+01,-9.000000000000001776e+00,-1.625000000000000355e+01,1.150000000000000178e+01,-5.000000000000000000e+00,6.150000000000001421e+01,-5.000000000000001421e+01,4.500000000000000888e+00,1.300000000000000355e+01,-8.000000000000001776e+00,-3.350000000000000711e+01,6.000000000000000000e+00,6.500000000000001776e+00,2.125000000000000355e+01,-1.425000000000000355e+01,-1.450000000000000355e+01,-2.500000000000000000e-01,2.700000000000000711e+01,-1.475000000000000355e+01,-4.000000000000000000e+00,8.500000000000001776e+00,-1.700000000000000355e+01,-1.000000000000000000e+00,2.775000000000000711e+01,-1.000000000000000178e+01,-1.000000000000000355e+01,7.250000000000002665e+00,1.075000000000000178e+01,-1.525000000000000355e+01,-4.000000000000001776e+00,2.225000000000000711e+01,-1.750000000000000355e+01,2.250000000000000000e+00,-9.750000000000001776e+00,2.750000000000000711e+01,-2.150000000000000355e+01,2.000000000000000355e+01,-3.750000000000000888e+00,-1.925000000000000355e+01,2.300000000000000711e+01,-2.050000000000000355e+01,2.000000000000000355e+01,3.250000000000001776e+00,-1.900000000000000711e+01,2.450000000000000711e+01,-2.875000000000000711e+01,1.100000000000000178e+01,1.350000000000000355e+01,-1.750000000000000355e+01,2.725000000000000355e+01,-3.100000000000000711e+01,2.225000000000000711e+01,-6.250000000000001776e+00,-1.550000000000000355e+01,2.300000000000000711e+01,-1.850000000000000355e+01,1.925000000000000355e+01,-1.500000000000000355e+01,-1.300000000000000178e+01,2.150000000000000355e+01,-2.750000000000000000e+00,-2.000000000000000711e+01,1.450000000000000355e+01,3.000000000000000444e+00,-1.050000000000000178e+01,1.900000000000000355e+01,-1.450000000000000355e+01,-1.075000000000000355e+01,8.500000000000003553e+00,2.325000000000000355e+01,-3.450000000000000711e+01,2.025000000000000355e+01,6.750000000000002665e+00,-2.325000000000000711e+01,1.725000000000000355e+01,-2.600000000000000711e+01,2.350000000000000355e+01,1.225000000000000355e+01,-3.575000000000000711e+01,3.775000000000000711e+01,-3.350000000000000711e+01,2.050000000000000355e+01,-5.000000000000000888e+00,-1.350000000000000355e+01,1.125000000000000355e+01,4.750000000000000888e+00,-1.775000000000000355e+01,3.375000000000000711e+01,-3.200000000000000711e+01,5.750000000000001776e+00,1.900000000000000355e+01,-2.175000000000000355e+01,1.925000000000000355e+01,-1.800000000000000355e+01,2.750000000000000711e+01,-3.725000000000000711e+01,1.975000000000000355e+01,1.750000000000000355e+01,-3.875000000000000711e+01,2.450000000000000355e+01,1.025000000000000355e+01,-1.450000000000000355e+01,-1.700000000000000355e+01,2.425000000000000711e+01,8.000000000000001776e+00,-2.450000000000000711e+01,8.500000000000001776e+00,-5.500000000000001776e+00,2.425000000000000711e+01,-1.900000000000000355e+01,-1.875000000000000355e+01,1.875000000000000355e+01,1.950000000000000355e+01,-2.550000000000000711e+01,1.800000000000000355e+01,-2.450000000000000711e+01,2.875000000000000711e+01,-3.425000000000000711e+01,3.325000000000000711e+01,-7.000000000000001776e+00,-1.800000000000000355e+01,1.150000000000000178e+01,-1.000000000000000222e+00,-6.250000000000001776e+00,2.475000000000000711e+01,-3.300000000000000711e+01,2.825000000000000711e+01,-2.125000000000000711e+01,-1.500000000000000000e+00,1.750000000000000355e+01,-2.750000000000000888e+00,-1.750000000000000355e+01,2.425000000000000711e+01,-1.200000000000000355e+01,-1.025000000000000178e+01,2.550000000000000711e+01,-6.000000000000001776e+00,-2.275000000000000711e+01,2.575000000000000711e+01,-2.450000000000000711e+01,2.600000000000000711e+01,-3.300000000000000711e+01,2.700000000000000711e+01,3.750000000000000000e+00,-2.325000000000000355e+01,2.200000000000000355e+01,-2.750000000000000711e+01,3.325000000000000711e+01,-3.550000000000000711e+01,2.525000000000000355e+01,9.750000000000003553e+00,-3.200000000000000711e+01,2.875000000000000711e+01,-2.775000000000000711e+01,2.575000000000000711e+01,7.500000000000000000e-01,-2.350000000000000711e+01,1.550000000000000355e+01,-6.250000000000001776e+00,2.125000000000000355e+01,-3.075000000000000711e+01,2.725000000000000711e+01,-2.675000000000000711e+01,2.600000000000000711e+01,-2.925000000000000711e+01,2.675000000000000711e+01,-1.875000000000000355e+01,3.000000000000000888e+00,2.300000000000000355e+01,-2.100000000000000355e+01,-1.100000000000000355e+01,1.950000000000000711e+01,-7.750000000000001776e+00,1.325000000000000178e+01,-1.625000000000000355e+01,9.500000000000001776e+00,-7.500000000000000000e-01,-2.300000000000000355e+01,3.375000000000000711e+01,-1.225000000000000355e+01,-1.600000000000000355e+01,9.000000000000003553e+00,1.150000000000000355e+01,8.500000000000001776e+00,-3.425000000000000711e+01,3.750000000000000711e+01,-2.275000000000000355e+01,-8.500000000000003553e+00,3.375000000000000711e+01,-2.250000000000000355e+01,-7.500000000000001776e+00,1.250000000000000355e+01,-8.750000000000001776e+00,1.700000000000000355e+01,-3.000000000000000711e+01,2.550000000000000711e+01,4.750000000000001776e+00,-2.425000000000000711e+01,2.225000000000000711e+01,-1.450000000000000355e+01,1.550000000000000355e+01,-2.075000000000000355e+01,1.750000000000000355e+01,-2.200000000000000711e+01,1.700000000000000355e+01,-4.000000000000000888e+00,1.400000000000000355e+01,-2.550000000000000711e+01,2.050000000000000711e+01,-1.000000000000000178e+01,6.500000000000001776e+00,-3.500000000000000888e+00,-1.725000000000000355e+01,2.700000000000000711e+01,-6.250000000000000888e+00,0.000000000000000000e+00,-1.625000000000000355e+01,9.250000000000001776e+00,-1.250000000000000444e+00,1.850000000000000355e+01,-3.275000000000000711e+01,3.175000000000000711e+01,-2.200000000000000711e+01,1.925000000000000355e+01,-3.125000000000000711e+01,3.200000000000000711e+01,-2.325000000000000355e+01,2.300000000000000355e+01,-1.700000000000000355e+01,5.000000000000000888e+00,-1.275000000000000355e+01,2.575000000000000711e+01,-1.975000000000000711e+01,1.475000000000000355e+01,-1.125000000000000355e+01,6.250000000000001776e+00,-1.175000000000000178e+01,2.500000000000000000e+00,1.500000000000000355e+01,-2.175000000000000711e+01,2.500000000000000711e+01,-2.850000000000000711e+01,1.750000000000000355e+01,1.375000000000000355e+01,-2.375000000000000711e+01,9.250000000000001776e+00,-2.000000000000000444e+00,1.425000000000000355e+01,-2.050000000000000711e+01,1.600000000000000355e+01,-1.300000000000000355e+01,-6.500000000000002665e+00,1.300000000000000355e+01,-5.250000000000000888e+00,1.150000000000000355e+01,4.250000000000000000e+00,-1.800000000000000355e+01,1.625000000000000355e+01,-2.325000000000000711e+01,-3.250000000000000000e+00,2.325000000000000711e+01,-1.500000000000000888e+00,-1.600000000000000355e+01,1.975000000000000355e+01,-3.250000000000000888e+00,-1.050000000000000178e+01,2.150000000000000355e+01,-2.200000000000000355e+01,1.675000000000000355e+01,-1.425000000000000355e+01,2.750000000000000888e+00,-1.475000000000000355e+01,2.275000000000000711e+01,9.500000000000001776e+00,-2.400000000000000711e+01,4.750000000000001776e+00,1.800000000000000355e+01,-2.000000000000000355e+01,-1.425000000000000355e+01,5.075000000000001421e+01,-4.250000000000000000e+00,7.750000000000000000e+00,-4.125000000000000711e+01,-8.750000000000003553e+00,1.925000000000000355e+01,-3.800000000000000711e+01,-3.500000000000000000e+00,1.850000000000000355e+01,6.750000000000001776e+00,2.025000000000000355e+01,-5.000000000000000888e+00,-4.050000000000000711e+01,5.000000000000000000e+00,4.150000000000000711e+01,-8.750000000000001776e+00,-9.500000000000001776e+00,2.450000000000000711e+01,-2.175000000000000355e+01,8.000000000000001776e+00,1.525000000000000355e+01,-1.425000000000000355e+01,2.125000000000000711e+01,-3.100000000000000711e+01,-7.500000000000000000e-01,2.275000000000000711e+01,-1.000000000000000178e+01,2.875000000000000711e+01,-3.800000000000000711e+01,1.225000000000000355e+01,-9.250000000000001776e+00,-1.750000000000000444e+00,1.800000000000000355e+01,-1.650000000000000355e+01,-1.025000000000000178e+01,1.125000000000000178e+01,-3.750000000000000888e+00,1.000000000000000444e+00,1.175000000000000178e+01,-1.800000000000000355e+01,-1.750000000000000000e+00,1.950000000000000355e+01,-1.250000000000000355e+01,-8.000000000000000000e+00,-4.250000000000001776e+00,4.500000000000001776e+00,1.900000000000000355e+01,-1.450000000000000355e+01,2.500000000000000000e-01,2.400000000000000711e+01,-2.550000000000000711e+01,1.525000000000000355e+01,-2.000000000000000711e+01,7.000000000000002665e+00,1.600000000000000355e+01,-1.475000000000000355e+01,-1.350000000000000355e+01,3.350000000000000711e+01,-2.150000000000000355e+01,1.875000000000000355e+01,-9.750000000000003553e+00,-1.275000000000000355e+01,1.375000000000000355e+01,-5.000000000000000000e-01,0.000000000000000000e+00,-1.775000000000000355e+01,2.425000000000000711e+01,-9.750000000000001776e+00,-2.250000000000000444e+00,1.075000000000000178e+01,-1.325000000000000355e+01,-6.000000000000000888e+00,2.075000000000000355e+01,0.000000000000000000e+00,-2.650000000000000711e+01,2.325000000000000711e+01,-5.250000000000001776e+00,-1.750000000000000355e+01,1.750000000000000355e+01,1.500000000000000444e+00,-2.250000000000000888e+00,4.500000000000000888e+00,-6.000000000000000888e+00,-1.500000000000000355e+01,1.600000000000000355e+01,1.125000000000000355e+01,-1.875000000000000711e+01,9.250000000000001776e+00,-6.000000000000001776e+00,-9.250000000000003553e+00,2.525000000000000711e+01,-1.175000000000000355e+01,-6.000000000000000888e+00,-6.000000000000000888e+00,1.875000000000000355e+01,-2.050000000000000711e+01,2.125000000000000711e+01,-6.750000000000001776e+00,-1.475000000000000355e+01,2.400000000000000711e+01,-2.625000000000000711e+01,2.425000000000000711e+01,2.075000000000000711e+01
