-3.401162500000000222e+01,-4.365225000000000932e+01,-5.143350000000001643e+01,-5.891787500000002353e+01,-6.583975000000002353e+01,-7.080850000000002353e+01,-7.426162500000002353e+01,-7.663662500000002353e+01,-7.748037500000002353e+01,-7.654287500000002353e+01,-7.513662500000002353e+01,-7.341787500000002353e+01,-6.999600000000002353e+01,-6.690225000000002353e+01,-6.352725000000002353e+01,-6.096475000000002353e+01,-5.815225000000002353e+01,-5.596475000000002353e+01,-5.491787500000002353e+01,-5.279287500000002353e+01,-5.202725000000002353e+01,-5.226162500000002353e+01,-5.185537500000002353e+01,-4.993350000000002353e+01,-4.719912500000001643e+01,-4.541787500000000932e+01,-4.229287500000000222e+01,-4.012100000000000222e+01,-3.723037500000000222e+01,-3.357412500000000222e+01,-3.044912500000000222e+01,-2.888662500000000222e+01,-2.891787500000000222e+01,-2.735537500000000222e+01,-2.694912500000000222e+01,-2.648037500000000222e+01,-2.660537500000000222e+01,-2.644912500000000222e+01,-2.658975000000000222e+01,-2.566787500000000222e+01,-2.323037499999999866e+01,-2.205849999999999511e+01,-1.999599999999999156e+01,-1.798037499999999156e+01,-1.554287499999999156e+01,-1.352724999999999156e+01,-1.132412499999998801e+01,-9.792874999999986230e+00,-9.245999999999986230e+00,-8.870999999999986230e+00,-9.777249999999986230e+00,-1.152724999999998801e+01,-1.301162499999999156e+01,-1.451162499999999156e+01,-1.615224999999999156e+01,-1.712099999999999156e+01,-1.871474999999999156e+01,-1.965224999999999156e+01,-1.930849999999999156e+01,-1.762099999999999156e+01,-1.741787499999999156e+01,-1.688662499999999156e+01,-1.741787499999999156e+01,-1.860537499999999156e+01,-1.840224999999999156e+01,-1.843349999999999156e+01,-1.907412499999999156e+01,-2.080849999999999511e+01,-2.077724999999999511e+01,-2.165224999999999511e+01,-2.076162499999999511e+01,-1.991787499999999156e+01,-2.048037499999999156e+01,-2.054287499999999156e+01,-2.093349999999999156e+01,-2.082412499999999156e+01,-2.241787499999999511e+01,-2.383974999999999511e+01,-2.696475000000000222e+01,-2.960537500000000222e+01,-3.173037500000000222e+01,-3.446475000000000222e+01,-3.737100000000000222e+01,-4.044912500000000222e+01,-4.215225000000000222e+01,-4.282412500000000222e+01,-4.194912500000000222e+01,-4.188662500000000222e+01,-4.132412500000000222e+01,-4.130850000000000222e+01,-4.046475000000000222e+01,-3.949600000000000222e+01,-3.871475000000000222e+01,-3.846475000000000222e+01,-3.869912500000000222e+01,-3.755850000000000222e+01,-3.605850000000000222e+01,-3.369912500000000222e+01,-3.110537500000000222e+01,-2.807412500000000222e+01,-2.554287500000000222e+01,-2.396474999999999866e+01,-2.226162499999999511e+01,-2.162099999999999511e+01,-2.243349999999999511e+01,-2.301162499999999511e+01,-2.466787500000000222e+01,-2.716787500000000222e+01,-2.904287500000000222e+01,-2.918350000000000222e+01,-3.013662500000000222e+01,-3.112100000000000222e+01,-3.119912500000000222e+01,-3.193350000000000222e+01,-3.169912500000000222e+01,-3.032412500000000222e+01,-2.954287500000000222e+01,-3.051162500000000222e+01,-3.093350000000000222e+01,-3.060537500000000222e+01,-3.038662500000000222e+01,-2.927725000000000222e+01,-2.883975000000000222e+01,-2.976162500000000222e+01,-3.026162500000000222e+01,-2.971475000000000222e+01,-2.862100000000000222e+01,-2.766787500000000222e+01,-2.652725000000000222e+01,-2.673037500000000222e+01,-2.655850000000000222e+01,-2.587100000000000222e+01,-2.577725000000000222e+01,-2.530850000000000222e+01,-2.540225000000000222e+01,-2.629287500000000222e+01,-2.766787500000000222e+01,-2.793350000000000222e+01,-2.912100000000000222e+01,-2.944912500000000222e+01,-2.979287500000000222e+01,-3.174600000000000222e+01,-3.423037500000000222e+01,-3.632412500000000222e+01,-3.818350000000000222e+01,-4.099600000000000222e+01,-4.219912500000000222e+01,-4.427725000000000222e+01,-4.616787500000000222e+01,-4.648037500000000222e+01,-4.662100000000000222e+01,-4.613662500000000222e+01,-4.541787500000000222e+01,-4.404287500000000222e+01,-4.333975000000000222e+01,-4.280850000000000222e+01,-4.091787500000000222e+01,-3.924600000000000222e+01,-3.630850000000000222e+01,-3.433975000000000222e+01,-3.166787500000000222e+01,-2.790225000000000222e+01,-2.458974999999999511e+01,-2.046474999999999511e+01,-1.763662499999999156e+01,-1.546474999999999156e+01,-1.496474999999999156e+01,-1.376162499999999156e+01,-1.463662499999999156e+01,-1.773037499999999156e+01,-2.069912499999999511e+01,-2.494912499999999866e+01,-3.008975000000000222e+01,-3.483975000000000222e+01,-3.879287500000000932e+01,-4.398037500000000932e+01,-4.732412500000001643e+01,-4.979287500000002353e+01,-5.277725000000002353e+01,-5.462100000000002353e+01,-5.483975000000002353e+01,-5.552725000000002353e+01,-5.630850000000002353e+01,-5.524600000000002353e+01,-5.490225000000002353e+01,-5.480850000000002353e+01,-5.391787500000002353e+01,-5.305850000000002353e+01,-5.283975000000002353e+01,-5.243350000000002353e+01,-5.121475000000002353e+01,-5.118350000000002353e+01,-5.168350000000002353e+01,-5.080850000000002353e+01,-4.983975000000002353e+01,-4.983975000000002353e+01,-4.963662500000002353e+01,-4.862100000000001643e+01,-4.902725000000002353e+01,-4.865225000000001643e+01,-4.694912500000000932e+01,-4.643350000000000932e+01,-4.493350000000000932e+01,-4.216787500000000932e+01,-3.965225000000000222e+01,-3.688662500000000222e+01,-3.283975000000000222e+01,-2.946475000000000222e+01,-2.610537500000000222e+01,-2.158974999999999511e+01,-1.885537499999999511e+01,-1.651162499999999156e+01,-1.323037499999998978e+01,-1.135537499999998801e+01,-1.007412499999998801e+01,-7.620999999999986230e+00,-6.058499999999985342e+00,-5.949124999999984453e+00,-5.058499999999984453e+00,-4.792874999999984453e+00,-6.683499999999985342e+00,-8.605374999999986230e+00,-1.148037499999998801e+01,-1.644912499999999156e+01,-2.166787499999999511e+01,-2.718349999999999866e+01,-3.357412500000000222e+01,-4.046475000000000932e+01,-4.582412500000000932e+01,-5.124600000000002353e+01,-5.565225000000002353e+01,-5.935537500000002353e+01,-6.377725000000002353e+01,-6.729287500000002353e+01,-7.055850000000002353e+01,-7.277725000000002353e+01,-7.555850000000002353e+01,-7.738662500000002353e+01,-7.933975000000002353e+01,-8.019912500000002353e+01,-7.968350000000002353e+01,-7.960537500000002353e+01,-7.833975000000002353e+01,-7.662100000000002353e+01,-7.505850000000002353e+01,-7.401162500000002353e+01,-7.213662500000002353e+01,-7.096475000000002353e+01,-7.005850000000002353e+01,-6.829287500000002353e+01,-6.843350000000002353e+01,-6.937100000000002353e+01,-6.876162500000002353e+01,-6.805850000000002353e+01,-6.843350000000002353e+01,-6.865225000000002353e+01,-6.871475000000002353e+01,-6.954287500000002353e+01,-6.808975000000002353e+01,-6.654287500000002353e+01,-6.583975000000002353e+01,-6.474600000000002353e+01,-6.316787500000002353e+01,-6.146475000000002353e+01,-5.882412500000002353e+01,-5.527725000000002353e+01,-5.298037500000002353e+01,-4.987100000000002353e+01,-4.798037500000001643e+01,-4.640225000000000932e+01,-4.541787500000000222e+01,-4.571475000000000222e+01,-4.699600000000000932e+01,-5.007412500000002353e+01,-5.366787500000002353e+01,-5.768350000000002353e+01,-6.058975000000002353e+01,-6.351162500000002353e+01,-6.508975000000002353e+01,-6.485537500000002353e+01,-6.546475000000002353e+01,-6.483975000000002353e+01,-6.333975000000002353e+01,-6.308975000000002353e+01,-6.240225000000002353e+01,-6.099600000000002353e+01,-6.051162500000002353e+01,-6.143350000000002353e+01,-6.137100000000002353e+01,-6.037100000000002353e+01,-5.966787500000002353e+01,-5.743350000000002353e+01,-5.501162500000002353e+01,-5.348037500000002353e+01,-5.183975000000002353e+01,-4.835537500000002353e+01,-4.505850000000000932e+01,-4.316787500000000932e+01,-4.123037500000000222e+01,-3.962100000000000222e+01,-3.912100000000000222e+01,-3.843350000000000222e+01,-3.798037500000000222e+01,-3.952725000000000222e+01,-4.101162500000000222e+01,-4.151162500000000222e+01,-4.132412500000000222e+01,-4.091787500000000222e+01,-3.985537500000000222e+01,-3.849600000000000222e+01,-3.707412500000000222e+01,-3.494912500000000222e+01,-3.185537500000000222e+01,-2.919912500000000222e+01,-2.682412500000000222e+01,-2.454287500000000222e+01,-2.219912499999999511e+01,-1.896474999999999156e+01,-1.562099999999999156e+01,-1.169912499999998801e+01,-8.933499999999986230e+00,-7.042874999999985342e+00,-5.339749999999984453e+00,-3.777249999999983565e+00,-3.058499999999982677e+00,-3.761624999999983565e+00,-3.511624999999983121e+00,-3.136624999999983121e+00,-2.745999999999982677e+00,-9.178749999999814557e-01,3.525000000001912714e-02,3.790000000000193214e-01,8.946250000000197655e-01,1.488375000000019988e+00,1.175875000000019766e+00,-1.522499999999810949e-01,-1.636624999999981789e+00,-3.480374999999982677e+00,-4.480374999999983565e+00,-4.636624999999983565e+00,-4.214749999999983565e+00,-2.449124999999982677e+00,-8.084999999999815667e-01,1.910250000000020210e+00,5.972750000000022652e+00,9.379000000000026205e+00,1.397275000000002798e+01,1.820712500000002976e+01,2.183212500000003331e+01,2.275400000000003331e+01,2.316025000000003331e+01,2.158212500000003331e+01,1.747275000000002976e+01,1.164462500000002620e+01,1.379000000000019099e+00,-1.180849999999998801e+01,-2.638662499999999511e+01,-4.098037500000000932e+01,-5.769912500000002353e+01,-7.554287500000003774e+01,-9.394912500000005195e+01,-1.125272500000000662e+02,-1.289803750000000662e+02,-1.439960000000000662e+02,-1.601991250000000662e+02,-1.777303750000000946e+02,-1.943241250000001514e+02,-2.101210000000001514e+02,-2.252460000000001514e+02,-2.381366250000001514e+02,-2.540116250000001514e+02,-2.701522500000001514e+02,-2.838710000000001514e+02,-2.953553750000001514e+02,-3.071210000000001514e+02,-3.180116250000001514e+02,-3.296991250000001514e+02,-3.436366250000001514e+02,-3.515897500000001514e+02,-3.579803750000001514e+02,-3.628710000000001514e+02,-3.669022500000001514e+02,-3.690116250000001514e+02,-3.701991250000001514e+02,-3.689491250000001514e+02,-3.650897500000001514e+02,-3.642928750000001514e+02,-3.641522500000001514e+02,-3.660741250000001514e+02,-3.691991250000001514e+02,-3.716053750000001514e+02,-3.738085000000001514e+02,-3.762616250000001514e+02,-3.778085000000001514e+02,-3.763085000000001514e+02,-3.737460000000001514e+02,-3.689960000000001514e+02,-3.619335000000001514e+02,-3.539803750000001514e+02,-3.454491250000001514e+02,-3.356366250000001514e+02,-3.267772500000001514e+02,-3.206053750000001514e+02,-3.120741250000001514e+02,-3.025428750000001514e+02,-2.933241250000001514e+02,-2.850585000000001514e+02,-2.774178750000001514e+02,-2.689491250000001514e+02,-2.592460000000001514e+02,-2.470741250000001514e+02,-2.364178750000001514e+02,-2.264335000000001514e+02,-2.144335000000001514e+02,-1.999178750000001514e+02,-1.836522500000000946e+02,-1.691522500000000946e+02,-1.546053750000000662e+02,-1.397616250000000662e+02,-1.241678750000000662e+02,-1.094178750000000662e+02,-9.755850000000006617e+01,-8.710537500000003774e+01,-7.696475000000002353e+01,-6.440225000000002353e+01,-5.127725000000000932e+01,-3.824600000000000932e+01,-2.590224999999999511e+01,-1.279287499999998801e+01,3.129000000000021320e+00,1.836337500000002976e+01,3.283212500000004042e+01,4.484775000000004752e+01,5.494150000000006173e+01,6.330087500000006173e+01,7.186337500000006173e+01,8.039462500000006173e+01,8.600400000000006173e+01,9.047275000000007594e+01,9.553525000000009015e+01,1.022071250000001044e+02,1.094102500000001044e+02,1.179571250000001044e+02,1.257696250000001044e+02,1.344883750000001044e+02,1.450821250000001044e+02,1.572227500000001044e+02,1.689883750000001044e+02,1.790508750000001328e+02,1.881758750000001612e+02,1.956602500000001896e+02,2.035821250000001896e+02,2.091133750000001896e+02,2.128790000000001896e+02,2.160821250000001896e+02,2.183165000000001896e+02,2.207696250000001896e+02,2.254258750000001896e+02,2.304258750000001896e+02,2.340821250000001896e+02,2.384102500000001896e+02,2.432227500000001896e+02,2.476915000000001896e+02,2.515040000000001896e+02,2.539258750000001896e+02,2.524415000000001896e+02,2.495508750000001896e+02,2.462696250000001896e+02,2.419571250000001896e+02,2.359102500000001896e+02,2.285821250000001896e+02,2.221758750000001896e+02,2.173321250000001896e+02,2.138790000000001896e+02,2.115352500000001896e+02,2.109102500000001896e+02,2.113008750000001896e+02,2.122540000000001896e+02,2.139571250000001896e+02,2.145040000000001896e+02,2.135977500000001896e+02,2.140196250000001896e+02,2.150821250000001896e+02,2.136602500000001896e+02,2.099883750000001896e+02,2.073321250000001896e+02,2.045821250000001896e+02,2.015977500000001896e+02,1.993477500000001896e+02,1.952383750000001896e+02,1.900977500000001612e+02,1.871290000000001328e+02,1.865352500000001044e+02,1.853790000000001044e+02,1.845352500000001044e+02,1.847383750000001044e+02,1.848165000000001044e+02,1.857227500000001044e+02,1.872696250000001044e+02,1.878008750000001044e+02,1.875352500000001044e+02,1.876758750000001044e+02,1.868008750000001044e+02,1.868008750000001044e+02,1.880665000000001044e+02,1.895352500000001328e+02,1.897696250000001328e+02,1.901915000000001328e+02,1.900196250000001328e+02,1.894102500000001044e+02,1.900196250000001044e+02,1.883008750000001044e+02,1.848165000000001044e+02,1.820821250000001044e+02,1.807852500000001044e+02,1.788008750000001044e+02,1.778165000000001044e+02,1.766133750000001044e+02,1.756602500000001044e+02,1.755196250000001044e+02,1.758477500000001044e+02,1.754258750000001044e+02,1.751758750000001044e+02,1.767852500000001044e+02,1.787227500000001044e+02,1.806446250000001044e+02,1.816602500000001044e+02,1.839883750000001044e+02,1.863165000000001044e+02,1.890040000000001328e+02,1.908946250000001328e+02,1.908321250000001328e+02,1.910665000000001328e+02,1.922852500000001896e+02,1.943790000000001896e+02,1.957227500000001896e+02,1.980508750000001896e+02,2.004727500000001896e+02,2.026758750000001896e+02,2.051133750000001896e+02,2.060352500000001896e+02,2.070665000000001896e+02,2.079102500000001896e+02,2.091915000000001896e+02,2.104258750000001896e+02,2.113946250000001896e+02,2.135196250000001896e+02,2.176133750000001896e+02,2.226915000000001896e+02,2.270040000000001896e+02,2.301133750000001896e+02,2.330196250000001896e+02,2.353633750000001896e+02,2.369258750000001896e+02,2.374415000000001896e+02,2.364727500000001896e+02,2.358633750000001896e+02,2.354571250000001896e+02,2.364727500000001896e+02,2.366915000000001896e+02,2.364415000000001896e+02,2.369415000000001896e+02,2.371915000000001896e+02,2.368321250000001896e+02,2.348165000000001896e+02,2.328633750000001896e+02,2.295508750000001896e+02,2.272383750000001896e+02,2.243321250000001896e+02,2.199883750000001896e+02,2.167227500000001896e+02,2.148946250000001896e+02,2.145665000000001896e+02,2.132071250000001896e+02,2.128008750000001896e+02,2.119415000000001896e+02,2.123008750000001896e+02,2.139727500000001896e+02,2.154883750000001896e+02,2.165977500000001896e+02,2.161758750000001896e+02,2.169883750000001896e+02,2.176290000000001896e+02,2.176915000000001896e+02,2.166446250000001896e+02,2.151290000000001896e+02,2.125508750000001896e+02,2.082852500000001896e+02,2.053477500000001896e+02,2.023321250000001896e+02,1.970352500000001896e+02,1.917852500000001612e+02,1.879415000000001328e+02,1.832383750000001044e+02,1.783633750000001044e+02,1.742696250000001044e+02,1.691915000000001044e+02,1.613633750000001044e+02,1.559415000000001044e+02,1.506133750000001044e+02,1.443165000000001044e+02,1.391758750000001044e+02,1.346133750000001044e+02,1.289258750000001044e+02,1.234883750000001044e+02,1.199102500000001044e+02,1.168477500000001044e+02,1.131446250000001044e+02,1.097852500000001044e+02,1.055040000000001044e+02,9.919150000000010436e+01,9.505087500000010436e+01,8.969150000000007594e+01,8.506650000000007594e+01,7.817587500000006173e+01,7.106650000000006173e+01,6.175400000000006173e+01,5.209775000000006173e+01,4.494150000000004752e+01,3.644150000000004042e+01,2.894150000000004042e+01,2.084775000000003331e+01,1.391025000000002798e+01,8.254000000000024428e+00,3.972750000000021764e+00,1.941500000000020654e+00,-1.074124999999981345e+00,-3.027249999999982677e+00,-3.324124999999982677e+00,-3.355374999999982677e+00,-3.574124999999982677e+00,-3.511624999999982677e+00,-1.667874999999981789e+00,-1.339749999999981789e+00,3.165000000000192104e-01,1.332125000000019988e+00,3.790000000000193214e-01,-2.074124999999982233e+00,-4.699124999999984453e+00,-8.589749999999988006e+00,-1.398037499999999156e+01,-1.940224999999999511e+01,-2.721474999999999866e+01,-3.541787500000000932e+01,-4.273037500000000932e+01,-4.838662500000002353e+01,-5.369912500000002353e+01,-5.899600000000002353e+01,-6.427725000000002353e+01,-6.949600000000002353e+01,-7.405850000000002353e+01,-7.862100000000002353e+01,-8.568350000000003774e+01,-9.487100000000005195e+01,-1.040272500000000662e+02,-1.142616250000000662e+02,-1.255741250000000662e+02,-1.370585000000000662e+02,-1.481210000000000662e+02,-1.588397500000000662e+02,-1.675741250000000662e+02,-1.734803750000000662e+02,-1.789335000000000662e+02,-1.821053750000000662e+02,-1.834335000000000662e+02,-1.842928750000000662e+02,-1.825585000000000662e+02,-1.785897500000000662e+02,-1.719647500000000662e+02,-1.642772500000000662e+02,-1.559647500000000662e+02,-1.459803750000000662e+02,-1.359022500000000662e+02,-1.237772500000000662e+02,-1.129647500000000662e+02,-1.052460000000000662e+02,-9.985537500000006617e+01,-9.819912500000006617e+01,-9.962100000000006617e+01,-1.048553750000000662e+02,-1.127772500000000662e+02,-1.260897500000000662e+02,-1.418241250000000662e+02,-1.577928750000000946e+02,-1.748241250000000946e+02,-1.891991250000001514e+02,-2.002772500000001514e+02,-2.093866250000001514e+02,-2.139335000000001514e+02,-2.135116250000001514e+02,-2.114647500000001514e+02,-2.062616250000001514e+02,-1.999647500000001514e+02,-1.951991250000001514e+02,-1.905741250000000946e+02,-1.879491250000000662e+02,-1.929022500000000946e+02,-2.031835000000001514e+02,-2.157772500000001514e+02,-2.336210000000001514e+02,-2.544960000000001514e+02,-2.789491250000001514e+02,-3.079178750000001514e+02,-3.383085000000001514e+02,-3.641678750000002083e+02,-3.870428750000003220e+02,-4.095272500000003220e+02,-4.302772500000003220e+02,-4.492616250000003220e+02,-4.645116250000003220e+02,-4.777928750000003220e+02,-4.877616250000003220e+02,-4.968553750000003220e+02,-5.049647500000003220e+02,-5.108866250000003220e+02,-5.148397500000003220e+02,-5.173085000000003220e+02,-5.190897500000003220e+02,-5.190741250000003220e+02,-5.190428750000003220e+02,-5.190272500000003220e+02,-5.190116250000003220e+02,-5.190116250000003220e+02,-5.190116250000003220e+02,-5.190116250000003220e+02,-5.190116250000003220e+02,-5.189803750000003220e+02,-5.189647500000003220e+02,-5.189491250000003220e+02,-5.189178750000003220e+02,-5.188866250000003220e+02,-5.188241250000003220e+02,-5.187772500000003220e+02,-5.187303750000003220e+02,-5.186991250000003220e+02,-5.186991250000003220e+02,-5.186991250000003220e+02,-5.187460000000003220e+02,-5.187928750000003220e+02,-5.188866250000003220e+02,-5.189491250000003220e+02,-5.190116250000003220e+02,-5.190741250000003220e+02,-5.190897500000003220e+02,-5.190897500000003220e+02,-5.190428750000003220e+02,-5.189960000000003220e+02,-5.189491250000003220e+02,-5.189178750000003220e+02,-5.189022500000003220e+02,-5.188866250000003220e+02,-5.188866250000003220e+02,-5.189178750000003220e+02,-5.189335000000003220e+02,-5.189335000000003220e+02,-5.189022500000003220e+02,-5.188553750000003220e+02,-5.187928750000003220e+02,-5.187303750000003220e+02,-5.186678750000003220e+02,-5.185897500000003220e+02,-5.185741250000003220e+02,-5.185897500000003220e+02,-5.186366250000003220e+02,-5.187147500000003220e+02,-5.187772500000003220e+02,-5.188397500000003220e+02,-5.189022500000003220e+02,-5.189647500000003220e+02,-5.189803750000003220e+02,-5.189960000000003220e+02,-5.189803750000003220e+02,-5.186835000000003220e+02,-5.170116250000003220e+02,-5.141991250000003220e+02,-5.091991250000003220e+02,-5.022928750000003220e+02,-4.926366250000003220e+02,-4.801678750000003220e+02,-4.631678750000003220e+02,-4.426835000000003220e+02,-4.214178750000003220e+02,-3.974022500000003220e+02,-3.718553750000002651e+02,-3.446522500000002083e+02,-3.181366250000001514e+02,-2.909178750000001514e+02,-2.674960000000001514e+02,-2.457147500000001514e+02,-2.240116250000001514e+02,-2.035272500000001514e+02,-1.841678750000001230e+02,-1.655741250000000946e+02,-1.455272500000000662e+02,-1.263085000000000662e+02,-1.050585000000000377e+02,-8.240225000000003774e+01,-5.826162500000000932e+01,-3.562100000000000222e+01,-1.365224999999998978e+01,7.472750000000024428e+00,2.750400000000003331e+01,4.639462500000004752e+01,6.467587500000006173e+01,7.953525000000007594e+01,9.219150000000009015e+01,1.058477500000001044e+02,1.176446250000001044e+02,1.275196250000001044e+02,1.357227500000001044e+02,1.435508750000001044e+02,1.509727500000001044e+02,1.618321250000001044e+02,1.737071250000001328e+02,1.866446250000001612e+02,2.046133750000001896e+02,2.279102500000001896e+02,2.545196250000001896e+02,2.840040000000001896e+02,3.153790000000001896e+02,3.456290000000002465e+02,3.761758750000003602e+02,4.048790000000003602e+02,4.285821250000003602e+02,4.469883750000003602e+02,4.612696250000003602e+02,4.714415000000003602e+02,4.778790000000003602e+02,4.817696250000003602e+02,4.828321250000003602e+02,4.824571250000003602e+02,4.819571250000003602e+02,4.813633750000003602e+02,4.808321250000003602e+02,4.804258750000003602e+02,4.801290000000003602e+02,4.800821250000003602e+02,4.802852500000003602e+02,4.805508750000003602e+02,4.808477500000003602e+02,4.811915000000003602e+02,4.815352500000003602e+02,4.818321250000003602e+02,4.821133750000003602e+02,4.823008750000003602e+02,4.823477500000003602e+02,4.823633750000003602e+02,4.823477500000003602e+02,4.822852500000003602e+02,4.821446250000003602e+02,4.819415000000003602e+02,4.815508750000003602e+02,4.810196250000003602e+02,4.797852500000003602e+02,4.776915000000003602e+02,4.752383750000003602e+02,4.714102500000003602e+02,4.673165000000003602e+02,4.628008750000003602e+02,4.581602500000003602e+02,4.532696250000003602e+02,4.483477500000003602e+02,4.440665000000003602e+02,4.402383750000003602e+02,4.380196250000003602e+02,4.362852500000003602e+02,4.351290000000003602e+02,4.335040000000003602e+02,4.322852500000003602e+02,4.328633750000003602e+02,4.341758750000003602e+02,4.351290000000003602e+02,4.368008750000003602e+02,4.374571250000003602e+02,4.368790000000003602e+02,4.366758750000003602e+02,4.345665000000003602e+02,4.302540000000003602e+02,4.237071250000003602e+02,4.163790000000003602e+02,4.060040000000003602e+02,3.958477500000003602e+02,3.865508750000003602e+02,3.776602500000002465e+02,3.699883750000001896e+02,3.629727500000001896e+02,3.570352500000001896e+02,3.504415000000001896e+02,3.453321250000001896e+02,3.387540000000001896e+02,3.313008750000001896e+02,3.215977500000001896e+02,3.118790000000001896e+02,3.019102500000001896e+02,2.921290000000001896e+02,2.843633750000001896e+02,2.763790000000001896e+02,2.710196250000001896e+02,2.662852500000001896e+02,2.637071250000001896e+02,2.619415000000001896e+02,2.607071250000001896e+02,2.603946250000001896e+02,2.596602500000001896e+02,2.597540000000001896e+02,2.593946250000001896e+02,2.594571250000001896e+02,2.602071250000001896e+02,2.618633750000001896e+02,2.640665000000001896e+02,2.647540000000001896e+02,2.653165000000001896e+02,2.664258750000001896e+02,2.666602500000001896e+02,2.671758750000001896e+02,2.657540000000001896e+02,2.608321250000001896e+02,2.542540000000001896e+02,2.485040000000001896e+02,2.415977500000001896e+02,2.313633750000001896e+02,2.206915000000001896e+02,2.081446250000001896e+02,1.952227500000001896e+02,1.843946250000001328e+02,1.727383750000001044e+02,1.604258750000001044e+02,1.492071250000001044e+02,1.408790000000001044e+02,1.330821250000001044e+02,1.256758750000001044e+02,1.208165000000001044e+02,1.151915000000001044e+02,1.124102500000001044e+02,1.105040000000001044e+02,1.083633750000001044e+02,1.067696250000001044e+02,1.059258750000001044e+02,1.068321250000001044e+02,1.061290000000001044e+02,1.077227500000001044e+02,1.081446250000001044e+02,1.078946250000001044e+02,1.091758750000001044e+02,1.098946250000001044e+02,1.113790000000001044e+02,1.120040000000001044e+02,1.135977500000001044e+02,1.136602500000001044e+02,1.139102500000001044e+02,1.146602500000001044e+02,1.122227500000001044e+02,1.076133750000001044e+02,1.007383750000001044e+02,9.428525000000009015e+01,8.691025000000007594e+01,7.837900000000006173e+01,6.953525000000006173e+01,5.998837500000006173e+01,5.339462500000006173e+01,4.934775000000005463e+01,4.709775000000004752e+01,4.487900000000004752e+01,4.297275000000004042e+01,4.351962500000004042e+01,4.562900000000004752e+01,4.830087500000005463e+01,4.978525000000006173e+01,5.151962500000006173e+01,5.247275000000006173e+01,5.323837500000006173e+01,5.403525000000006173e+01,5.287900000000006173e+01,4.937900000000006173e+01,4.664462500000005463e+01,4.400400000000004752e+01,4.016025000000004752e+01,3.551962500000004042e+01,3.055087500000004042e+01,2.548837500000003331e+01,2.120712500000002976e+01,1.772275000000002976e+01,1.231650000000002620e+01,7.175875000000022652e+00,1.113375000000019766e+00,-3.542874999999982677e+00,-7.886624999999986230e+00,-1.144912499999998801e+01,-1.452724999999998978e+01,-1.673037499999999156e+01,-1.638662499999999156e+01,-1.602724999999999156e+01,-1.287099999999998978e+01,-1.026162499999998801e+01,-9.152249999999988006e+00,-9.011624999999988006e+00,-1.033974999999998801e+01,-1.313662499999998978e+01,-1.858974999999999511e+01,-2.480849999999999511e+01
2.390625000000001332e+00,-7.156250000000003553e+00,-1.181250000000000711e+01,-1.251562500000001066e+01,-9.656250000000007105e+00,-5.062500000000003553e+00,-1.609375000000001332e+00,-1.546875000000001332e+00,-3.265625000000002665e+00,-4.140625000000002665e+00,-6.921875000000003553e+00,-5.328125000000003553e+00,-2.937500000000001776e+00,-2.031250000000001332e+00,2.968750000000001332e+00,2.968750000000001332e+00,4.781250000000002665e+00,6.906250000000003553e+00,3.984375000000002665e+00,3.671875000000002665e+00,-9.062500000000004441e-01,-4.546875000000003553e+00,-5.390625000000003553e+00,-5.000000000000003553e+00,-1.671875000000001110e+00,-9.531250000000004441e-01,2.968750000000002220e-01,-6.250000000000005551e-01,-8.906250000000009992e-01,1.453125000000000888e+00,2.515625000000001776e+00,4.828125000000003553e+00,5.109375000000003553e+00,3.671875000000002665e+00,3.015625000000002220e+00,-2.031250000000004441e-01,-3.328125000000002665e+00,-3.484375000000002665e+00,-5.406250000000003553e+00,-2.828125000000001776e+00,4.843750000000001110e-01,-1.875000000000004996e-01,1.562500000000000666e+00,-1.015625000000000666e+00,-1.953125000000000888e+00,-2.812500000000000000e-01,2.031250000000003331e-01,4.359375000000002665e+00,4.812500000000002665e+00,4.625000000000002665e+00,5.156250000000002665e+00,2.218750000000001332e+00,2.390625000000001776e+00,1.328125000000000888e+00,-2.593750000000001332e+00,-4.937500000000003553e+00,-7.656250000000005329e+00,-7.781250000000005329e+00,-3.187500000000002665e+00,2.562500000000002220e+00,5.921875000000005329e+00,6.328125000000005329e+00,3.921875000000002665e+00,2.968750000000003331e-01,-1.906250000000001332e+00,-5.625000000000005551e-01,-1.109375000000000888e+00,-1.937500000000001554e+00,-7.187500000000005551e-01,-3.531250000000002665e+00,-1.671875000000001332e+00,4.843750000000002220e-01,6.718750000000002220e-01,3.296875000000002220e+00,2.937500000000001776e+00,2.765625000000001776e+00,1.609375000000000888e+00,1.343750000000000444e+00,1.656250000000001110e+00,1.859375000000001554e+00,3.484375000000002665e+00,1.343750000000001110e+00,-1.875000000000001332e+00,-4.421875000000002665e+00,-7.468750000000004441e+00,-6.296875000000003553e+00,-3.734375000000002220e+00,-2.421875000000001776e+00,2.031250000000002220e-01,1.375000000000000888e+00,3.281250000000002220e+00,5.437500000000003553e+00,5.281250000000003553e+00,2.218750000000001332e+00,-3.109375000000002220e+00,-8.000000000000005329e+00,-1.081250000000000711e+01,-7.734375000000005329e+00,-2.890625000000001776e+00,3.015625000000002220e+00,8.484375000000005329e+00,8.281250000000005329e+00,7.640625000000005329e+00,5.000000000000003553e+00,1.250000000000000888e+00,-4.687500000000005551e-02,-1.140625000000000888e+00,-1.015625000000000444e+00,-1.265625000000000888e+00,-1.062500000000000666e+00,-2.296875000000001332e+00,-4.562500000000002665e+00,-3.171875000000001776e+00,-1.250000000000000888e+00,1.828125000000000888e+00,5.390625000000003553e+00,3.796875000000002665e+00,-6.093749999999998890e-01,-3.687500000000001776e+00,-5.140625000000002665e+00,-1.921875000000000888e+00,2.656250000000001776e+00,4.218750000000002665e+00,3.765625000000002220e+00,-9.218750000000004441e-01,-3.031250000000001776e+00,-2.875000000000001776e+00,-3.640625000000002220e+00,1.562500000000000000e-01,-1.562500000000022204e-02,-3.125000000000004441e-01,3.812500000000001776e+00,3.593750000000001776e+00,4.625000000000003553e+00,4.406250000000003553e+00,-1.765625000000001332e+00,-4.703125000000003553e+00,-5.187500000000003553e+00,-3.625000000000003109e+00,2.453125000000000888e+00,6.046875000000003553e+00,6.937500000000004441e+00,4.234375000000002665e+00,5.781250000000006661e-01,-1.125000000000000444e+00,-3.250000000000001776e+00,-1.984375000000001332e+00,-2.531250000000001332e+00,-4.203125000000002665e+00,-4.203125000000002665e+00,-3.812500000000002665e+00,-1.609375000000001110e+00,7.968750000000006661e-01,3.734375000000002665e+00,1.906250000000001332e+00,5.625000000000005551e-01,-1.140625000000000444e+00,-5.625000000000003553e+00,-3.750000000000002220e+00,-4.656250000000003553e+00,-3.265625000000002220e+00,9.687500000000007772e-01,9.062500000000008882e-01,3.343750000000002665e+00,2.890625000000002665e+00,2.593750000000001776e+00,4.031250000000003553e+00,5.140625000000003553e+00,8.515625000000005329e+00,8.546875000000005329e+00,6.390625000000003553e+00,4.265625000000002665e+00,-1.468750000000000666e+00,-4.843750000000002665e+00,-4.453125000000002665e+00,-5.828125000000003553e+00,-3.796875000000002665e+00,-1.015625000000000666e+00,-1.593750000000001332e+00,-1.000000000000000888e+00,-6.562500000000005551e-01,-2.343750000000001776e+00,-2.812500000000001776e+00,-2.187500000000001332e+00,-2.343750000000001332e+00,-7.500000000000003331e-01,1.296875000000000888e+00,2.562500000000001776e+00,3.218750000000001776e+00,2.187500000000001332e+00,-9.375000000000011102e-02,-2.625000000000001776e+00,-3.187500000000001776e+00,-2.875000000000001776e+00,2.187500000000002220e-01,3.218750000000002665e+00,2.265625000000001776e+00,3.000000000000001776e+00,2.187500000000000000e-01,-3.656250000000002665e+00,-1.984375000000001332e+00,-3.125000000000001332e+00,-3.937500000000001776e+00,-1.203125000000000888e+00,-2.906250000000001776e+00,-4.109375000000002665e+00,-3.437500000000004441e-01,-1.562500000000000000e-01,1.546875000000000666e+00,5.593750000000003553e+00,2.734375000000001332e+00,1.265625000000000666e+00,4.843750000000000000e-01,-2.015625000000001776e+00,7.812500000000000000e-02,1.687500000000001110e+00,3.187500000000002220e+00,3.265625000000002220e+00,8.750000000000006661e-01,1.421875000000000666e+00,9.375000000000002220e-01,3.546875000000001776e+00,9.609375000000005329e+00,9.953125000000005329e+00,9.296875000000005329e+00,5.562500000000002665e+00,-4.421875000000002665e+00,-8.968750000000005329e+00,-1.035937500000000711e+01,-9.187500000000005329e+00,-7.812500000000000000e-01,2.859375000000001776e+00,5.218750000000004441e+00,4.796875000000003553e+00,-1.187500000000000222e+00,-2.218750000000000888e+00,-6.250000000000003553e+00,-6.359375000000003553e+00,-2.968750000000001776e+00,-4.421875000000002665e+00,-3.750000000000002220e-01,4.687499999999977796e-02,-2.656250000000001776e+00,6.249999999999988898e-02,-1.750000000000000888e+00,-1.546875000000000666e+00,3.078125000000001776e+00,2.218750000000001332e+00,3.500000000000002665e+00,2.921875000000002220e+00,-1.000000000000000666e+00,-4.375000000000003331e-01,-1.546875000000001110e+00,1.187500000000000666e+00,2.625000000000001776e+00,-4.687500000000007216e-01,8.437500000000002220e-01,-3.578125000000001776e+00,-4.593750000000002665e+00,-1.562500000000000347e-02,-2.968750000000001776e+00,-3.125000000000004441e-01,1.984375000000000888e+00,-2.468750000000001332e+00,9.531250000000006661e-01,-4.687500000000008882e-01,-4.640625000000003553e+00,-1.562500000000000666e+00,-2.765625000000001332e+00,1.843750000000002220e+00,9.921875000000007105e+00,1.303125000000000888e+01,1.443750000000001066e+01,9.328125000000007105e+00,6.093750000000000000e-01,-8.375000000000007105e+00,-1.153125000000000888e+01,-1.073437500000000711e+01,-7.968750000000005329e+00,-1.078125000000001110e+00,-9.375000000000000000e-02,3.125000000000000000e-02,2.156250000000001776e+00,1.593750000000001110e+00,3.781250000000002665e+00,5.500000000000003553e+00,2.578125000000001776e+00,-2.000000000000001332e+00,-5.437500000000004441e+00,-7.812500000000005329e+00,-5.328125000000003553e+00,6.250000000000000000e-02,1.765625000000001332e+00,3.859375000000002665e+00,1.093750000000000666e+00,-3.203125000000001776e+00,-1.687500000000000888e+00,-3.328125000000002220e+00,3.593750000000004441e-01,6.687500000000004441e+00,5.625000000000003553e+00,8.375000000000005329e+00,5.546875000000004441e+00,-1.531250000000000888e+00,-1.734375000000001332e+00,-5.609375000000003553e+00,-4.859375000000002665e+00,-2.140625000000001332e+00,-5.203125000000003553e+00,-3.250000000000001776e+00,-3.421875000000001776e+00,-1.546875000000000444e+00,5.296875000000003553e+00,5.828125000000004441e+00,5.703125000000004441e+00,7.968750000000013323e-01,-7.046875000000003553e+00,-9.343750000000005329e+00,-8.937500000000005329e+00,-2.484375000000001776e+00,5.187500000000003553e+00,1.117187500000000711e+01,1.309375000000000888e+01,9.093750000000005329e+00,4.062500000000002665e+00,-4.359375000000001776e+00,-8.796875000000005329e+00,-8.421875000000005329e+00,-7.750000000000005329e+00,-2.015625000000001332e+00,2.781250000000001776e+00,4.875000000000003553e+00,8.109375000000005329e+00,8.828125000000005329e+00,5.640625000000003553e+00,2.718750000000001776e+00,-2.296875000000001776e+00,-8.265625000000005329e+00,-7.265625000000004441e+00,-6.359375000000004441e+00,-3.468750000000002220e+00,1.703125000000000888e+00,-4.375000000000004441e-01,-1.031250000000000666e+00,-3.531250000000002220e+00,-5.937500000000003553e+00,-2.968750000000001776e+00,-1.328125000000001110e+00,4.859375000000002665e+00,8.625000000000005329e+00,1.196875000000000711e+01,1.660937500000001066e+01,1.403125000000000888e+01,1.317187500000000711e+01,1.000000000000000533e+01,4.875000000000002665e+00,6.578125000000003553e+00,6.546875000000003553e+00,5.328125000000003553e+00,3.984375000000003109e+00,-3.484375000000003109e+00,-7.343750000000005329e+00,-8.453125000000005329e+00,-8.125000000000005329e+00,-9.218750000000002220e-01,1.796875000000000666e+00,5.640625000000002665e+00,9.937500000000007105e+00,4.125000000000002665e+00,-1.046875000000000222e+00,-8.484375000000003553e+00,-1.784375000000001066e+01,-1.375000000000000711e+01,-2.890625000000000888e+00,4.750000000000003553e+00,1.357812500000001066e+01,1.057812500000000711e+01,-2.109375000000002665e+00,-9.656250000000007105e+00,-1.720312500000001066e+01,-2.006250000000001421e+01,-1.790625000000001066e+01,-1.248437500000000711e+01,-6.921875000000004441e+00,2.453125000000000444e+00,1.284375000000000711e+01,1.248437500000000711e+01,1.278125000000000711e+01,6.203125000000004441e+00,-1.859375000000001332e+00,-4.531250000000003331e-01,-2.937500000000001332e+00,-1.796875000000000444e+00,-4.625000000000001776e+00,-1.418750000000000711e+01,-1.662500000000001066e+01,-2.006250000000001421e+01,-1.337500000000000711e+01,1.796875000000001998e+00,7.953125000000006217e+00,1.582812500000001066e+01,1.209375000000000711e+01,-4.531250000000002220e-01,-4.359375000000002665e+00,-1.132812500000000711e+01,-9.109375000000005329e+00,-3.062500000000001776e+00,-5.156250000000004441e-01,6.328125000000004441e+00,5.500000000000004441e+00,4.140625000000002665e+00,-9.531250000000004441e-01,-1.025000000000000711e+01,-1.262500000000000888e+01,-1.439062500000000711e+01,-9.343750000000003553e+00,-5.937499999999997780e-01,4.734375000000002665e+00,1.164062500000000711e+01,1.292187500000000711e+01,8.984375000000003553e+00,5.937500000000003553e+00,-1.390625000000001332e+00,-4.218750000000002665e+00,-2.656250000000001776e+00,-5.843750000000003553e+00,-5.062500000000002665e+00,-8.343750000000005329e+00,-1.026562500000000711e+01,-2.375000000000002220e+00,3.765625000000001332e+00,1.323437500000000711e+01,1.715625000000001066e+01,1.318750000000000888e+01,9.203125000000005329e+00,1.578125000000001554e+00,-1.953125000000001332e+00,-3.250000000000002220e+00,-4.406250000000003553e+00,-1.031250000000000888e+00,4.843750000000004441e-01,9.687500000000009992e-01,-7.031249999999997780e-01,-6.078125000000003553e+00,-9.484375000000005329e+00,-1.095312500000000711e+01,-5.968750000000004441e+00,2.031249999999996114e-01,6.203125000000003553e+00,1.351562500000000711e+01,1.346875000000000711e+01,1.429687500000000888e+01,1.157812500000000711e+01,2.312500000000001332e+00,-2.953125000000001332e+00,-8.937500000000007105e+00,-1.095312500000000711e+01,-5.984375000000003553e+00,-1.484375000000001332e+00,2.546875000000001332e+00,4.343750000000002665e+00,4.406250000000002665e+00,3.000000000000001776e+00,2.187500000000001776e+00,4.390625000000002665e+00,5.750000000000002665e+00,1.089062500000000533e+01,1.573437500000000888e+01,1.435937500000000711e+01,9.843750000000005329e+00,-1.953125000000002665e+00,-1.479687500000001066e+01,-2.045312500000001421e+01,-1.993750000000001421e+01,-1.090625000000000711e+01,1.031250000000000888e+00,7.953125000000004441e+00,9.625000000000005329e+00,4.296875000000001776e+00,-2.125000000000001776e+00,-3.781250000000002665e+00,-2.703125000000001776e+00,3.609375000000002220e+00,7.656250000000005329e+00,5.515625000000004441e+00,4.234375000000003553e+00,1.093750000000000000e-01,-1.968750000000001332e+00,-2.187500000000001665e-01,-3.593750000000002220e-01,1.562500000000002220e-01,-1.312500000000000888e+00,-2.906250000000001776e+00,-5.750000000000003553e+00,-9.343750000000005329e+00,-7.484375000000004441e+00,-5.062500000000003553e+00,1.656250000000000888e+00,1.023437500000000711e+01,1.082812500000000711e+01,8.593750000000005329e+00,8.281250000000000000e-01,-7.921875000000005329e+00,-1.010937500000000711e+01,-9.937500000000007105e+00,-3.218750000000002220e+00,2.171875000000000888e+00,5.000000000000003553e+00,9.859375000000007105e+00,7.593750000000005329e+00,6.296875000000003553e+00,5.390625000000003553e+00,-2.625000000000001776e+00,-4.765625000000003553e+00,-5.281250000000003553e+00,-8.171875000000005329e+00,-2.812500000000001776e+00,7.812500000000022204e-02,1.562500000000002220e-01,4.734375000000003553e+00,3.218750000000002665e+00,3.281249999999999445e-01,3.281249999999999445e-01,-5.843750000000003553e+00,-8.468750000000005329e+00,-7.140625000000003553e+00,-7.781250000000005329e+00,1.015625000000000444e+00,9.000000000000005329e+00,1.081250000000000711e+01,1.248437500000000711e+01,4.171875000000001776e+00,-6.687500000000003553e+00,-9.406250000000007105e+00,-1.143750000000000711e+01,-7.406250000000004441e+00,2.140625000000000888e+00,3.093750000000001776e+00,5.578125000000002665e+00,6.140625000000003553e+00,1.406250000000000888e+00,4.812500000000003553e+00,3.343750000000002665e+00,4.375000000000004441e-01,-1.359375000000000222e+00,-1.045312500000000711e+01,-1.264062500000000711e+01,-1.135937500000000711e+01,-6.562500000000004441e+00,4.812500000000003553e+00,1.095312500000000711e+01,1.529687500000001066e+01,1.407812500000000711e+01,6.515625000000003553e+00,0.000000000000000000e+00,-7.281250000000005329e+00,-9.421875000000007105e+00,-6.453125000000004441e+00,-2.656250000000001776e+00,2.500000000000001776e+00,4.687500000000003553e+00,3.437500000000002220e+00,3.625000000000002220e+00,2.359375000000001332e+00,2.250000000000001332e+00,5.140625000000002665e+00,3.765625000000001776e+00,2.515625000000001332e+00,-3.281250000000004441e-01,-4.921875000000003553e+00,-5.968750000000003553e+00,-4.640625000000003553e+00,-2.312500000000001776e+00,-1.390625000000000888e+00,-7.343750000000003331e-01,-2.625000000000001332e+00,-2.546875000000001332e+00,1.562500000000004718e-01,8.281250000000008882e-01,2.281250000000001776e+00,1.265625000000001110e+00,-1.171875000000000888e+00,-3.750000000000003331e-01,1.625000000000000888e+00,3.421875000000001776e+00,7.062500000000003553e+00,7.140625000000003553e+00,4.968750000000002665e+00,3.656250000000002220e+00,-2.015625000000001332e+00,-3.468750000000002665e+00,-4.468750000000003553e+00,-4.625000000000003553e+00,3.265625000000001332e+00,2.953125000000001332e+00,4.984375000000003553e+00,6.937500000000004441e+00,-1.734375000000001110e+00,1.312500000000000888e+00,6.406250000000000000e-01,-3.125000000000002665e+00,5.156250000000001110e-01,-6.671875000000004441e+00,-8.234375000000005329e+00,-4.734375000000002665e+00,-2.218750000000001332e+00,8.468750000000005329e+00,9.921875000000007105e+00,5.468750000000003553e+00,-9.375000000000008882e-01,-1.037500000000000711e+01,-9.296875000000007105e+00,1.874999999999995559e-01,1.012500000000000533e+01,1.564062500000000888e+01,1.456250000000000888e+01,2.000000000000000888e+00,-6.781250000000003553e+00,-8.687500000000005329e+00,-9.187500000000007105e+00,6.875000000000008882e-01,1.718750000000001332e+00,-4.687500000000000000e-01,-2.625000000000001332e+00,-1.121875000000000711e+01,-9.000000000000007105e+00,-6.421875000000005329e+00,-2.468750000000001776e+00,4.078125000000002665e+00,2.671875000000001776e+00,8.281250000000008882e-01,-3.234375000000002220e+00,-5.890625000000003553e+00,-3.656250000000002665e+00,-1.625000000000001332e+00,3.609375000000002665e+00,7.312500000000005329e+00,7.390625000000005329e+00,1.132812500000000711e+01,1.078125000000000711e+01,7.671875000000005329e+00,5.468750000000003553e+00,-3.531250000000001776e+00,-8.265625000000005329e+00,-8.265625000000005329e+00,-6.671875000000003553e+00,-2.968750000000000000e-01,2.500000000000001776e+00,1.656250000000001110e+00,0.000000000000000000e+00,-2.000000000000001332e+00,-6.875000000000005551e-01,4.812500000000002665e+00,1.093750000000000711e+01,1.390625000000000888e+01,1.489062500000000888e+01,7.203125000000003553e+00,-5.062500000000003553e+00,-1.168750000000000711e+01,-2.015625000000001421e+01,-1.710937500000001066e+01,-6.578125000000003553e+00,-3.812500000000000888e+00,4.109375000000002665e+00,8.750000000000008882e-01,-7.390625000000003553e+00,-7.875000000000005329e+00,-1.484375000000000888e+01,-1.196875000000000711e+01,-9.468750000000007105e+00,-1.065625000000000711e+01,-3.515625000000002220e+00,-1.531250000000000444e+00,5.843750000000003553e+00,1.278125000000000711e+01,1.375000000000000888e+01,1.504687500000001066e+01,1.270312500000000888e+01,1.475000000000001066e+01,1.635937500000001066e+01,2.040625000000001421e+01,2.221875000000001421e+01,1.326562500000000711e+01,6.859375000000005329e+00,-6.734375000000004441e+00,-2.192187500000001421e+01,-2.503125000000002132e+01,-3.142187500000002132e+01,-2.987500000000001421e+01,-1.717187500000000711e+01,-1.046875000000000711e+01,1.265625000000001776e+00,1.340625000000001066e+01,1.364062500000000888e+01,1.389062500000000888e+01,1.370312500000000711e+01,9.968750000000005329e+00,1.618750000000001066e+01,2.878125000000001776e+01,3.531250000000002132e+01,3.531250000000002132e+01,2.176562500000001421e+01,-4.515625000000002665e+00,-2.531250000000001776e+01,-3.251562500000002132e+01,-2.739062500000001776e+01,-1.028125000000000711e+01,2.593750000000001332e+00,5.140625000000003553e+00,2.390625000000001776e+00,-8.265625000000005329e+00,-1.435937500000001066e+01,-1.526562500000001066e+01,-1.440625000000000888e+01,-8.359375000000005329e+00,-4.281250000000002665e+00,-1.750000000000001332e+00,9.375000000000006939e-02,7.812500000000005551e-02,4.687500000000002776e-02,3.125000000000002082e-02,1.562500000000001041e-02,-4.687500000000004163e-02,-4.687500000000004163e-02,-4.687500000000004163e-02,-4.687500000000004163e-02,4.687500000000004163e-02,3.125000000000002776e-02,1.562500000000001735e-02,-1.562500000000000694e-02,-1.093750000000000833e-01,-1.093750000000000833e-01,-9.375000000000008327e-02,-1.562500000000001388e-02,7.812500000000006939e-02,2.031250000000001665e-01,2.656250000000002220e-01,2.500000000000002220e-01,2.343750000000001943e-01,1.562500000000004163e-02,-1.093750000000000555e-01,-2.343750000000001665e-01,-3.593750000000002776e-01,-2.187500000000001665e-01,-1.562500000000001388e-01,-1.562500000000002776e-02,1.250000000000001110e-01,7.812500000000006939e-02,1.093750000000000833e-01,9.375000000000006939e-02,7.812500000000005551e-02,1.406250000000001110e-01,1.093750000000000833e-01,0.000000000000000000e+00,-1.250000000000001110e-01,-2.812500000000002220e-01,-3.906250000000003331e-01,-2.656250000000002220e-01,-7.812500000000004163e-02,1.718750000000001388e-01,4.687500000000003331e-01,4.531250000000003331e-01,3.437500000000002220e-01,1.406250000000001110e-01,-1.562500000000001110e-01,-2.187500000000001665e-01,-2.187500000000001665e-01,-1.562500000000001110e-01,-3.125000000000002082e-02,-1.562500000000001041e-02,0.000000000000000000e+00,-1.562500000000001041e-02,-3.125000000000001665e-01,-1.921875000000001554e+00,-4.734375000000003553e+00,-9.671875000000007105e+00,-1.545312500000001066e+01,-1.854687500000001066e+01,-1.976562500000001421e+01,-1.689062500000001421e+01,-1.200000000000000888e+01,-7.828125000000005329e+00,-4.468750000000002665e+00,-1.828125000000000888e+00,1.031250000000001554e+00,2.140625000000001776e+00,4.984375000000003553e+00,7.500000000000006217e+00,9.031250000000007105e+00,1.270312500000001066e+01,1.359375000000001066e+01,7.859375000000006217e+00,-2.968750000000000000e-01,-1.190625000000000888e+01,-2.200000000000001421e+01,-1.900000000000001421e+01,-1.146875000000000711e+01,2.328125000000002665e+00,1.693750000000001421e+01,1.784375000000001066e+01,1.653125000000001066e+01,8.750000000000005329e+00,-3.203125000000003553e+00,-3.609375000000003553e+00,-3.781250000000002665e+00,1.250000000000000000e+00,1.203125000000000888e+01,1.473437500000001066e+01,1.510937500000001066e+01,9.906250000000007105e+00,8.906250000000006661e-01,-6.218750000000004441e+00,-1.276562500000000888e+01,-1.551562500000001066e+01,-1.920312500000001421e+01,-2.260937500000001421e+01,-2.134375000000001421e+01,-2.170312500000001066e+01,-1.675000000000000711e+01,-5.687500000000001776e+00,3.812500000000002665e+00,1.807812500000001066e+01,2.918750000000001421e+01,3.154687500000002132e+01,3.007812500000002132e+01,2.210937500000001421e+01,1.268750000000000711e+01,6.500000000000003553e+00,2.609375000000001776e+00,1.234375000000000666e+00,9.843750000000006661e-01,6.718750000000004441e-01,-1.093750000000001110e-01,-1.015625000000000444e+00,-1.609375000000000888e+00,-1.937500000000001332e+00,-1.515625000000000888e+00,-6.562500000000004441e-01,7.812500000000002776e-02,6.562500000000004441e-01,7.500000000000005551e-01,5.312500000000004441e-01,2.968750000000002220e-01,7.812500000000005551e-02,1.562500000000001041e-02,3.125000000000002082e-02,7.812500000000005551e-02,2.187500000000001110e-01,3.437500000000002220e-01,4.218750000000003331e-01,5.000000000000003331e-01,5.156250000000003331e-01,5.468750000000003331e-01,1.281250000000000888e+00,2.750000000000001776e+00,4.265625000000003553e+00,6.906250000000004441e+00,7.125000000000004441e+00,4.640625000000003553e+00,1.718750000000001110e+00,-5.828125000000004441e+00,-9.031250000000007105e+00,-8.187500000000007105e+00,-6.859375000000005329e+00,1.859375000000001332e+00,4.031250000000002665e+00,1.937500000000001332e+00,8.125000000000006661e-01,-7.406250000000005329e+00,-7.671875000000005329e+00,-3.671875000000001776e+00,-3.125000000000001776e+00,2.703125000000002220e+00,3.296875000000002665e+00,1.750000000000001332e+00,5.515625000000004441e+00,8.750000000000005329e+00,1.287500000000000711e+01,1.604687500000001066e+01,1.393750000000000888e+01,6.125000000000004441e+00,-1.843750000000000444e+00,-9.859375000000005329e+00,-1.496875000000001066e+01,-1.354687500000001066e+01,-1.071875000000000711e+01,-3.968750000000002665e+00,4.500000000000002665e+00,9.609375000000007105e+00,1.462500000000000888e+01,1.401562500000000888e+01,7.593750000000005329e+00,3.125000000000001776e+00,-5.906250000000004441e+00,-1.062500000000000711e+01,-1.129687500000000711e+01,-1.381250000000001066e+01,-8.765625000000007105e+00,-6.093750000000003553e+00,-1.578125000000001332e+00,3.437500000000002220e+00,2.859375000000002220e+00,2.859375000000002220e+00,-2.156250000000001776e+00,-5.312500000000003553e+00,-5.953125000000004441e+00,-4.578125000000003553e+00,1.296875000000000888e+00,2.890625000000001776e+00,3.062500000000001776e+00,6.250000000000000000e-02,-5.000000000000002665e+00,-2.921875000000001332e+00,1.906250000000001332e+00,7.328125000000005329e+00,1.337500000000000888e+01,1.310937500000000888e+01,8.125000000000005329e+00,6.375000000000005329e+00,2.843750000000002220e+00,5.781250000000003331e-01,3.000000000000001776e+00,1.609375000000000888e+00,3.156250000000002220e+00,3.234375000000002665e+00,2.656250000000003331e-01,-2.234375000000001332e+00,-9.515625000000007105e+00,-1.050000000000000711e+01,-1.182812500000000711e+01,-1.010937500000000711e+01,-1.750000000000000444e+00,-6.249999999999963918e-02,4.406250000000002665e+00,2.875000000000001332e+00,-2.921875000000001776e+00,-6.640625000000004441e+00,-1.117187500000000711e+01,-7.140625000000003553e+00,-2.625000000000001332e+00,3.968750000000003553e+00,9.234375000000007105e+00,6.671875000000005329e+00,2.890625000000002220e+00,-2.515625000000001332e+00,-8.312500000000005329e+00,-9.250000000000007105e+00,-4.531250000000003553e+00,-5.312500000000004441e-01,8.093750000000005329e+00,1.328125000000000888e+01,1.196875000000000888e+01,1.339062500000001066e+01,7.828125000000005329e+00,5.718750000000003553e+00,4.531250000000002665e+00,-3.062500000000001776e+00,-5.718750000000002665e+00,-1.079687500000000711e+01,-1.282812500000000711e+01,-7.468750000000004441e+00,-5.156250000000003553e+00,-3.312500000000001776e+00,-1.968750000000001332e+00,-5.203125000000003553e+00,-4.937500000000003553e+00,-1.109375000000000666e+00,-4.687500000000002220e-01,4.046875000000002665e+00,6.718750000000003553e+00,4.015625000000002665e+00,5.468750000000003553e+00,3.750000000000002665e+00,1.437500000000001110e+00,4.609375000000002665e+00,3.812500000000002220e+00,2.531250000000001776e+00,1.171875000000000444e+00,-3.734375000000002665e+00,-4.609375000000002665e+00,-2.578125000000001776e+00,1.562500000000004441e-01,5.000000000000003553e+00,5.203125000000003553e+00,3.765625000000002220e+00,1.984375000000000888e+00,-4.296875000000002665e+00,-5.484375000000003553e+00,-9.406250000000007105e+00,-1.220312500000000711e+01,-8.109375000000005329e+00,-8.281250000000005329e+00,-2.250000000000001332e+00,2.765625000000001776e+00,4.781250000000003553e+00,1.045312500000000711e+01,1.303125000000001066e+01,1.601562500000001066e+01,1.521875000000001066e+01,1.018750000000000711e+01
-7.625000000000002665e+00,-1.993750000000000711e+01,2.500000000000000000e-01,4.687500000000001776e+00,-1.225000000000000533e+01,-5.625000000000001776e+00,1.237500000000000533e+01,4.437500000000001776e+00,-8.000000000000003553e+00,-3.062500000000001332e+00,6.249999999999977796e-02,-2.750000000000001776e+00,-2.562500000000000888e+00,6.875000000000006661e-01,1.812500000000000888e+00,2.500000000000000555e-01,4.125000000000001776e+00,8.125000000000000000e-01,-5.312500000000002665e+00,7.125000000000002665e+00,1.093750000000000355e+01,-7.437500000000002665e+00,-1.425000000000000711e+01,-1.812500000000000888e+00,4.875000000000002665e+00,4.375000000000001776e+00,6.000000000000002665e+00,-4.000000000000001776e+00,-1.387500000000000711e+01,6.250000000000000000e-01,1.543750000000000711e+01,3.312500000000001776e+00,-1.093750000000000533e+01,4.375000000000000000e-01,1.068750000000000533e+01,-8.125000000000008882e-01,-4.562500000000002665e+00,1.437500000000000666e+00,-5.500000000000002665e+00,-6.750000000000003553e+00,4.250000000000001776e+00,7.250000000000003553e+00,1.937500000000000888e+00,-4.750000000000001776e+00,-4.750000000000001776e+00,3.125000000000001110e-01,2.125000000000000888e+00,9.375000000000004441e-01,1.875000000000000833e-01,5.000000000000001776e+00,4.375000000000001776e+00,-4.687500000000001776e+00,-3.125000000000001332e+00,3.187500000000001332e+00,4.000000000000001776e+00,3.312500000000001776e+00,-5.375000000000003553e+00,-1.331250000000000711e+01,-4.750000000000002665e+00,5.562500000000002665e+00,7.750000000000003553e+00,1.006250000000000355e+01,2.250000000000000000e+00,-1.343750000000000533e+01,-7.437500000000002665e+00,9.750000000000003553e+00,5.687500000000002665e+00,-3.000000000000000888e+00,-2.500000000000000888e+00,-5.062500000000002665e+00,-1.062500000000000444e+00,4.937500000000001776e+00,1.062500000000000444e+00,-1.250000000000000444e+00,-2.500000000000001665e-01,5.625000000000002220e-01,4.062500000000001776e+00,3.750000000000001776e+00,-6.187500000000003553e+00,-7.250000000000003553e+00,6.750000000000003553e+00,1.087500000000000533e+01,7.500000000000004441e-01,-8.125000000000003553e+00,-8.875000000000003553e+00,-2.125000000000000888e+00,2.687500000000001332e+00,3.312500000000001776e+00,2.875000000000001332e+00,-4.062500000000001776e+00,-7.812500000000002665e+00,3.312500000000002665e+00,1.293750000000000711e+01,5.500000000000003553e+00,-5.937500000000001776e+00,-7.187500000000002665e+00,-4.375000000000001776e+00,-4.562500000000001776e+00,-3.250000000000001332e+00,4.062500000000001776e+00,6.812500000000002665e+00,3.437500000000001776e+00,4.125000000000001776e+00,-6.250000000000008882e-01,-6.062500000000002665e+00,3.312500000000001776e+00,6.062500000000002665e+00,-7.312500000000003553e+00,-6.187500000000002665e+00,8.250000000000003553e+00,3.937500000000002220e+00,-5.812500000000002665e+00,-1.875000000000000888e+00,-4.562500000000001776e+00,-6.625000000000001776e+00,9.187500000000003553e+00,1.550000000000000533e+01,6.250000000000000000e-01,-1.137500000000000533e+01,-1.200000000000000533e+01,-3.937500000000001776e+00,9.625000000000003553e+00,1.387500000000000711e+01,1.250000000000000888e+00,-9.562500000000003553e+00,-4.750000000000001776e+00,-1.000000000000000444e+00,6.250000000000000000e-02,6.125000000000002665e+00,1.500000000000000000e+00,-5.625000000000003553e+00,-3.187500000000001332e+00,-6.249999999999977796e-02,8.187500000000003553e+00,9.250000000000003553e+00,-4.437500000000001776e+00,-5.875000000000002665e+00,-1.625000000000000444e+00,-8.500000000000003553e+00,-3.500000000000002220e+00,1.350000000000000533e+01,1.256250000000000355e+01,-3.250000000000000888e+00,-8.500000000000003553e+00,-3.937500000000001776e+00,2.000000000000000444e+00,6.687500000000002665e+00,-1.437500000000000000e+00,-8.125000000000003553e+00,2.187500000000000888e+00,3.437500000000000888e+00,-9.750000000000003553e+00,-4.625000000000001776e+00,1.281250000000000533e+01,8.437500000000003553e+00,-6.500000000000002665e+00,-8.437500000000003553e+00,8.750000000000008882e-01,5.812500000000002665e+00,-3.750000000000001776e+00,-6.312500000000002665e+00,4.375000000000004441e-01,6.875000000000006661e-01,5.125000000000001776e+00,7.250000000000002665e+00,-5.125000000000002665e+00,-1.006250000000000533e+01,5.125000000000001776e+00,1.187500000000000533e+01,-3.125000000000000000e-01,-6.875000000000000000e-01,6.437500000000003553e+00,-1.437500000000000444e+00,-5.062500000000001776e+00,-2.000000000000000888e+00,-5.187500000000002665e+00,1.625000000000000000e+00,6.312500000000001776e+00,-5.875000000000003553e+00,-3.625000000000001776e+00,8.000000000000003553e+00,-1.625000000000001776e+00,-7.625000000000004441e+00,4.187500000000001776e+00,1.750000000000000888e+00,-8.187500000000003553e+00,1.375000000000000888e+00,9.000000000000003553e+00,-2.875000000000002220e+00,-5.000000000000002665e+00,9.062500000000003553e+00,4.812500000000001776e+00,-1.337500000000000533e+01,-8.312500000000003553e+00,8.875000000000003553e+00,4.875000000000002665e+00,-1.375000000000000666e+00,4.625000000000001776e+00,-2.437500000000001776e+00,-6.437500000000003553e+00,4.937500000000001776e+00,-1.187500000000001776e+00,-7.625000000000003553e+00,5.375000000000003553e+00,4.062500000000002665e+00,-5.750000000000002665e+00,-3.562500000000001776e+00,-2.875000000000001332e+00,3.812500000000002220e+00,9.250000000000005329e+00,-3.875000000000001776e+00,-2.750000000000001776e+00,9.000000000000003553e+00,-4.875000000000003553e+00,-1.350000000000000711e+01,6.937500000000003553e+00,1.362500000000000711e+01,-4.812500000000002665e+00,-5.312500000000002665e+00,6.625000000000002665e+00,-2.750000000000001776e+00,-7.437500000000003553e+00,5.375000000000002665e+00,8.000000000000003553e+00,6.375000000000003553e+00,5.125000000000003553e+00,-3.000000000000001776e+00,-5.562500000000003553e+00,-7.812500000000004441e+00,-1.081250000000000533e+01,6.875000000000008882e-01,1.225000000000000711e+01,8.312500000000003553e+00,-3.750000000000001776e+00,-6.250000000000001776e+00,1.750000000000001110e+00,1.062500000000000444e+00,-3.500000000000001776e+00,-5.437500000000002665e+00,-2.625000000000001332e+00,7.062500000000003553e+00,2.812500000000001776e+00,-5.500000000000002665e+00,-9.375000000000004441e-01,-1.187500000000000444e+00,1.062500000000000888e+00,4.312500000000001776e+00,-7.000000000000003553e+00,-2.187500000000000888e+00,1.637500000000000711e+01,5.437500000000000888e+00,-1.793750000000001066e+01,-1.068750000000000711e+01,1.212500000000000711e+01,1.056250000000000533e+01,-1.125000000000000444e+00,-3.875000000000001776e+00,-8.125000000000003553e+00,-6.250000000000000000e-02,6.812500000000003553e+00,-4.687500000000001776e+00,-4.375000000000000000e-01,5.687500000000002665e+00,-5.562500000000002665e+00,-2.375000000000000888e+00,4.500000000000001776e+00,2.125000000000000888e+00,4.375000000000001110e-01,-8.500000000000003553e+00,-7.937500000000003553e+00,6.500000000000002665e+00,1.043750000000000355e+01,7.812500000000003553e+00,7.000000000000003553e+00,1.312500000000000444e+00,-7.187500000000002665e+00,-1.187500000000000533e+01,-9.750000000000005329e+00,4.312500000000001776e+00,1.018750000000000533e+01,-5.187500000000001776e+00,-3.437500000000001776e+00,9.187500000000003553e+00,-5.500000000000003553e+00,-1.137500000000000533e+01,1.175000000000000711e+01,1.543750000000000711e+01,-4.062500000000002665e+00,-9.937500000000005329e+00,-6.812500000000003553e+00,-6.250000000000003553e+00,2.125000000000000444e+00,1.250000000000000533e+01,5.625000000000002665e+00,-9.500000000000003553e+00,-3.687500000000001776e+00,5.000000000000002665e+00,-5.250000000000002665e+00,-2.375000000000001776e+00,5.687500000000002665e+00,-1.750000000000000888e+00,4.562500000000001776e+00,1.218750000000000533e+01,-9.375000000000000000e-01,-1.125000000000000533e+01,-7.625000000000004441e+00,3.437500000000001776e+00,6.062500000000002665e+00,-1.875000000000002220e-01,-1.750000000000000666e+00,-6.500000000000001776e+00,-6.500000000000001776e+00,3.812500000000001332e+00,6.875000000000003553e+00,7.375000000000003553e+00,6.250000000000001776e+00,-5.000000000000003553e+00,-1.518750000000000711e+01,-1.018750000000000355e+01,5.437500000000002665e+00,9.250000000000005329e+00,1.250000000000004441e-01,1.000000000000000888e+00,1.143750000000000533e+01,7.000000000000003553e+00,-8.375000000000003553e+00,-8.437500000000003553e+00,-4.687500000000001776e+00,-5.250000000000002665e+00,5.687500000000002665e+00,7.437500000000003553e+00,-6.250000000000003553e+00,-2.500000000000001776e+00,9.937500000000005329e+00,5.937500000000003553e+00,-8.125000000000002220e-01,-8.125000000000004441e-01,-1.750000000000001110e+00,-7.250000000000002665e+00,-1.075000000000000355e+01,3.437500000000001776e+00,1.375000000000000533e+01,-2.000000000000001776e+00,-8.125000000000003553e+00,3.312500000000001332e+00,1.562500000000000888e+00,-9.500000000000003553e+00,-5.875000000000003553e+00,8.562500000000003553e+00,9.125000000000003553e+00,-3.750000000000002220e-01,-4.687500000000001776e+00,4.250000000000002665e+00,2.043750000000000711e+01,8.375000000000003553e+00,-1.781250000000000711e+01,-9.937500000000003553e+00,1.093750000000000533e+01,1.287500000000000533e+01,5.562500000000001776e+00,-3.312500000000001776e+00,-1.087500000000000533e+01,-1.131250000000000533e+01,1.250000000000000000e-01,9.625000000000003553e+00,2.187500000000000888e+00,-4.062500000000000888e+00,-4.062500000000000888e+00,3.375000000000001776e+00,2.068750000000001066e+01,6.250000000000003553e+00,-2.750000000000001066e+01,-2.212500000000000711e+01,-4.250000000000001776e+00,7.625000000000003553e+00,3.193750000000001066e+01,1.887500000000000355e+01,-2.450000000000001066e+01,-2.000000000000000711e+01,5.187500000000002665e+00,6.875000000000000000e-01,-5.687500000000002665e+00,-4.500000000000002665e+00,-1.112500000000000533e+01,-5.250000000000001776e+00,1.075000000000000533e+01,1.531250000000000711e+01,1.362500000000000711e+01,-2.625000000000000000e+00,-1.743750000000000711e+01,-5.937500000000002665e+00,7.250000000000002665e+00,8.312500000000003553e+00,2.937500000000001776e+00,-4.250000000000001776e+00,-1.087500000000000533e+01,-1.368750000000000711e+01,-4.187500000000001776e+00,-3.812500000000001332e+00,-3.500000000000000444e+00,2.581250000000000711e+01,2.618750000000000711e+01,-1.418750000000000711e+01,-2.431250000000001066e+01,-5.875000000000003553e+00,6.687500000000003553e+00,7.375000000000003553e+00,4.375000000000002220e-01,-8.625000000000003553e+00,-7.250000000000003553e+00,1.568750000000000711e+01,2.187500000000000711e+01,-9.312500000000005329e+00,-3.043750000000001421e+01,-1.318750000000000533e+01,1.525000000000000888e+01,1.350000000000000711e+01,-9.125000000000003553e+00,-1.087500000000000533e+01,7.500000000000002665e+00,2.218750000000001066e+01,1.312500000000000711e+01,-1.775000000000000711e+01,-2.456250000000001066e+01,3.812500000000000000e+00,2.237500000000000711e+01,7.812500000000003553e+00,-1.900000000000000711e+01,-1.593750000000000711e+01,3.500000000000000888e+00,-8.750000000000008882e-01,1.687500000000001776e+00,2.300000000000001066e+01,1.637500000000000711e+01,-1.575000000000000711e+01,-1.768750000000000711e+01,1.306250000000000711e+01,1.500000000000000711e+01,-1.206250000000000711e+01,-1.475000000000000888e+01,2.062500000000001332e+00,1.037500000000000533e+01,1.000000000000000355e+01,5.625000000000000000e-01,-1.525000000000000533e+01,-1.662500000000000711e+01,2.000000000000000888e+00,1.206250000000000711e+01,3.500000000000001776e+00,-4.937500000000001776e+00,1.125000000000000444e+00,1.412500000000000533e+01,6.562500000000001776e+00,-4.437500000000002665e+00,4.875000000000002665e+00,-2.125000000000000000e+00,-2.056250000000001066e+01,-7.187500000000005329e+00,1.381250000000000533e+01,9.375000000000003553e+00,-1.750000000000000444e+00,-5.375000000000002665e+00,-4.437500000000001776e+00,6.312500000000003553e+00,1.093750000000000533e+01,-5.687500000000001776e+00,-1.193750000000000533e+01,5.750000000000001776e+00,1.918750000000000711e+01,1.425000000000000533e+01,-8.750000000000000000e-01,-1.212500000000000533e+01,-1.737500000000000711e+01,-1.493750000000000533e+01,2.125000000000000888e+00,1.056250000000000355e+01,-1.750000000000000444e+00,1.875000000000001776e+00,2.100000000000001066e+01,5.125000000000003553e+00,-3.281250000000001421e+01,-2.056250000000000711e+01,2.731250000000001421e+01,2.493750000000001066e+01,-9.750000000000003553e+00,-9.562500000000003553e+00,-1.875000000000002220e-01,-3.625000000000001776e+00,4.875000000000002665e+00,9.625000000000003553e+00,-6.250000000000002665e+00,-1.131250000000000355e+01,5.375000000000002665e+00,1.012500000000000355e+01,-2.687500000000000888e+00,-1.275000000000000533e+01,-1.300000000000000533e+01,2.875000000000001776e+00,1.550000000000000711e+01,5.875000000000002665e+00,1.125000000000000000e+00,6.750000000000002665e+00,-1.875000000000000000e+00,-1.768750000000000711e+01,-1.387500000000000711e+01,7.187500000000001776e+00,1.506250000000000711e+01,4.062500000000001776e+00,-1.037500000000000355e+01,-8.250000000000003553e+00,1.718750000000000711e+01,1.756250000000000711e+01,-1.343750000000000711e+01,-1.381250000000000711e+01,2.250000000000001332e+00,3.750000000000000000e-01,2.750000000000000888e+00,3.125000000000000000e-01,-9.062500000000003553e+00,1.500000000000001776e+00,1.293750000000000711e+01,4.750000000000002665e+00,-1.000000000000000355e+01,-1.068750000000000355e+01,8.750000000000003553e+00,9.250000000000005329e+00,-1.637500000000000711e+01,-1.675000000000000711e+01,6.187500000000002665e+00,2.093750000000001066e+01,1.737500000000000711e+01,-5.500000000000001776e+00,-1.387500000000000533e+01,-2.625000000000001332e+00,-7.187500000000003553e+00,-6.812500000000003553e+00,9.562500000000003553e+00,6.437500000000002665e+00,-2.750000000000001332e+00,1.500000000000000444e+00,4.812500000000001776e+00,-2.375000000000000888e+00,-1.150000000000000533e+01,6.125000000000003553e+00,2.418750000000001421e+01,-3.437500000000001776e+00,-3.087500000000001421e+01,-1.325000000000000711e+01,1.412500000000000355e+01,9.687500000000003553e+00,-7.062500000000003553e+00,2.937500000000000888e+00,1.656250000000000711e+01,5.812500000000002665e+00,-5.687500000000002665e+00,-5.187500000000002665e+00,-6.187500000000002665e+00,-9.500000000000003553e+00,-3.125000000000000000e-01,1.381250000000000533e+01,6.875000000000002665e+00,-9.125000000000003553e+00,-5.812500000000003553e+00,6.812500000000001776e+00,8.187500000000003553e+00,-4.500000000000002665e+00,-1.056250000000000533e+01,9.250000000000005329e+00,1.850000000000000711e+01,-7.562500000000005329e+00,-2.250000000000001066e+01,-4.000000000000001776e+00,1.175000000000000533e+01,9.187500000000005329e+00,6.875000000000004441e-01,-1.031250000000000355e+01,-1.100000000000000355e+01,4.125000000000002665e+00,1.243750000000000711e+01,2.125000000000000888e+00,-8.437500000000003553e+00,-5.625000000000008882e-01,5.750000000000002665e+00,-7.562500000000002665e+00,-6.062500000000002665e+00,1.631250000000000711e+01,9.562500000000005329e+00,-1.325000000000000533e+01,-2.750000000000000000e+00,1.418750000000000711e+01,6.875000000000000000e-01,-1.506250000000000711e+01,-3.812500000000001776e+00,3.750000000000001332e+00,-1.312500000000000666e+00,1.400000000000000711e+01,9.625000000000003553e+00,-1.937500000000000711e+01,-4.250000000000000000e+00,1.350000000000000711e+01,-3.937500000000002220e+00,-4.437500000000001776e+00,9.312500000000003553e+00,2.812500000000000888e+00,-1.875000000000000711e+01,-1.718750000000000711e+01,1.243750000000000711e+01,2.318750000000001066e+01,1.050000000000000533e+01,-5.312500000000001776e+00,-1.706250000000000711e+01,-1.225000000000000711e+01,-3.875000000000001332e+00,1.562500000000000888e+00,2.193750000000000711e+01,2.812500000000001066e+01,-6.000000000000003553e+00,-2.706250000000001066e+01,-1.250000000000000355e+01,3.750000000000001332e+00,1.012500000000000355e+01,6.187500000000003553e+00,1.812500000000000888e+00,-3.875000000000002665e+00,-9.250000000000003553e+00,-2.687500000000000888e+00,-3.750000000000000888e+00,-5.000000000000001776e+00,8.250000000000003553e+00,9.437500000000003553e+00,-1.000000000000000666e+00,-3.000000000000001776e+00,-4.937500000000001776e+00,-1.125000000000000355e+01,-1.874999999999991118e-01,1.731250000000000711e+01,2.562500000000000000e+00,-1.381250000000000533e+01,5.125000000000001776e+00,1.381250000000000533e+01,-9.375000000000000000e-01,-8.125000000000000000e-01,8.250000000000003553e+00,1.437500000000000888e+00,-1.975000000000000711e+01,-2.043750000000000711e+01,1.400000000000000533e+01,2.950000000000001421e+01,-2.625000000000001776e+00,-2.700000000000001421e+01,-3.937500000000003553e+00,2.131250000000000711e+01,1.875000000000001776e+00,-2.081250000000000711e+01,4.625000000000001776e+00,3.112500000000001421e+01,7.875000000000003553e+00,-1.412500000000000711e+01,-7.187500000000002665e+00,-8.750000000000003553e+00,-1.006250000000000355e+01,-4.187500000000001776e+00,5.000000000000000000e-01,1.400000000000000711e+01,1.081250000000000533e+01,-8.062500000000003553e+00,-1.406250000000000711e+01,-9.812500000000003553e+00,2.937500000000000888e+00,6.250000000000002665e+00,-2.625000000000000888e+00,-7.250000000000002665e+00,-9.562500000000003553e+00,9.375000000000008882e-01,1.368750000000000711e+01,1.050000000000000533e+01,4.062500000000001776e+00,-1.500000000000000888e+00,-6.375000000000003553e+00,1.500000000000000000e+00,1.612500000000000711e+01,1.087500000000000355e+01,2.812500000000000444e+00,8.437500000000001776e+00,-4.937500000000001776e+00,-1.462500000000000533e+01,-2.187500000000000888e+00,-9.687500000000003553e+00,-1.593750000000000533e+01,-5.812500000000002665e+00,-6.312500000000003553e+00,5.750000000000002665e+00,1.506250000000000711e+01,-3.437500000000000888e+00,1.687500000000000000e+00,1.725000000000000711e+01,-2.312500000000000000e+00,-1.100000000000000355e+01,7.500000000000000000e-01,3.312500000000001776e+00,2.893750000000001421e+01,5.193750000000002842e+01,2.437500000000003553e+00,-5.962500000000002842e+01,-4.281250000000001421e+01,1.168750000000000533e+01,2.206250000000000711e+01,-1.312500000000001776e+00,-1.250000000000008882e-01,1.212500000000000533e+01,-4.187500000000000888e+00,-1.737500000000000711e+01,-7.375000000000003553e+00,-1.250000000000000555e-01,0.000000000000000000e+00,1.250000000000000555e-01,6.250000000000002776e-02,0.000000000000000000e+00,0.000000000000000000e+00,0.000000000000000000e+00,0.000000000000000000e+00,0.000000000000000000e+00,6.250000000000002776e-02,6.250000000000002776e-02,-1.875000000000001110e-01,-1.875000000000001110e-01,1.875000000000001110e-01,1.875000000000001110e-01,-6.250000000000002776e-02,-6.250000000000002776e-02,0.000000000000000000e+00,-6.250000000000002776e-02,-1.250000000000000555e-01,0.000000000000000000e+00,1.250000000000000555e-01,0.000000000000000000e+00,-6.250000000000002776e-02,2.500000000000001110e-01,3.125000000000001110e-01,-1.250000000000000833e-01,-1.875000000000001110e-01,0.000000000000000000e+00,-6.250000000000002776e-02,-1.875000000000000833e-01,-2.500000000000001110e-01,6.250000000000005551e-02,3.750000000000002220e-01,1.250000000000000833e-01,-1.875000000000000833e-01,-1.875000000000000833e-01,6.250000000000002776e-02,2.500000000000001110e-01,6.250000000000002776e-02,-6.250000000000002776e-02,6.250000000000002776e-02,-6.250000000000002776e-02,-2.500000000000001110e-01,-1.875000000000000833e-01,-1.875000000000001110e-01,-2.775557561562891351e-17,3.750000000000001665e-01,3.750000000000001665e-01,2.500000000000001110e-01,2.775557561562891351e-17,-3.750000000000001665e-01,-2.500000000000001110e-01,6.250000000000002776e-02,6.250000000000002776e-02,0.000000000000000000e+00,0.000000000000000000e+00,0.000000000000000000e+00,0.000000000000000000e+00,0.000000000000000000e+00,-6.250000000000002776e-02,-6.250000000000002776e-02,1.250000000000000555e-01,-1.000000000000000444e+00,-7.812500000000003553e+00,-1.456250000000000711e+01,-7.937500000000003553e+00,2.687500000000000444e+00,4.000000000000001776e+00,1.625000000000002220e+00,-4.812500000000000888e+00,-1.137500000000000711e+01,3.499999999999999112e+00,2.168750000000001066e+01,-5.000000000000000000e-01,-2.356250000000001066e+01,4.812500000000003553e+00,2.793750000000001421e+01,4.562500000000001776e+00,-9.625000000000003553e+00,2.187500000000000888e+00,-2.187500000000001776e+00,-2.343750000000001066e+01,-2.287500000000001066e+01,9.937500000000003553e+00,2.718750000000001421e+01,1.156250000000000533e+01,1.000000000000000222e+00,-5.000000000000002665e+00,-5.687500000000002665e+00,5.687500000000002665e+00,-3.000000000000000888e+00,-1.393750000000000711e+01,2.125000000000000888e+00,1.562500000000000711e+01,1.612500000000000711e+01,8.375000000000003553e+00,-1.143750000000000533e+01,-1.825000000000000711e+01,3.937500000000001776e+00,1.381250000000000711e+01,-1.018750000000000533e+01,-1.975000000000001066e+01,-4.312500000000003553e+00,-1.312500000000000444e+00,-2.750000000000000888e+00,-3.687500000000002665e+00,-1.168750000000000711e+01,1.000000000000001776e+00,2.368750000000001421e+01,2.037500000000000711e+01,5.937500000000001776e+00,8.750000000000003331e-01,3.750000000000001110e-01,1.250000000000000555e-01,1.250000000000000555e-01,1.875000000000001110e-01,5.625000000000003331e-01,6.250000000000003331e-01,0.000000000000000000e+00,-6.250000000000008327e-02,-3.125000000000002220e-01,-1.687500000000000888e+00,-1.562500000000000888e+00,3.750000000000001665e-01,1.125000000000000444e+00,5.000000000000002220e-01,6.250000000000002776e-02,-6.250000000000002776e-02,-1.250000000000000555e-01,6.250000000000002776e-02,1.875000000000000833e-01,-1.250000000000000833e-01,-1.875000000000001110e-01,1.875000000000001110e-01,1.250000000000000833e-01,-6.250000000000002776e-02,3.125000000000001110e-01,4.375000000000002220e-01,-6.250000000000002776e-02,-3.125000000000002220e-01,6.250000000000002776e-02,7.500000000000003331e-01,9.375000000000004441e-01,2.312500000000000888e+00,6.812500000000002665e+00,4.125000000000001776e+00,-5.437500000000001776e+00,-4.562500000000001776e+00,-4.375000000000001776e+00,-9.625000000000003553e+00,-1.375000000000000888e+00,1.093750000000000533e+01,1.393750000000000711e+01,6.875000000000000000e-01,-1.712500000000000711e+01,-9.187500000000003553e+00,2.500000000000000888e+00,1.750000000000000444e+00,8.750000000000003553e+00,3.750000000000001776e+00,-1.012500000000000533e+01,-1.937500000000001776e+00,5.937500000000002665e+00,6.250000000000006661e-01,6.500000000000003553e+00,1.443750000000000711e+01,5.125000000000001776e+00,-6.000000000000003553e+00,-8.937500000000003553e+00,-7.437500000000003553e+00,-2.437500000000001332e+00,0.000000000000000000e+00,-3.062500000000000888e+00,-5.687500000000001776e+00,3.312500000000002665e+00,1.562500000000000711e+01,7.937500000000002665e+00,-2.937500000000001776e+00,1.499999999999999778e+00,-7.500000000000004441e-01,-7.750000000000003553e+00,-5.812500000000002665e+00,-5.625000000000004441e-01,2.500000000000000000e-01,-7.687500000000003553e+00,-5.375000000000003553e+00,8.375000000000003553e+00,8.937500000000003553e+00,-1.750000000000000888e+00,-5.000000000000001776e+00,1.812500000000001332e+00,-9.375000000000000000e-01,-1.112500000000000533e+01,-5.250000000000002665e+00,1.100000000000000533e+01,1.387500000000000533e+01,-1.062500000000000000e+00,-1.006250000000000355e+01,-7.500000000000003553e+00,-8.812500000000003553e+00,3.750000000000000888e+00,2.537500000000001066e+01,1.156250000000000533e+01,-1.462500000000000533e+01,-8.375000000000003553e+00,5.062500000000002665e+00,9.062500000000003553e+00,7.312500000000003553e+00,-1.050000000000000711e+01,-1.512500000000000888e+01,1.187500000000000533e+01,2.300000000000001066e+01,-5.937500000000003553e+00,-2.293750000000001066e+01,-1.625000000000000000e+00,8.000000000000003553e+00,-3.812500000000001776e+00,-9.312500000000003553e+00,-5.125000000000001776e+00,1.068750000000000533e+01,1.537500000000000711e+01,-2.937500000000001776e+00,-1.412500000000000711e+01,-5.500000000000002665e+00,6.250000000000000000e-02,-5.500000000000002665e+00,1.562500000000000888e+00,1.137500000000000533e+01,5.937500000000002665e+00,1.937500000000000888e+00,-3.375000000000000888e+00,-1.156250000000000533e+01,-1.750000000000001776e+00,6.187500000000002665e+00,-8.125000000000003553e+00,-7.750000000000002665e+00,1.356250000000000711e+01,2.006250000000000711e+01,2.750000000000001776e+00,-1.456250000000000533e+01,-5.000000000000001776e+00,1.056250000000000533e+01,1.093750000000000533e+01,3.937500000000001776e+00,-1.543750000000000711e+01,-2.281250000000001066e+01,1.125000000000000000e+00,1.706250000000000711e+01,6.187500000000002665e+00,-9.000000000000003553e+00,-1.056250000000000533e+01,3.125000000000000000e-01,2.812500000000000888e+00,-5.625000000000005551e-01,5.437500000000002665e+00,-4.374999999999991118e-01,-7.000000000000001776e+00,1.100000000000000711e+01,1.087500000000000711e+01,-1.256250000000000711e+01,-1.000000000000000533e+01,8.437500000000003553e+00,1.231250000000000533e+01,3.812500000000000888e+00,-7.312500000000003553e+00,-1.137500000000000355e+01,-5.375000000000001776e+00,6.125000000000003553e+00,1.118750000000000533e+01,1.625000000000000000e+00,-5.875000000000003553e+00,-9.375000000000004441e-01,5.187500000000002665e+00,1.687500000000000888e+00,-9.812500000000003553e+00,-5.812500000000002665e+00,3.250000000000001776e+00,-6.687500000000002665e+00,-6.625000000000003553e+00,7.000000000000001776e+00,8.625000000000003553e+00,5.625000000000004441e-01,-6.937500000000003553e+00,-6.250000000000008882e-01,1.837500000000000711e+01,1.962500000000001066e+01
-8.750000000000001776e+00,-2.025000000000000355e+01,1.000000000000000178e+01,1.175000000000000355e+01,-1.625000000000000355e+01,-6.500000000000000888e+00,1.750000000000000355e+01,-2.500000000000000000e-01,-1.225000000000000355e+01,4.750000000000000888e+00,6.000000000000000888e+00,-1.550000000000000355e+01,1.950000000000000355e+01,-2.475000000000000711e+01,2.775000000000000711e+01,-2.225000000000000711e+01,9.250000000000001776e+00,1.125000000000000178e+01,-2.275000000000000711e+01,1.200000000000000355e+01,1.300000000000000355e+01,-1.575000000000000355e+01,3.500000000000000888e+00,-1.325000000000000355e+01,2.500000000000000711e+01,-2.600000000000000711e+01,2.300000000000000711e+01,-5.250000000000000888e+00,-1.400000000000000355e+01,5.500000000000000888e+00,4.500000000000000888e+00,1.275000000000000355e+01,-2.425000000000000711e+01,1.025000000000000178e+01,5.250000000000000888e+00,3.500000000000000888e+00,-1.950000000000000711e+01,2.250000000000000711e+01,-1.050000000000000178e+01,-1.275000000000000355e+01,2.150000000000000711e+01,-1.700000000000000355e+01,1.750000000000000355e+01,-1.225000000000000355e+01,-1.750000000000000000e+00,8.500000000000001776e+00,-1.100000000000000355e+01,1.350000000000000355e+01,-1.175000000000000355e+01,5.250000000000000888e+00,7.250000000000001776e+00,-7.000000000000001776e+00,-7.250000000000001776e+00,1.800000000000000355e+01,-2.025000000000000355e+01,2.175000000000000711e+01,-1.425000000000000355e+01,2.750000000000000888e+00,-1.375000000000000355e+01,2.050000000000000711e+01,-1.525000000000000355e+01,1.250000000000000355e+01,4.250000000000000888e+00,-1.125000000000000178e+01,-6.250000000000001776e+00,9.250000000000001776e+00,1.150000000000000355e+01,-2.625000000000000711e+01,2.800000000000000711e+01,-2.175000000000000711e+01,2.500000000000000888e+00,1.450000000000000355e+01,-1.825000000000000355e+01,1.750000000000000355e+01,-1.675000000000000355e+01,1.550000000000000355e+01,-1.425000000000000355e+01,1.575000000000000355e+01,-6.500000000000001776e+00,-1.200000000000000178e+01,1.350000000000000355e+01,-7.500000000000000000e-01,3.500000000000000888e+00,-8.000000000000001776e+00,3.500000000000000888e+00,-1.175000000000000178e+01,1.900000000000000355e+01,-2.000000000000000355e+01,2.025000000000000355e+01,-1.200000000000000178e+01,-1.000000000000000444e+00,-1.250000000000000000e+00,7.500000000000001776e+00,6.750000000000001776e+00,-1.425000000000000355e+01,9.750000000000001776e+00,-1.175000000000000355e+01,1.000000000000000355e+01,-1.175000000000000355e+01,6.000000000000001776e+00,5.250000000000000888e+00,-3.750000000000000888e+00,-1.500000000000000222e+00,1.525000000000000355e+01,-2.575000000000000711e+01,1.875000000000000355e+01,-4.250000000000000000e+00,5.500000000000001776e+00,-2.150000000000000711e+01,2.200000000000000711e+01,-1.500000000000000000e+00,-1.250000000000000355e+01,8.250000000000001776e+00,2.750000000000000444e+00,-1.650000000000000355e+01,1.075000000000000355e+01,1.025000000000000178e+01,-5.500000000000000888e+00,-4.000000000000000888e+00,-2.500000000000001110e-01,-8.750000000000001776e+00,1.000000000000000178e+01,1.750000000000000444e+00,6.750000000000001776e+00,-1.325000000000000355e+01,5.000000000000000000e-01,1.050000000000000355e+01,-1.775000000000000355e+01,1.525000000000000355e+01,3.250000000000000888e+00,-1.950000000000000711e+01,2.125000000000000711e+01,-1.875000000000000355e+01,9.500000000000001776e+00,8.750000000000001776e+00,-5.500000000000000888e+00,-1.275000000000000355e+01,2.175000000000000711e+01,-2.075000000000000711e+01,2.500000000000000000e+00,6.250000000000001776e+00,7.250000000000001776e+00,-1.750000000000000888e+00,-1.375000000000000355e+01,1.725000000000000355e+01,-2.075000000000000355e+01,2.050000000000000355e+01,-4.750000000000000888e+00,-1.150000000000000355e+01,7.500000000000001776e+00,5.000000000000000888e+00,-5.500000000000000888e+00,-1.275000000000000355e+01,1.750000000000000355e+01,5.000000000000000888e+00,-1.725000000000000355e+01,1.550000000000000355e+01,-2.200000000000000711e+01,2.525000000000000711e+01,-1.025000000000000178e+01,-1.475000000000000355e+01,2.650000000000000711e+01,-2.700000000000000711e+01,2.000000000000000355e+01,-6.500000000000000888e+00,8.000000000000001776e+00,-1.700000000000000355e+01,5.500000000000000888e+00,1.425000000000000355e+01,-9.500000000000001776e+00,-5.000000000000000888e+00,1.325000000000000355e+01,-2.000000000000000000e+00,-1.625000000000000355e+01,2.325000000000000711e+01,-2.100000000000000711e+01,3.500000000000000888e+00,1.450000000000000355e+01,-1.175000000000000178e+01,-7.750000000000001776e+00,1.650000000000000355e+01,-1.500000000000000000e+00,-1.825000000000000711e+01,1.725000000000000355e+01,-5.000000000000000000e-01,-1.025000000000000178e+01,2.500000000000000000e-01,1.250000000000000355e+01,-4.500000000000001776e+00,-1.175000000000000178e+01,1.225000000000000355e+01,7.000000000000000888e+00,-1.375000000000000355e+01,-5.000000000000000888e+00,8.750000000000001776e+00,9.750000000000001776e+00,-2.225000000000000711e+01,2.000000000000000711e+01,2.500000000000000000e-01,-2.325000000000000711e+01,2.400000000000000711e+01,-3.250000000000000888e+00,-1.850000000000000355e+01,1.600000000000000355e+01,5.500000000000001776e+00,-1.925000000000000355e+01,1.475000000000000355e+01,-4.500000000000000888e+00,-1.325000000000000355e+01,2.875000000000000711e+01,-1.700000000000000355e+01,-1.000000000000000355e+01,2.475000000000000711e+01,-1.075000000000000355e+01,-1.250000000000000178e+01,6.000000000000000888e+00,1.525000000000000355e+01,-8.500000000000001776e+00,-1.450000000000000355e+01,2.275000000000000711e+01,-6.500000000000000888e+00,-1.750000000000000355e+01,2.150000000000000711e+01,-7.500000000000001776e+00,-1.000000000000000222e+00,1.250000000000000178e+01,-1.000000000000000178e+01,-3.000000000000000888e+00,1.100000000000000178e+01,-2.075000000000000355e+01,7.750000000000000888e+00,9.250000000000003553e+00,-8.750000000000001776e+00,1.825000000000000355e+01,-3.200000000000000711e+01,2.925000000000000711e+01,-1.425000000000000355e+01,-1.750000000000000444e+00,1.175000000000000355e+01,-2.275000000000000711e+01,2.000000000000000355e+01,7.500000000000008882e-01,-1.550000000000000355e+01,1.150000000000000178e+01,2.000000000000000444e+00,-1.950000000000000355e+01,3.075000000000000711e+01,-2.125000000000000355e+01,-6.250000000000000888e+00,2.100000000000000355e+01,-1.000000000000000000e+00,-1.025000000000000178e+01,-9.000000000000001776e+00,8.750000000000001776e+00,1.825000000000000355e+01,-3.075000000000000711e+01,2.975000000000000711e+01,-2.075000000000000355e+01,-6.250000000000002665e+00,2.875000000000000711e+01,-2.450000000000000711e+01,-1.500000000000000000e+00,2.550000000000000711e+01,-2.550000000000000711e+01,2.250000000000000000e+00,2.125000000000000711e+01,-3.150000000000000711e+01,3.300000000000000711e+01,-2.175000000000000711e+01,-4.500000000000000000e+00,1.400000000000000355e+01,-6.750000000000001776e+00,8.750000000000001776e+00,-4.250000000000000888e+00,8.750000000000001776e+00,-9.750000000000001776e+00,0.000000000000000000e+00,-1.000000000000000222e+00,-1.325000000000000355e+01,2.975000000000000711e+01,-1.825000000000000355e+01,-1.075000000000000355e+01,2.600000000000000711e+01,-1.000000000000000355e+01,-1.800000000000000355e+01,1.675000000000000355e+01,9.500000000000001776e+00,-9.500000000000001776e+00,-6.250000000000001776e+00,1.100000000000000355e+01,-1.775000000000000355e+01,1.225000000000000178e+01,-5.250000000000000888e+00,1.600000000000000355e+01,-1.375000000000000178e+01,-9.750000000000003553e+00,2.475000000000000711e+01,-1.625000000000000355e+01,-1.075000000000000355e+01,3.025000000000000711e+01,-2.575000000000000711e+01,3.500000000000000000e+00,2.325000000000000711e+01,-2.300000000000000711e+01,1.300000000000000355e+01,-1.425000000000000355e+01,2.750000000000000888e+00,1.500000000000000355e+01,-1.875000000000000355e+01,1.250000000000000355e+01,-1.000000000000000000e+00,-1.800000000000000355e+01,2.075000000000000711e+01,-9.500000000000003553e+00,1.750000000000000444e+00,1.250000000000000178e+01,-1.375000000000000355e+01,7.500000000000001776e+00,-1.925000000000000355e+01,1.375000000000000355e+01,3.500000000000000888e+00,-5.250000000000000888e+00,1.250000000000000000e+00,-7.500000000000000000e-01,1.700000000000000355e+01,-1.750000000000000355e+01,-2.250000000000000444e+00,1.325000000000000355e+01,-2.025000000000000711e+01,9.250000000000003553e+00,1.275000000000000178e+01,-1.600000000000000355e+01,5.000000000000008882e-01,8.750000000000001776e+00,3.250000000000000888e+00,-1.175000000000000355e+01,1.575000000000000355e+01,-1.750000000000000355e+01,1.600000000000000355e+01,-1.725000000000000355e+01,-1.750000000000000000e+00,2.100000000000000355e+01,-6.750000000000000888e+00,-1.975000000000000355e+01,2.925000000000000711e+01,-2.500000000000000711e+01,2.350000000000000711e+01,-3.500000000000000711e+01,3.175000000000000711e+01,-9.500000000000001776e+00,-1.750000000000000444e+00,8.500000000000001776e+00,-1.875000000000000711e+01,2.175000000000000711e+01,1.025000000000000178e+01,-2.325000000000000355e+01,-3.250000000000000888e+00,1.850000000000000355e+01,-1.150000000000000178e+01,1.500000000000000355e+01,-1.025000000000000355e+01,7.500000000000000000e-01,-3.250000000000000444e+00,-9.000000000000001776e+00,1.750000000000000355e+01,-3.250000000000000000e+00,-1.425000000000000355e+01,2.425000000000000711e+01,-3.225000000000000711e+01,2.750000000000000711e+01,1.425000000000000355e+01,-3.450000000000000711e+01,-2.500000000000000000e-01,1.350000000000000355e+01,-1.725000000000000355e+01,6.500000000000000888e+00,5.425000000000001421e+01,-7.275000000000001421e+01,3.225000000000000711e+01,-1.400000000000000355e+01,1.925000000000000355e+01,-2.850000000000000711e+01,2.500000000000000711e+01,-1.475000000000000355e+01,-1.425000000000000355e+01,2.950000000000000711e+01,-1.950000000000000355e+01,1.575000000000000355e+01,1.150000000000000178e+01,-3.750000000000000711e+01,2.700000000000000711e+01,-1.450000000000000355e+01,1.075000000000000355e+01,2.500000000000000888e+00,-1.025000000000000355e+01,9.250000000000003553e+00,-1.325000000000000355e+01,-7.500000000000001776e+00,2.800000000000000711e+01,-4.000000000000001421e+01,2.000000000000000711e+01,4.150000000000000711e+01,-5.075000000000001421e+01,1.875000000000000355e+01,-1.325000000000000178e+01,4.750000000000000888e+00,1.275000000000000355e+01,-1.850000000000000355e+01,2.125000000000000355e+01,-2.800000000000000711e+01,1.125000000000000178e+01,2.750000000000000711e+01,-2.400000000000000355e+01,1.500000000000000444e+00,-2.050000000000000355e+01,1.975000000000000355e+01,9.250000000000001776e+00,-1.400000000000000355e+01,-4.000000000000000000e+00,6.750000000000000888e+00,2.500000000000000000e-01,1.850000000000000355e+01,-9.750000000000003553e+00,-2.725000000000000355e+01,2.225000000000000355e+01,-3.250000000000000888e+00,1.350000000000000355e+01,-6.750000000000001776e+00,-3.200000000000000711e+01,4.175000000000001421e+01,-2.525000000000000711e+01,-7.500000000000000000e-01,1.600000000000000355e+01,6.500000000000001776e+00,-1.750000000000000000e+00,-2.975000000000000711e+01,2.450000000000000355e+01,1.025000000000000355e+01,-1.500000000000000355e+01,-9.750000000000003553e+00,1.525000000000000355e+01,-1.175000000000000178e+01,1.775000000000000355e+01,-1.025000000000000178e+01,6.250000000000001776e+00,-2.050000000000000355e+01,6.750000000000001776e+00,1.475000000000000355e+01,-1.575000000000000355e+01,1.625000000000000355e+01,-2.225000000000000711e+01,2.000000000000000355e+01,8.750000000000003553e+00,-2.575000000000000711e+01,1.900000000000000711e+01,5.750000000000000000e+00,-2.325000000000000355e+01,-2.500000000000000000e-01,1.625000000000000355e+01,-5.000000000000000888e+00,2.000000000000000444e+00,-5.250000000000001776e+00,5.750000000000001776e+00,-1.600000000000000355e+01,3.075000000000000711e+01,-1.950000000000000355e+01,-4.500000000000001776e+00,5.250000000000001776e+00,5.500000000000001776e+00,7.000000000000000888e+00,-7.500000000000000000e-01,-9.250000000000001776e+00,4.500000000000000888e+00,-1.500000000000000355e+01,1.250000000000000000e+00,1.650000000000000355e+01,-9.500000000000001776e+00,-8.750000000000001776e+00,1.775000000000000355e+01,1.050000000000000178e+01,-2.000000000000000355e+01,-2.475000000000000711e+01,2.800000000000000711e+01,2.375000000000000711e+01,-3.475000000000000711e+01,9.000000000000001776e+00,1.050000000000000178e+01,-1.900000000000000355e+01,1.100000000000000178e+01,4.500000000000001776e+00,1.000000000000000000e+00,-1.750000000000000355e+01,1.000000000000000178e+01,1.125000000000000178e+01,-1.450000000000000355e+01,8.500000000000001776e+00,-1.275000000000000355e+01,-4.250000000000001776e+00,2.200000000000000711e+01,-8.500000000000001776e+00,-6.250000000000000888e+00,1.575000000000000355e+01,-9.000000000000001776e+00,2.000000000000000444e+00,-1.825000000000000355e+01,1.050000000000000355e+01,1.300000000000000355e+01,-1.525000000000000355e+01,1.950000000000000711e+01,-3.275000000000000711e+01,2.050000000000000355e+01,1.875000000000000355e+01,-1.775000000000000355e+01,-2.050000000000000355e+01,3.925000000000000711e+01,-3.700000000000000711e+01,2.125000000000000355e+01,2.000000000000000888e+00,-1.575000000000000355e+01,4.250000000000000888e+00,1.200000000000000355e+01,-6.500000000000001776e+00,4.500000000000000888e+00,-1.225000000000000355e+01,-4.000000000000000000e+00,3.525000000000000711e+01,-3.750000000000001421e+01,3.750000000000001776e+00,7.500000000000001776e+00,-4.750000000000001776e+00,2.125000000000000711e+01,-6.500000000000001776e+00,-2.050000000000000711e+01,1.875000000000000711e+01,-2.750000000000000888e+00,-2.350000000000000355e+01,2.725000000000000711e+01,-3.000000000000000888e+00,-1.650000000000000355e+01,2.425000000000000711e+01,-2.425000000000000711e+01,2.650000000000000711e+01,-2.175000000000000711e+01,-8.750000000000001776e+00,3.775000000000000711e+01,-1.350000000000000178e+01,-1.900000000000000355e+01,1.000000000000000000e+00,2.750000000000000000e+00,1.950000000000000711e+01,-2.300000000000000711e+01,1.750000000000000000e+00,2.200000000000000711e+01,-1.425000000000000355e+01,7.250000000000001776e+00,-1.000000000000000355e+01,8.750000000000001776e+00,-1.050000000000000178e+01,-2.500000000000000888e+00,1.000000000000000178e+01,7.000000000000001776e+00,-1.225000000000000355e+01,-3.000000000000000888e+00,1.100000000000000355e+01,-7.250000000000001776e+00,1.450000000000000355e+01,-2.275000000000000711e+01,4.000000000000000000e+00,2.750000000000000711e+01,-2.050000000000000355e+01,-2.250000000000000444e+00,-1.225000000000000355e+01,2.700000000000000711e+01,-2.100000000000000711e+01,2.025000000000000711e+01,-1.400000000000000355e+01,-5.750000000000001776e+00,5.750000000000001776e+00,3.250000000000000888e+00,6.000000000000001776e+00,-1.100000000000000355e+01,-2.250000000000000888e+00,1.400000000000000355e+01,-6.750000000000001776e+00,-1.400000000000000355e+01,1.250000000000000355e+01,2.275000000000000355e+01,-3.800000000000000711e+01,1.775000000000000355e+01,5.000000000000000000e-01,9.750000000000003553e+00,-1.825000000000000355e+01,-2.500000000000000888e+00,1.975000000000000355e+01,-1.600000000000000355e+01,-1.125000000000000355e+01,5.925000000000001421e+01,-6.925000000000001421e+01,2.100000000000000711e+01,2.825000000000000355e+01,-3.825000000000000711e+01,2.275000000000000711e+01,-1.125000000000000355e+01,1.550000000000000355e+01,-1.000000000000000355e+01,-1.950000000000000355e+01,1.225000000000000355e+01,2.375000000000000355e+01,-3.075000000000000711e+01,4.375000000000001421e+01,-5.575000000000001421e+01,3.850000000000001421e+01,-3.200000000000000711e+01,2.725000000000000711e+01,-3.075000000000000711e+01,5.525000000000001421e+01,-2.575000000000000711e+01,-2.025000000000000355e+01,2.125000000000000355e+01,-2.400000000000000711e+01,2.525000000000000711e+01,-6.750000000000000888e+00,-9.250000000000001776e+00,2.525000000000000355e+01,-3.650000000000000711e+01,2.275000000000000711e+01,-7.500000000000008882e-01,-2.350000000000000355e+01,2.900000000000000711e+01,-1.475000000000000355e+01,1.275000000000000355e+01,-1.725000000000000355e+01,1.850000000000000355e+01,-1.875000000000000355e+01,5.000000000000000000e-01,8.750000000000001776e+00,1.775000000000000355e+01,-3.750000000000000711e+01,1.825000000000000355e+01,1.700000000000000355e+01,-2.475000000000000711e+01,1.675000000000000355e+01,-8.500000000000001776e+00,1.225000000000000355e+01,-7.250000000000002665e+00,-2.150000000000000355e+01,1.000000000000000178e+01,2.400000000000000711e+01,-6.750000000000001776e+00,-1.750000000000000355e+01,-6.000000000000001776e+00,2.400000000000000711e+01,1.000000000000001776e+00,-2.125000000000000711e+01,-3.500000000000001776e+00,3.025000000000000711e+01,2.500000000000000000e+00,-3.175000000000000711e+01,2.600000000000000711e+01,-1.025000000000000355e+01,-1.925000000000000355e+01,3.125000000000000711e+01,-3.475000000000000711e+01,2.200000000000000355e+01,1.675000000000000355e+01,-3.525000000000000711e+01,3.050000000000000711e+01,-3.175000000000000711e+01,1.200000000000000355e+01,1.650000000000000355e+01,-2.975000000000000711e+01,2.875000000000000711e+01,-2.500000000000000711e+01,1.000000000000000000e+00,2.250000000000000711e+01,-2.100000000000000355e+01,2.475000000000000711e+01,-2.200000000000000711e+01,1.725000000000000355e+01,-2.100000000000000711e+01,1.825000000000000355e+01,1.200000000000000355e+01,-2.625000000000000711e+01,2.450000000000000711e+01,4.500000000000000000e+00,-3.825000000000000711e+01,3.450000000000000711e+01,-9.500000000000001776e+00,-2.925000000000000711e+01,3.550000000000000711e+01,-2.675000000000000711e+01,-2.750000000000000000e+00,3.350000000000000711e+01,-2.300000000000000355e+01,-1.100000000000000355e+01,3.700000000000000711e+01,-1.675000000000000355e+01,-1.900000000000000355e+01,3.025000000000000711e+01,-2.100000000000000711e+01,-1.750000000000000000e+00,4.425000000000000711e+01,3.000000000000000000e+00,-4.175000000000000711e+01,-1.650000000000000355e+01,2.175000000000000355e+01,4.750000000000000888e+00,5.000000000000001776e+00,-3.075000000000000711e+01,4.700000000000001421e+01,-2.875000000000000711e+01,-5.000000000000001110e-01,5.000000000000001110e-01,-5.000000000000001110e-01,2.500000000000000555e-01,0.000000000000000000e+00,0.000000000000000000e+00,0.000000000000000000e+00,0.000000000000000000e+00,0.000000000000000000e+00,0.000000000000000000e+00,0.000000000000000000e+00,0.000000000000000000e+00,0.000000000000000000e+00,2.500000000000000555e-01,-7.500000000000002220e-01,7.500000000000002220e-01,-2.500000000000000555e-01,0.000000000000000000e+00,0.000000000000000000e+00,0.000000000000000000e+00,0.000000000000000000e+00,0.000000000000000000e+00,-2.500000000000000555e-01,5.000000000000001110e-01,-5.000000000000001110e-01,5.000000000000001110e-01,-7.500000000000002220e-01,1.250000000000000444e+00,-1.000000000000000222e+00,2.500000000000000555e-01,2.500000000000000555e-01,-5.000000000000001110e-01,5.000000000000001110e-01,-5.000000000000001110e-01,0.000000000000000000e+00,5.000000000000001110e-01,-2.500000000000000555e-01,0.000000000000000000e+00,0.000000000000000000e+00,-2.500000000000000555e-01,5.000000000000001110e-01,-2.500000000000000555e-01,0.000000000000000000e+00,0.000000000000000000e+00,2.500000000000000555e-01,-5.000000000000001110e-01,2.500000000000000555e-01,0.000000000000000000e+00,-5.000000000000001110e-01,7.500000000000002220e-01,-2.500000000000000555e-01,0.000000000000000000e+00,5.000000000000001110e-01,-7.500000000000002220e-01,2.500000000000000555e-01,0.000000000000000000e+00,0.000000000000000000e+00,0.000000000000000000e+00,0.000000000000000000e+00,0.000000000000000000e+00,0.000000000000000000e+00,0.000000000000000000e+00,0.000000000000000000e+00,0.000000000000000000e+00,-2.500000000000000555e-01,7.500000000000002220e-01,-1.000000000000000222e+00,-3.500000000000000888e+00,-1.400000000000000355e+01,2.200000000000000355e+01,-2.075000000000000355e+01,2.125000000000000355e+01,-1.850000000000000355e+01,1.400000000000000355e+01,-2.850000000000000711e+01,3.725000000000000711e+01,-1.500000000000000000e+00,-3.075000000000000711e+01,9.500000000000000000e+00,2.100000000000000711e+01,2.750000000000000000e+00,-3.250000000000000711e+01,3.825000000000000711e+01,-2.850000000000000711e+01,2.050000000000000711e+01,-4.025000000000000711e+01,2.000000000000000355e+01,1.650000000000000355e+01,-5.750000000000001776e+00,-7.000000000000001776e+00,2.275000000000000711e+01,-3.850000000000001421e+01,3.125000000000000711e+01,-7.500000000000008882e-01,-3.050000000000000711e+01,2.800000000000000711e+01,-1.300000000000000355e+01,1.525000000000000355e+01,-2.000000000000000000e+00,5.000000000000000888e+00,-2.250000000000000711e+01,7.000000000000001776e+00,1.600000000000000355e+01,-5.250000000000000888e+00,-2.525000000000000355e+01,2.075000000000000355e+01,-5.500000000000001776e+00,-1.350000000000000178e+01,2.400000000000000355e+01,-2.475000000000000355e+01,-2.500000000000000000e-01,2.025000000000000355e+01,-5.000000000000001110e-01,1.000000000000000222e+00,-2.500000000000000555e-01,5.000000000000001110e-01,-5.000000000000001110e-01,5.000000000000001110e-01,-2.500000000000000555e-01,0.000000000000000000e+00,7.500000000000002220e-01,-2.500000000000001110e-01,-7.500000000000002220e-01,1.500000000000000222e+00,-1.500000000000000222e+00,-1.000000000000000222e+00,1.000000000000000222e+00,2.500000000000000555e-01,0.000000000000000000e+00,0.000000000000000000e+00,0.000000000000000000e+00,0.000000000000000000e+00,-2.500000000000000555e-01,5.000000000000001110e-01,-2.500000000000000555e-01,-2.500000000000000555e-01,2.500000000000000555e-01,2.500000000000000555e-01,-5.000000000000001110e-01,2.500000000000000555e-01,5.000000000000001110e-01,-5.000000000000001110e-01,2.500000000000000555e-01,-5.000000000000001110e-01,7.500000000000002220e-01,-2.500000000000000555e-01,1.250000000000000444e+00,-2.250000000000000888e+00,1.100000000000000178e+01,-8.000000000000001776e+00,-9.750000000000001776e+00,2.350000000000000711e+01,-3.275000000000000711e+01,1.950000000000000355e+01,-4.250000000000000888e+00,2.000000000000000444e+00,1.600000000000000355e+01,-2.275000000000000711e+01,-6.000000000000001776e+00,2.600000000000000711e+01,-2.975000000000000711e+01,1.975000000000000355e+01,8.500000000000003553e+00,-2.450000000000000711e+01,1.275000000000000355e+01,1.750000000000000444e+00,-1.750000000000000444e+00,-6.250000000000000888e+00,1.825000000000000355e+01,-4.250000000000001776e+00,-8.000000000000001776e+00,1.125000000000000178e+01,-2.225000000000000355e+01,2.200000000000000355e+01,-2.125000000000000355e+01,2.100000000000000355e+01,-2.225000000000000355e+01,1.375000000000000178e+01,-7.000000000000001776e+00,2.675000000000000355e+01,-3.525000000000000711e+01,2.650000000000000711e+01,-6.250000000000001776e+00,-1.375000000000000355e+01,1.875000000000000711e+01,-2.500000000000000711e+01,2.550000000000000711e+01,-1.550000000000000355e+01,-8.750000000000001776e+00,2.025000000000000355e+01,-1.350000000000000355e+01,1.650000000000000355e+01,-2.150000000000000355e+01,1.375000000000000355e+01,1.500000000000000000e+00,-1.175000000000000355e+01,7.500000000000008882e-01,3.250000000000000444e+00,7.000000000000001776e+00,5.250000000000000888e+00,-2.125000000000000355e+01,1.800000000000000355e+01,-1.275000000000000355e+01,-7.250000000000001776e+00,1.950000000000000711e+01,1.350000000000000178e+01,-2.775000000000000711e+01,5.500000000000001776e+00,1.250000000000000178e+01,-1.900000000000000355e+01,2.700000000000000711e+01,-1.325000000000000355e+01,-1.625000000000000355e+01,1.350000000000000178e+01,9.000000000000001776e+00,8.750000000000001776e+00,-3.475000000000000711e+01,1.325000000000000355e+01,1.975000000000000355e+01,-3.475000000000000711e+01,3.425000000000000711e+01,-3.600000000000000711e+01,2.050000000000000355e+01,1.125000000000000355e+01,-1.550000000000000355e+01,1.000000000000000178e+01,-2.425000000000000711e+01,3.125000000000000711e+01,-2.600000000000000711e+01,3.750000000000000000e+00,1.825000000000000355e+01,-1.650000000000000355e+01,1.300000000000000355e+01,-6.000000000000001776e+00,1.500000000000000222e+00,-1.900000000000000355e+01,3.175000000000000711e+01,-2.000000000000000355e+01,-1.125000000000000355e+01,2.450000000000000711e+01,-1.325000000000000355e+01,2.525000000000000355e+01,-2.800000000000000711e+01,0.000000000000000000e+00,2.200000000000000711e+01,-2.125000000000000711e+01,2.325000000000000711e+01,-9.750000000000001776e+00,-2.175000000000000711e+01,1.200000000000000355e+01,7.000000000000001776e+00,1.250000000000000000e+00,-5.000000000000000888e+00,-2.750000000000000444e+00,-7.000000000000001776e+00,2.100000000000000355e+01,-2.475000000000000711e+01,1.500000000000000355e+01,9.250000000000001776e+00,-2.725000000000000711e+01,1.650000000000000355e+01,1.750000000000000355e+01,-2.525000000000000711e+01,7.500000000000000000e-01,1.175000000000000355e+01,-8.000000000000001776e+00,1.750000000000000355e+01,-2.050000000000000355e+01,1.250000000000000355e+01,-1.825000000000000355e+01,1.700000000000000355e+01,-9.500000000000001776e+00,2.100000000000000355e+01,-3.200000000000000711e+01,2.950000000000000711e+01,-2.400000000000000711e+01,2.225000000000000711e+01,-1.025000000000000355e+01,-1.925000000000000355e+01,3.425000000000000711e+01,-2.600000000000000711e+01,-1.250000000000000000e+00,1.650000000000000355e+01,-1.525000000000000355e+01,2.100000000000000711e+01,-2.275000000000000711e+01,1.175000000000000178e+01,-7.000000000000001776e+00,2.500000000000000355e+01
