1.560737500000001319e+02,1.772612500000001319e+02,1.948237500000001887e+02,2.090893750000001887e+02,2.208862500000001887e+02,2.293081250000001887e+02,2.341675000000001887e+02,2.355112500000001887e+02,2.323081250000001887e+02,2.292925000000001887e+02,2.269175000000001887e+02,2.238550000000001887e+02,2.203706250000001887e+02,2.170581250000001887e+02,2.126831250000001887e+02,2.074018750000001887e+02,2.023393750000001887e+02,1.960737500000001887e+02,1.882612500000001887e+02,1.799800000000001319e+02,1.716206250000001035e+02,1.613393750000001035e+02,1.500425000000001035e+02,1.381518750000001035e+02,1.254331250000001035e+02,1.137612500000001035e+02,1.019331250000001035e+02,9.040187500000007503e+01,7.799562500000007503e+01,6.773000000000006082e+01,5.912062500000006082e+01,5.165187500000006082e+01,4.624562500000005372e+01,4.115187500000004661e+01,3.810500000000003951e+01,3.615187500000003951e+01,3.591750000000003951e+01,3.423000000000003951e+01,3.180812500000003951e+01,2.866750000000003951e+01,2.357375000000003240e+01,1.723000000000002885e+01,8.886250000000023519e+00,-8.481249999999822542e-01,-1.258249999999998892e+01,-2.433249999999999602e+01,-3.572312500000000313e+01,-4.645750000000001023e+01,-5.608250000000002444e+01,-6.553562500000002444e+01,-7.298875000000002444e+01,-7.864500000000002444e+01,-8.211375000000002444e+01,-8.320750000000002444e+01,-8.358250000000002444e+01,-8.294187500000002444e+01,-8.161375000000002444e+01,-7.900437500000002444e+01,-7.766062500000002444e+01,-7.803562500000002444e+01,-7.873875000000002444e+01,-8.156687500000002444e+01,-8.527000000000002444e+01,-8.973875000000003865e+01,-9.580125000000006708e+01,-1.019887500000000671e+02,-1.075981250000000671e+02,-1.109418750000000671e+02,-1.146137500000000671e+02,-1.162856250000000671e+02,-1.158325000000000671e+02,-1.142700000000000671e+02,-1.103012500000000671e+02,-1.055825000000000671e+02,-9.861375000000006708e+01,-9.195750000000005286e+01,-8.420750000000003865e+01,-7.650437500000002444e+01,-6.961375000000002444e+01,-6.395750000000002444e+01,-5.922312500000002444e+01,-5.497312500000002444e+01,-5.305125000000002444e+01,-5.220750000000002444e+01,-5.169187500000002444e+01,-5.248875000000002444e+01,-5.448875000000002444e+01,-5.562937500000002444e+01,-5.737937500000002444e+01,-5.975437500000002444e+01,-6.152000000000002444e+01,-6.259812500000002444e+01,-6.456687500000002444e+01,-6.548875000000002444e+01,-6.517625000000002444e+01,-6.459812500000002444e+01,-6.311375000000002444e+01,-6.095750000000002444e+01,-5.859812500000002444e+01,-5.503562500000002444e+01,-4.902000000000001734e+01,-4.216062500000001023e+01,-3.417625000000000313e+01,-2.611374999999999602e+01,-1.645749999999998892e+01,-5.129374999999983586e+00,6.917500000000024407e+00,1.858937500000003240e+01,2.930812500000003595e+01,3.882375000000004661e+01,4.712062500000005372e+01,5.491750000000006082e+01,6.082375000000006082e+01,6.443312500000006082e+01,6.665187500000006082e+01,6.715187500000006082e+01,6.499562500000006082e+01,6.179250000000006082e+01,5.721437500000006082e+01,5.146437500000006082e+01,4.448000000000005372e+01,3.646437500000004661e+01,2.757375000000003595e+01,1.866750000000002885e+01,1.158937500000002530e+01,4.839375000000021743e+00,-1.785624999999982698e+00,-8.254374999999987139e+00,-1.436374999999999069e+01,-2.023874999999999602e+01,-2.509812499999999602e+01,-3.037937500000000313e+01,-3.781687500000001023e+01,-4.580125000000001734e+01,-5.361375000000002444e+01,-6.177000000000002444e+01,-7.053562500000002444e+01,-7.794187500000002444e+01,-8.430125000000002444e+01,-8.773875000000002444e+01,-8.605125000000002444e+01,-8.033250000000002444e+01,-7.162937500000002444e+01,-5.905125000000002444e+01,-4.398875000000001023e+01,-2.925437499999999602e+01,-1.705124999999999247e+01,-9.379374999999988916e+00,-8.035624999999987139e+00,-1.289499999999998892e+01,-2.298874999999999602e+01,-3.820750000000000313e+01,-5.605125000000001734e+01,-7.386375000000003865e+01,-8.947312500000003865e+01,-1.012075000000000671e+02,-1.081606250000000671e+02,-1.110200000000000671e+02,-1.106918750000000671e+02,-1.091293750000000671e+02,-1.072075000000000671e+02,-1.083012500000000671e+02,-1.151293750000000671e+02,-1.286137500000000671e+02,-1.500512500000000671e+02,-1.780512500000000955e+02,-2.107543750000001523e+02,-2.443168750000001523e+02,-2.768168750000001523e+02,-3.032700000000001523e+02,-3.153950000000001523e+02,-3.115356250000001523e+02,-2.895825000000001523e+02,-2.489887500000001523e+02,-1.910668750000000955e+02,-1.222856250000000387e+02,-4.744187500000000313e+01,2.790187500000003951e+01,9.266750000000007503e+01,1.441362500000001319e+02,1.801050000000001603e+02,1.975425000000001887e+02,1.966987500000001887e+02,1.841518750000001603e+02,1.636675000000001319e+02,1.380112500000001035e+02,1.122925000000001035e+02,8.904250000000007503e+01,6.896437500000007503e+01,5.360500000000005372e+01,4.288625000000004661e+01,3.341750000000003951e+01,2.440187500000003240e+01,1.613625000000002885e+01,9.308125000000023519e+00,1.808125000000019078e+00,-6.269999999999985363e+00,-1.291062499999998892e+01,-1.872312499999999247e+01,-2.166062499999999602e+01,-2.156687499999999602e+01,-1.895749999999999247e+01,-1.556687499999999247e+01,-9.426249999999988916e+00,-8.249999999998225420e-02,9.636250000000025295e+00,2.008937500000003240e+01,2.933937500000003951e+01,3.704250000000004661e+01,4.319875000000004661e+01,4.824562500000006082e+01,5.133937500000006082e+01,5.118312500000006082e+01,4.916750000000006082e+01,4.651125000000005372e+01,4.358937500000004661e+01,3.951125000000004661e+01,3.501125000000003951e+01,3.116750000000003951e+01,2.662062500000003951e+01,2.373000000000003595e+01,2.190187500000003240e+01,1.988625000000002885e+01,1.810500000000002885e+01,1.774562500000002885e+01,1.743312500000002885e+01,1.612062500000002885e+01,1.576125000000002885e+01,1.488625000000002885e+01,1.365187500000002885e+01,1.224562500000002707e+01,1.041750000000002530e+01,7.855000000000023519e+00,5.495625000000021743e+00,4.323750000000020854e+00,3.823750000000020854e+00,2.683125000000019966e+00,1.761250000000019300e+00,7.612500000000186340e-01,-3.012499999999819211e-01,-1.293749999999818379e-01,-4.374999999981744186e-03,-4.262499999999820322e-01,-1.504374999999982698e+00,-1.801249999999982920e+00,-1.504374999999982920e+00,-1.394999999999982920e+00,-2.387499999999820877e-01,-5.199999999999822542e-01,-2.856249999999821432e-01,1.362500000000181899e-01,-2.543749999999819766e-01,-8.793749999999822542e-01,-2.223124999999983142e+00,-2.488749999999983586e+00,-4.144999999999984475e+00,-5.285624999999985363e+00,-7.676249999999987139e+00,-1.067624999999998892e+01,-1.241062499999998892e+01,-1.425437499999999247e+01,-1.670749999999999247e+01,-1.975437499999999602e+01,-2.209812499999999602e+01,-2.397312499999999957e+01,-2.453562500000000313e+01,-2.419187499999999957e+01,-2.473874999999999957e+01,-2.444187499999999957e+01,-2.341062499999999602e+01,-2.278562499999999602e+01,-2.197312499999999247e+01,-2.205124999999999247e+01,-2.267624999999999247e+01,-2.437937499999999602e+01,-2.541062500000000313e+01,-2.675437500000000313e+01,-2.797312500000000313e+01,-2.836375000000000313e+01,-2.825437500000000313e+01,-2.762937500000000313e+01,-2.648875000000000313e+01,-2.462937500000000313e+01,-2.267624999999999957e+01,-2.091062499999999602e+01,-1.900437499999999247e+01,-1.761374999999999247e+01,-1.656687499999999247e+01,-1.487937499999999247e+01,-1.303562499999999069e+01,-1.031687499999998892e+01,-7.832499999999987139e+00,-5.535624999999985363e+00,-3.457499999999984031e+00,-9.418749999999824762e-01,5.737500000000185230e-01,1.526875000000019078e+00,2.011250000000019078e+00,1.151875000000018856e+00,-2.699999999999820322e-01,-1.144999999999982698e+00,-1.160624999999982698e+00,-1.894999999999982920e+00,-1.223124999999982476e+00,-1.762499999999819211e-01,2.768750000000184119e-01,1.370625000000019078e+00,2.120625000000019522e+00,1.526875000000019078e+00,-1.051249999999982254e+00,-3.910624999999984031e+00,-8.238749999999987139e+00,-1.344187499999998892e+01,-1.798874999999999247e+01,-2.198874999999999602e+01,-2.384812499999999957e+01,-2.386374999999999957e+01,-2.094187499999999602e+01,-1.550437499999999247e+01,-8.082499999999987139e+00,6.675000000000181899e-01,1.052687500000002530e+01,1.948000000000003240e+01,2.823000000000003595e+01,3.635500000000003951e+01,4.266750000000004661e+01,4.755812500000006082e+01,5.151125000000006082e+01,5.457375000000006082e+01,5.644875000000006082e+01,5.804250000000006082e+01,5.804250000000006082e+01,5.765187500000006082e+01,5.615187500000006082e+01,5.341750000000006082e+01,4.935500000000006082e+01,4.404250000000004661e+01,3.666750000000003951e+01,2.896437500000003951e+01,1.840187500000002885e+01,5.276875000000019966e+00,-9.098124999999988916e+00,-2.619187500000000313e+01,-4.512937500000001023e+01,-6.545750000000002444e+01,-8.655125000000003865e+01,-1.102856250000000671e+02,-1.324575000000000671e+02,-1.543168750000000955e+02,-1.764731250000000955e+02,-1.964418750000001523e+02,-2.153168750000001523e+02,-2.334887500000001523e+02,-2.497231250000001523e+02,-2.638793750000001523e+02,-2.776762500000001523e+02,-2.904262500000001523e+02,-3.003481250000001523e+02,-3.095043750000001523e+02,-3.168481250000001523e+02,-3.216918750000001523e+02,-3.260825000000001523e+02,-3.292856250000001523e+02,-3.302231250000001523e+02,-3.287075000000001523e+02,-3.269731250000001523e+02,-3.233950000000001523e+02,-3.189887500000001523e+02,-3.147231250000001523e+02,-3.084731250000001523e+02,-3.006606250000001523e+02,-2.927700000000001523e+02,-2.846450000000001523e+02,-2.764575000000001523e+02,-2.695825000000001523e+02,-2.632075000000001523e+02,-2.574575000000001523e+02,-2.536450000000001523e+02,-2.515200000000001523e+02,-2.502387500000001523e+02,-2.510825000000001523e+02,-2.517387500000001523e+02,-2.521918750000001523e+02,-2.515200000000001523e+02,-2.488481250000001523e+02,-2.443481250000001523e+02,-2.377231250000001523e+02,-2.305981250000001523e+02,-2.208481250000001523e+02,-2.111918750000001523e+02,-2.000825000000001523e+02,-1.906606250000001523e+02,-1.827700000000000955e+02,-1.766450000000000671e+02,-1.712543750000000671e+02,-1.650668750000000671e+02,-1.592543750000000671e+02,-1.521137500000000671e+02,-1.446293750000000671e+02,-1.343637500000000671e+02,-1.226606250000000671e+02,-1.078168750000000671e+02,-9.323875000000003865e+01,-7.858250000000003865e+01,-6.431687500000002444e+01,-5.125437500000001023e+01,-3.941062500000001023e+01,-2.958250000000000313e+01,-1.980124999999999602e+01,-1.220749999999998892e+01,-3.926249999999983586e+00,3.480000000000021299e+00,9.745625000000025295e+00,1.673000000000003240e+01,2.323000000000003240e+01,2.998000000000003951e+01,3.499562500000003951e+01,3.973000000000004661e+01,4.330812500000004661e+01,4.663625000000006082e+01,5.082375000000006082e+01,5.404250000000006082e+01,5.743312500000006082e+01,6.026125000000006082e+01,6.402687500000006082e+01,6.748000000000006082e+01,6.985500000000006082e+01,7.252687500000006082e+01,7.441750000000006082e+01,7.626125000000006082e+01,7.804250000000006082e+01,8.013625000000006082e+01,8.202687500000006082e+01,8.441750000000006082e+01,8.835500000000006082e+01,9.216750000000007503e+01,9.663625000000010346e+01,1.006518750000001035e+02,1.048081250000001035e+02,1.082612500000001035e+02,1.099331250000001035e+02,1.098550000000001035e+02,1.080268750000001035e+02,1.045112500000001035e+02,9.857375000000010346e+01,9.148000000000008924e+01,8.241750000000007503e+01,7.254250000000006082e+01,6.302687500000006082e+01,5.474562500000006082e+01,4.713625000000005372e+01,4.015187500000004661e+01,3.524562500000003951e+01,3.137062500000003951e+01,2.969875000000003951e+01,2.962062500000003951e+01,3.123000000000003951e+01,3.307375000000003951e+01,3.516750000000003951e+01,3.876125000000003951e+01,4.244875000000004661e+01,4.643312500000005372e+01,4.924562500000006082e+01,5.173000000000006082e+01,5.296437500000006082e+01,5.441750000000006082e+01,5.644875000000006082e+01,5.743312500000006082e+01,5.737062500000006082e+01,5.688625000000006082e+01,5.566750000000006082e+01,5.296437500000006082e+01,4.960500000000006082e+01,4.346437500000004661e+01,3.524562500000003951e+01,2.516750000000003240e+01,1.404250000000002530e+01,2.448750000000019522e+00,-9.301249999999988916e+00,-2.128562499999999602e+01,-3.412937500000000313e+01,-4.605125000000001023e+01,-5.903562500000002444e+01,-7.150437500000002444e+01,-8.380125000000003865e+01,-9.792625000000006708e+01,-1.119418750000000671e+02,-1.267231250000000671e+02,-1.415043750000000671e+02,-1.561606250000000671e+02,-1.701762500000000955e+02,-1.853950000000001239e+02,-2.010981250000001523e+02,-2.170825000000001523e+02,-2.356293750000001523e+02,-2.550356250000001523e+02,-2.753012500000001523e+02,-2.974418750000001523e+02,-3.198012500000001523e+02,-3.413481250000001523e+02,-3.631450000000002092e+02,-3.826762500000003229e+02,-3.984262500000003229e+02,-4.110668750000003229e+02,-4.209731250000003229e+02,-4.277700000000003229e+02,-4.324418750000003229e+02,-4.352856250000003229e+02,-4.359262500000003229e+02,-4.359418750000003229e+02,-4.359418750000003229e+02,-4.359575000000003229e+02,-4.359887500000003229e+02,-4.360200000000003229e+02,-4.360825000000003229e+02,-4.361450000000003229e+02,-4.362075000000003229e+02,-4.362543750000003229e+02,-4.362856250000003229e+02,-4.363325000000003229e+02,-4.363637500000003229e+02,-4.363793750000003229e+02,-4.363793750000003229e+02,-4.363793750000003229e+02,-4.363793750000003229e+02,-4.363793750000003229e+02,-4.363793750000003229e+02,-4.363637500000003229e+02,-4.363481250000003229e+02,-4.363012500000003229e+02,-4.345981250000003229e+02,-4.313793750000003229e+02,-4.253793750000003229e+02,-4.166450000000003229e+02,-4.044731250000003229e+02,-3.889106250000003229e+02,-3.685981250000002092e+02,-3.428950000000002092e+02,-3.152543750000001523e+02,-2.843637500000001523e+02,-2.529106250000001523e+02,-2.210512500000001523e+02,-1.893012500000001239e+02,-1.577543750000000955e+02,-1.284575000000000671e+02,-1.026293750000000387e+02,-7.730125000000003865e+01,-5.489500000000001734e+01,-3.317625000000000313e+01,-1.164499999999998714e+01,8.167500000000023519e+00,2.713625000000003240e+01,4.583937500000004661e+01,6.504250000000006082e+01,8.212062500000007503e+01,9.926125000000008924e+01,1.151206250000001035e+02,1.289175000000001035e+02,1.427925000000001035e+02,1.557925000000001035e+02,1.679487500000001035e+02,1.788081250000001319e+02,1.899331250000001887e+02,2.001831250000001887e+02,2.101050000000001887e+02,2.199331250000001887e+02,2.286675000000001887e+02,2.361362500000001887e+02,2.426518750000001887e+02,2.483393750000001887e+02,2.529800000000001887e+02,2.570581250000001887e+02,2.602925000000001887e+02,2.630581250000001887e+02,2.660893750000001887e+02,2.695581250000001887e+02,2.722456250000001887e+02,2.749018750000001887e+02,2.780737500000001887e+02,2.812768750000001887e+02,2.849331250000001887e+02,2.890581250000001887e+02,2.929018750000001887e+02,2.968237500000001887e+02,3.028862500000001887e+02,3.100737500000001887e+02,3.180581250000001887e+02,3.269487500000001887e+02,3.363393750000001887e+02,3.466675000000001887e+02,3.582768750000001887e+02,3.712768750000002456e+02,3.831362500000003593e+02,3.943706250000003593e+02,4.049018750000003593e+02,4.150737500000003593e+02,4.254643750000003593e+02,4.347925000000003593e+02,4.419643750000003593e+02,4.473393750000003593e+02,4.525268750000003593e+02,4.572612500000003593e+02,4.623237500000003593e+02,4.662143750000003593e+02,4.687456250000003593e+02,4.705581250000003593e+02,4.737143750000003593e+02,4.769643750000003593e+02,4.799956250000003593e+02,4.827143750000003593e+02,4.842456250000003593e+02,4.854018750000003593e+02,4.864331250000003593e+02,4.882143750000003593e+02,4.887300000000003593e+02,4.883550000000003593e+02,4.877456250000003593e+02,4.873862500000003593e+02,4.859800000000003593e+02,4.847768750000003593e+02,4.832925000000003593e+02,4.804800000000003593e+02,4.769331250000003593e+02,4.733081250000003593e+02,4.686518750000003593e+02,4.627612500000003593e+02,4.577456250000003593e+02,4.520268750000003593e+02,4.456362500000003593e+02,4.388081250000003593e+02,4.315268750000003593e+02,4.235425000000003593e+02,4.159800000000003593e+02,4.080112500000003593e+02,3.985737500000003593e+02,3.888081250000003593e+02,3.779643750000002456e+02,3.656518750000002456e+02,3.531206250000001887e+02,3.392456250000001887e+02,3.231831250000001887e+02,3.057925000000001887e+02,2.882456250000001887e+02,2.704643750000001887e+02,2.533237500000001887e+02,2.370268750000001887e+02,2.201675000000001887e+02,2.043862500000001887e+02,1.896987500000001887e+02,1.757612500000001319e+02,1.611518750000001035e+02,1.461831250000001035e+02,1.303706250000001035e+02,1.144487500000001035e+02,9.933937500000008924e+01,8.416750000000007503e+01,6.851125000000006082e+01,5.265187500000004661e+01,3.710500000000003951e+01,2.157375000000003240e+01,6.683125000000023519e+00,-8.660624999999987139e+00,-2.459812499999999602e+01,-4.108250000000001023e+01,-5.753562500000002444e+01,-7.341062500000003865e+01,-8.761375000000003865e+01,-1.020825000000000529e+02,-1.165200000000000671e+02,-1.294887500000000671e+02,-1.416918750000000671e+02,-1.519887500000000671e+02,-1.593950000000000671e+02,-1.651137500000000671e+02,-1.702387500000000671e+02,-1.721918750000000671e+02,-1.718793750000000671e+02,-1.705356250000000671e+02,-1.673637500000000671e+02,-1.637387500000000671e+02,-1.609731250000000671e+02,-1.574262500000000671e+02,-1.538793750000000671e+02,-1.516606250000000671e+02,-1.492856250000000671e+02,-1.469575000000000671e+02,-1.446918750000000671e+02,-1.425356250000000671e+02,-1.397075000000000671e+02,-1.375512500000000671e+02,-1.352700000000000671e+02,-1.313950000000000671e+02,-1.279887500000000671e+02,-1.232543750000000671e+02,-1.189262500000000671e+02,-1.137543750000000671e+02,-1.084106250000000671e+02,-1.027387500000000671e+02,-9.559812500000006708e+01,-8.898875000000003865e+01,-8.216062500000002444e+01,-7.608250000000002444e+01,-6.947312500000002444e+01,-6.344187500000002444e+01,-5.728562500000002444e+01,-5.050437500000002444e+01,-4.564500000000001023e+01,-4.105125000000001023e+01,-3.577000000000000313e+01,-3.153562500000000313e+01,-2.686374999999999957e+01,-2.197312499999999602e+01,-1.773874999999999247e+01,-1.428562499999999069e+01,-9.394999999999987139e+00,-4.848124999999984475e+00,-8.012499999999820322e-01,4.776875000000021743e+00,9.073750000000025295e+00,1.344875000000002707e+01,1.818312500000003240e+01,2.282375000000003240e+01,2.641750000000003951e+01,3.129250000000003951e+01,3.605812500000003951e+01,3.980812500000004661e+01,4.498000000000004661e+01,5.012062500000006082e+01,5.513625000000006082e+01,6.048000000000006082e+01,6.685500000000006082e+01,7.141750000000006082e+01,7.569875000000006082e+01,7.960500000000006082e+01,8.162062500000006082e+01,8.369875000000006082e+01,8.593312500000006082e+01,8.705812500000006082e+01,8.713625000000006082e+01,8.805812500000006082e+01,8.798000000000006082e+01,8.880812500000006082e+01,9.048000000000006082e+01,9.080812500000006082e+01,9.102687500000006082e+01,9.232375000000006082e+01,9.280812500000006082e+01,9.315187500000006082e+01,9.440187500000006082e+01,9.474562500000007503e+01,9.566750000000008924e+01,9.763625000000010346e+01,9.921437500000010346e+01,1.003237500000001035e+02,1.032143750000001035e+02,1.060581250000001035e+02,1.092925000000001035e+02,1.124175000000001035e+02,1.145581250000001035e+02,1.169956250000001035e+02,1.195737500000001035e+02,1.218393750000001035e+02,1.228706250000001035e+02,1.231206250000001035e+02,1.227143750000001035e+02,1.225425000000001035e+02,1.225268750000001035e+02,1.216987500000001035e+02,1.198550000000001035e+02,1.188237500000001035e+02,1.177925000000001035e+02,1.178237500000001035e+02,1.182143750000001035e+02,1.189018750000001035e+02,1.189018750000001035e+02,1.185581250000001035e+02,1.194487500000001035e+02,1.190893750000001035e+02,1.181518750000001035e+02,1.157456250000001035e+02,1.121518750000001035e+02,1.080112500000001035e+02,1.053081250000001035e+02,1.025268750000001035e+02,9.823000000000010346e+01,9.437062500000007503e+01,9.102687500000007503e+01,8.869875000000006082e+01,8.708937500000006082e+01,8.585500000000006082e+01,8.304250000000006082e+01,8.126125000000006082e+01,8.129250000000006082e+01,8.152687500000006082e+01,8.285500000000006082e+01,8.412062500000006082e+01,8.532375000000006082e+01,8.619875000000006082e+01,8.791750000000006082e+01,8.810500000000006082e+01,8.718312500000006082e+01,8.541750000000006082e+01,8.244875000000006082e+01,7.868312500000006082e+01,7.569875000000006082e+01,7.235500000000006082e+01,6.915187500000006082e+01,6.737062500000006082e+01,6.526125000000006082e+01,6.452687500000006082e+01,6.304250000000006082e+01,6.254250000000006082e+01,6.027687500000006082e+01,5.826125000000006082e+01,5.558937500000006082e+01,5.152687500000006082e+01,4.810500000000006082e+01,4.265187500000004661e+01,3.802687500000003951e+01,3.308937500000003951e+01,2.955812500000003951e+01,2.548000000000003595e+01,2.135500000000003240e+01,1.879250000000003240e+01,1.590187500000002885e+01,1.446437500000002885e+01,1.376125000000002885e+01,1.213625000000002530e+01,9.855000000000023519e+00,9.136250000000023519e+00,8.776875000000023519e+00,7.730000000000023519e+00,6.651875000000023519e+00,6.214375000000023519e+00,4.433125000000020854e+00,3.589375000000019966e+00,3.636250000000019966e+00,2.651875000000019966e+00,1.214375000000019078e+00,-1.316874999999982476e+00,-3.223124999999983586e+00,-6.394999999999985363e+00,-9.332499999999987139e+00,-1.256687499999998892e+01,-1.683249999999999247e+01,-2.186374999999999602e+01,-2.625437500000000313e+01,-2.973875000000000313e+01,-3.445750000000000313e+01,-3.837937500000000313e+01,-4.162937500000001023e+01,-4.423875000000001023e+01,-4.711375000000001023e+01,-4.856687500000002444e+01,-5.052000000000002444e+01,-5.187937500000002444e+01,-5.233250000000002444e+01,-5.455125000000002444e+01,-5.716062500000002444e+01,-6.031687500000002444e+01,-6.303562500000002444e+01,-6.761375000000002444e+01,-7.200437500000002444e+01,-7.823875000000002444e+01,-8.523875000000002444e+01,-9.028562500000003865e+01,-9.569187500000006708e+01,-1.020356250000000671e+02,-1.078168750000000671e+02,-1.114418750000000671e+02,-1.148168750000000671e+02,-1.168325000000000671e+02,-1.176450000000000671e+02,-1.195356250000000671e+02,-1.213325000000000671e+02,-1.215668750000000671e+02,-1.221137500000000671e+02,-1.243481250000000671e+02,-1.274575000000000671e+02,-1.298168750000000671e+02,-1.333793750000000671e+02,-1.367856250000000671e+02,-1.387700000000000671e+02,-1.416606250000000671e+02,-1.451606250000000671e+02,-1.468012500000000671e+02,-1.465512500000000671e+02,-1.461450000000000671e+02,-1.435356250000000671e+02,-1.394262500000000671e+02,-1.360668750000000671e+02,-1.308012500000000671e+02,-1.238793750000000671e+02,-1.169106250000000671e+02,-1.104106250000000671e+02,-1.043637500000000671e+02,-9.934812500000006708e+01,-9.419187500000005286e+01,-8.894187500000003865e+01,-8.456687500000002444e+01,-8.097312500000002444e+01,-7.767625000000002444e+01,-7.430125000000002444e+01,-7.145750000000002444e+01,-6.864500000000002444e+01,-6.653562500000002444e+01,-6.405125000000002444e+01,-6.169187500000002444e+01,-5.845750000000002444e+01,-5.650437500000002444e+01,-5.492625000000002444e+01,-5.289500000000002444e+01,-5.100437500000002444e+01,-4.930125000000002444e+01,-4.736375000000001023e+01,-4.570750000000001023e+01,-4.559812500000001023e+01,-4.377000000000000313e+01,-4.267625000000000313e+01,-4.127000000000000313e+01,-4.002000000000000313e+01,-3.805125000000000313e+01,-3.595750000000000313e+01,-3.317625000000000313e+01,-2.756687500000000313e+01,-2.272312499999999602e+01,-1.592624999999999247e+01,-7.785624999999985363e+00,1.776875000000019522e+00,1.098000000000002530e+01,1.949562500000003240e+01,2.682375000000003595e+01,3.165187500000003951e+01,3.599562500000003951e+01,3.890187500000003951e+01,3.818312500000003951e+01,3.521437500000003951e+01,2.937062500000003951e+01,2.218312500000003240e+01,1.487062500000002885e+01,6.042500000000021743e+00,-2.816874999999983586e+00,-1.384812499999998892e+01,-2.376999999999999602e+01,-3.395750000000000313e+01,-4.280125000000001023e+01,-5.195750000000001734e+01,-6.150437500000002444e+01,-6.975437500000002444e+01,-7.792625000000002444e+01,-8.373875000000003865e+01,-8.817625000000003865e+01,-9.097312500000003865e+01,-9.208250000000003865e+01,-9.006687500000003865e+01,-8.664500000000003865e+01,-8.181687500000002444e+01,-7.581687500000002444e+01,-6.861375000000002444e+01,-6.092625000000002444e+01,-5.297312500000002444e+01,-4.467625000000001734e+01,-3.687937500000001023e+01,-2.737937499999999957e+01,-1.730124999999999247e+01,-8.285624999999988916e+00,4.331250000000177458e-01,7.745625000000021743e+00,1.543312500000002885e+01,2.391750000000003240e+01,3.107375000000003951e+01,3.590187500000003951e+01,3.940187500000004661e+01,4.463625000000004661e+01,4.923000000000006082e+01,5.457375000000006082e+01,5.899562500000006082e+01,6.188625000000006082e+01,6.496437500000006082e+01,6.837062500000006082e+01,7.219875000000006082e+01,7.394875000000006082e+01,7.571437500000006082e+01,7.680812500000006082e+01,7.673000000000006082e+01,7.627687500000006082e+01,7.632375000000006082e+01,7.662062500000006082e+01,7.594875000000006082e+01,7.499562500000006082e+01,7.246437500000006082e+01,6.991750000000006082e+01,6.810500000000006082e+01,6.840187500000006082e+01,7.113625000000006082e+01,7.646437500000006082e+01,8.437062500000007503e+01,9.604250000000010346e+01,1.124800000000001035e+02,1.324175000000001035e+02
1.096875000000000888e+01,3.234375000000002132e+01,4.065625000000002842e+01,3.495312500000002132e+01,2.153125000000001421e+01,1.060937500000000711e+01,2.812500000000001332e+00,1.281250000000000888e+00,-6.406250000000004441e-01,-1.500000000000001110e+00,3.125000000000000555e-01,5.625000000000004441e-01,3.109375000000002220e+00,4.609375000000003553e+00,3.546875000000002665e+00,2.390625000000001776e+00,5.156250000000000000e-01,1.031250000000000444e+00,2.781250000000001776e+00,5.625000000000003553e+00,8.546875000000005329e+00,7.078125000000004441e+00,4.687500000000003553e+00,7.656250000000004441e-01,-2.140625000000001776e+00,-2.343750000000001776e+00,-2.265625000000001776e+00,-1.234375000000000666e+00,-3.015625000000001776e+00,-3.937500000000002220e+00,-5.453125000000003553e+00,-7.296875000000004441e+00,-7.515625000000004441e+00,-9.234375000000005329e+00,-8.625000000000005329e+00,-7.421875000000005329e+00,-3.375000000000002220e+00,2.750000000000002220e+00,7.984375000000005329e+00,1.412500000000000888e+01,1.628125000000001066e+01,1.381250000000001066e+01,9.281250000000007105e+00,1.203125000000001776e+00,-5.375000000000002665e+00,-5.812500000000003553e+00,-4.859375000000002665e+00,-4.375000000000000000e-01,1.812500000000001110e+00,-2.546875000000001776e+00,-6.906250000000003553e+00,-1.375000000000000711e+01,-1.571875000000001066e+01,-1.262500000000000888e+01,-8.000000000000005329e+00,4.687499999999977796e-02,3.093750000000001776e+00,5.921875000000003553e+00,6.390625000000003553e+00,4.453125000000002665e+00,7.156250000000004441e+00,7.546875000000005329e+00,8.750000000000005329e+00,7.656250000000003553e+00,2.531250000000001776e+00,-3.156250000000001776e+00,-9.171875000000005329e+00,-1.026562500000000711e+01,-1.046875000000000711e+01,-7.359375000000004441e+00,-4.500000000000002665e+00,-5.000000000000003553e+00,-4.718750000000002665e+00,-7.125000000000003553e+00,-7.281250000000003553e+00,-5.375000000000003553e+00,-1.875000000000001332e+00,3.234375000000002220e+00,7.281250000000004441e+00,1.006250000000000533e+01,9.578125000000005329e+00,8.203125000000005329e+00,5.156250000000002665e+00,1.500000000000000888e+00,1.718750000000000833e-01,-5.937500000000004441e-01,4.062500000000003331e-01,2.109375000000001332e+00,3.296875000000001776e+00,2.734375000000001776e+00,-3.750000000000003331e-01,-2.171875000000001332e+00,-5.265625000000003553e+00,-6.406250000000003553e+00,-3.031250000000001776e+00,-2.734375000000001776e+00,-1.406250000000000888e+00,-1.875000000000002220e-01,-3.796875000000002220e+00,-3.921875000000002665e+00,-4.562500000000002665e+00,-7.484375000000005329e+00,-7.218750000000005329e+00,-8.781250000000005329e+00,-7.937500000000005329e+00,-3.078125000000001776e+00,1.562500000000000888e+00,5.703125000000003553e+00,7.234375000000005329e+00,6.718750000000005329e+00,4.984375000000003553e+00,5.750000000000003553e+00,7.718750000000005329e+00,7.984375000000005329e+00,9.140625000000007105e+00,6.890625000000005329e+00,4.671875000000003553e+00,5.562500000000003553e+00,5.703125000000003553e+00,8.390625000000007105e+00,7.625000000000006217e+00,3.578125000000002665e+00,-3.437500000000006661e-01,-6.562500000000005329e+00,-7.546875000000005329e+00,-6.421875000000005329e+00,-5.296875000000003553e+00,-1.140625000000000444e+00,5.312500000000007772e-01,2.718750000000002220e+00,4.890625000000003553e+00,4.046875000000002665e+00,3.984375000000002665e+00,1.468750000000000888e+00,7.187500000000001110e-01,2.312500000000001332e+00,7.656250000000007772e-01,9.218750000000005551e-01,-4.156250000000001776e+00,-1.409375000000000711e+01,-2.271875000000001421e+01,-3.306250000000002132e+01,-3.576562500000002132e+01,-2.878125000000002132e+01,-1.290625000000000888e+01,1.173437500000000888e+01,3.378125000000002132e+01,5.067187500000003553e+01,5.464062500000004263e+01,4.431250000000002842e+01,2.871875000000001421e+01,5.937500000000000888e+00,-1.240625000000001066e+01,-2.303125000000001776e+01,-3.067187500000002132e+01,-2.837500000000002132e+01,-2.573437500000001776e+01,-2.206250000000001421e+01,-1.264062500000000711e+01,-4.265625000000002665e+00,1.081250000000000533e+01,2.728125000000001421e+01,3.917187500000002132e+01,4.846875000000002842e+01,4.790625000000003553e+01,3.996875000000002842e+01,2.548437500000002132e+01,3.546875000000003553e+00,-2.270312500000001421e+01,-5.175000000000004263e+01,-8.112500000000005684e+01,-1.040468750000000711e+02,-1.165000000000000853e+02,-1.159687500000000853e+02,-9.220312500000007105e+01,-5.192187500000003553e+01,7.968750000000017764e-01,6.107812500000004263e+01,1.061250000000000711e+02,1.307187500000000853e+02,1.295000000000000853e+02,1.010625000000000568e+02,5.965625000000003553e+01,1.689062500000001066e+01,-1.581250000000001243e+01,-3.403125000000002132e+01,-3.700000000000002132e+01,-2.937500000000001776e+01,-1.960937500000001421e+01,-8.125000000000005329e+00,-6.562500000000004441e-01,2.375000000000001332e+00,4.890625000000002665e+00,3.343750000000001776e+00,2.484375000000001776e+00,6.093750000000006661e-01,-4.062500000000002665e+00,-6.984375000000005329e+00,-9.859375000000007105e+00,-1.173437500000000711e+01,-1.214062500000000888e+01,-1.237500000000001066e+01,-1.395312500000001066e+01,-1.284375000000000888e+01,-8.437500000000005329e+00,-2.906250000000001776e+00,5.265625000000003553e+00,1.089062500000000711e+01,1.337500000000001066e+01,1.321875000000000888e+01,1.092187500000000711e+01,7.828125000000005329e+00,4.671875000000002665e+00,4.062500000000002665e+00,2.781250000000001776e+00,3.203125000000002665e+00,3.093750000000002665e+00,-1.218750000000000444e+00,-2.875000000000001332e+00,-5.015625000000003553e+00,-6.750000000000004441e+00,-2.671875000000001776e+00,-1.093750000000000888e+00,-1.625000000000001110e+00,6.093750000000004441e-01,-2.078125000000001776e+00,-2.453125000000002665e+00,2.093750000000001332e+00,2.406250000000001776e+00,6.140625000000003553e+00,6.109375000000003553e+00,4.375000000000001110e-01,-1.250000000000001332e+00,-5.828125000000003553e+00,-5.718750000000003553e+00,-1.718750000000001110e+00,-1.765625000000001110e+00,1.093750000000000666e+00,9.687500000000006661e-01,5.312500000000000000e-01,2.421875000000001332e+00,1.671875000000001110e+00,1.406250000000000888e+00,-2.265625000000001332e+00,-4.218750000000002665e+00,-4.703125000000003553e+00,-4.000000000000002665e+00,1.531250000000000888e+00,3.062500000000001776e+00,5.015625000000003553e+00,4.093750000000002665e+00,4.843750000000003331e-01,-2.656250000000000000e-01,-2.171875000000001332e+00,-3.125000000000000000e-02,1.375000000000000888e+00,1.515625000000001110e+00,2.843750000000002220e+00,1.531250000000000888e+00,1.140625000000000888e+00,1.796875000000001332e+00,6.250000000000000000e-02,-2.140625000000001332e+00,-2.234375000000001332e+00,-4.359375000000003553e+00,-4.171875000000003553e+00,-1.890625000000001332e+00,-3.718750000000002665e+00,-2.328125000000001776e+00,-6.718750000000004441e-01,7.812500000000000000e-02,4.265625000000002665e+00,6.156250000000003553e+00,5.906250000000003553e+00,4.734375000000003553e+00,1.390625000000001110e+00,-2.890625000000001332e+00,-5.109375000000003553e+00,-7.156250000000004441e+00,-7.640625000000005329e+00,-4.203125000000002665e+00,-2.468750000000001332e+00,1.859375000000001554e+00,5.468750000000003553e+00,3.703125000000001776e+00,4.046875000000001776e+00,1.562499999999995559e-01,-3.828125000000002665e+00,-2.515625000000001776e+00,-4.109375000000002665e+00,-2.453125000000001332e+00,-4.375000000000002220e-01,-1.984375000000001332e+00,5.625000000000002220e-01,2.671875000000001776e+00,5.031250000000003553e+00,8.765625000000005329e+00,7.093750000000004441e+00,4.390625000000003553e+00,-3.750000000000000000e-01,-5.812500000000003553e+00,-6.109375000000003553e+00,-6.312500000000003553e+00,-4.171875000000003553e+00,-7.812500000000006661e-01,5.156250000000002220e-01,1.921875000000001110e+00,4.421875000000003553e+00,6.640625000000004441e+00,7.843750000000004441e+00,1.101562500000000711e+01,9.031250000000005329e+00,4.171875000000002665e+00,-5.937500000000000000e-01,-1.115625000000000711e+01,-1.723437500000001066e+01,-1.953125000000001421e+01,-2.064062500000001421e+01,-1.326562500000000711e+01,-5.937500000000003553e+00,-6.249999999999955591e-02,7.453125000000005329e+00,9.187500000000007105e+00,8.562500000000005329e+00,8.500000000000005329e+00,5.062500000000003553e+00,1.796875000000001332e+00,1.843750000000001332e+00,5.312500000000005551e-01,7.812500000000009992e-01,4.812500000000003553e+00,4.500000000000003553e+00,5.578125000000003553e+00,7.453125000000005329e+00,3.687500000000002665e+00,4.375000000000002665e+00,5.000000000000003553e+00,3.500000000000002665e+00,7.640625000000005329e+00,9.015625000000007105e+00,9.578125000000005329e+00,1.182812500000000711e+01,1.173437500000000711e+01,1.017187500000000711e+01,7.812500000000006217e+00,4.531250000000003553e+00,-2.171875000000002220e+00,-5.562500000000005329e+00,-7.078125000000005329e+00,-8.421875000000005329e+00,-5.328125000000003553e+00,-3.515625000000001776e+00,-3.343750000000001332e+00,-4.359375000000001776e+00,-5.890625000000003553e+00,-7.906250000000004441e+00,-8.468750000000005329e+00,-5.484375000000003553e+00,-4.703125000000003553e+00,-3.859375000000002665e+00,-5.390625000000003553e+00,-9.562500000000007105e+00,-1.054687500000000711e+01,-1.017187500000000711e+01,-5.000000000000002665e+00,-2.343749999999998335e-01,1.250000000000004718e-01,-4.062499999999998335e-01,-5.609375000000003553e+00,-9.359375000000007105e+00,-6.546875000000005329e+00,-4.000000000000003553e+00,1.249999999999997780e-01,5.437500000000003553e+00,4.625000000000003553e+00,5.062500000000003553e+00,8.250000000000005329e+00,7.687500000000005329e+00,1.031250000000000711e+01,1.046875000000000711e+01,4.187500000000003553e+00,9.375000000000022204e-02,-6.515625000000003553e+00,-1.175000000000000711e+01,-1.248437500000000888e+01,-1.335937500000001066e+01,-1.242187500000000888e+01,-9.171875000000007105e+00,-4.984375000000003553e+00,8.593750000000006661e-01,8.187500000000005329e+00,1.107812500000000711e+01,1.237500000000000711e+01,1.025000000000000711e+01,4.859375000000003553e+00,1.359375000000000666e+00,-5.203125000000002665e+00,-1.134375000000000711e+01,-1.570312500000001066e+01,-1.890625000000001066e+01,-1.504687500000000711e+01,-7.328125000000005329e+00,1.781249999999999556e+00,1.137500000000000711e+01,1.354687500000000711e+01,1.373437500000000711e+01,9.703125000000007105e+00,2.937500000000002665e+00,1.781250000000001776e+00,-2.625000000000001332e+00,-2.843750000000001332e+00,-1.312500000000000444e+00,-2.140625000000001332e+00,1.625000000000000888e+00,4.312500000000002665e+00,6.250000000000003553e+00,6.796875000000003553e+00,5.312500000000002665e+00,1.296875000000000222e+00,-1.343750000000001332e+00,-2.031250000000001332e+00,-3.562500000000002665e+00,-9.531250000000004441e-01,-5.312500000000000000e-01,-1.093750000000000000e-01,2.687500000000001776e+00,2.312500000000001776e+00,3.765625000000002220e+00,5.062500000000003553e+00,2.843750000000001776e+00,5.625000000000003331e-01,-2.343750000000001332e+00,-7.234375000000005329e+00,-7.750000000000005329e+00,-5.562500000000003553e+00,-3.500000000000002665e+00,2.406250000000001776e+00,4.578125000000003553e+00,4.421875000000002665e+00,5.281250000000002665e+00,3.734375000000002220e+00,5.625000000000003553e+00,9.953125000000005329e+00,1.278125000000000711e+01,1.478125000000001066e+01,1.175000000000000711e+01,4.500000000000003553e+00,-2.625000000000001776e+00,-9.109375000000007105e+00,-1.076562500000000711e+01,-9.281250000000007105e+00,-7.109375000000005329e+00,-4.328125000000002665e+00,-3.578125000000002665e+00,-3.781250000000002665e+00,-5.015625000000003553e+00,-6.000000000000004441e+00,-7.156250000000005329e+00,-6.062500000000003553e+00,-2.531250000000001776e+00,1.093750000000000888e+00,6.234375000000005329e+00,7.296875000000005329e+00,6.250000000000004441e+00,4.515625000000003553e+00,6.250000000000000000e-02,-1.656250000000001110e+00,-2.703125000000001776e+00,-4.015625000000002665e+00,-8.437500000000004441e-01,4.000000000000002665e+00,9.328125000000007105e+00,1.568750000000001066e+01,1.751562500000001066e+01,1.329687500000000711e+01,7.375000000000003553e+00,4.374999999999995559e-01,-6.593750000000005329e+00,-6.468750000000005329e+00,-5.421875000000003553e+00,-3.953125000000002665e+00,3.156250000000002665e+00,4.828125000000003553e+00,7.234375000000004441e+00,8.968750000000007105e+00,3.656250000000003109e+00,-1.562499999999955591e-02,-4.046875000000002665e+00,-5.953125000000003553e+00,-4.109375000000002665e+00,5.312500000000000000e-01,4.312500000000002665e+00,4.828125000000002665e+00,7.250000000000003553e+00,6.171875000000004441e+00,6.390625000000005329e+00,1.090625000000000711e+01,9.046875000000007105e+00,5.843750000000003553e+00,-4.218750000000026645e-01,-1.300000000000001066e+01,-2.046875000000001421e+01,-2.340625000000001776e+01,-2.214062500000001421e+01,-1.492187500000000711e+01,-8.250000000000003553e+00,-3.640625000000001776e+00,-7.968750000000004441e-01,-3.125000000000004163e-02,4.687500000000002776e-02,1.718750000000001110e-01,1.875000000000001110e-01,9.375000000000008327e-02,6.250000000000005551e-02,-6.250000000000004163e-02,-6.250000000000004163e-02,-6.938893903907228378e-18,-1.562500000000001735e-02,1.562500000000001041e-02,-6.250000000000002776e-02,-1.562500000000000833e-01,-1.406250000000000833e-01,-7.812500000000004163e-02,4.687500000000004163e-02,1.718750000000001110e-01,1.718750000000001110e-01,4.687500000000002776e-02,-9.375000000000006939e-02,-2.343750000000001665e-01,-2.812500000000002220e-01,-1.796875000000001332e+00,-4.828125000000003553e+00,-1.064062500000000711e+01,-1.918750000000001066e+01,-2.479687500000001421e+01,-2.773437500000002132e+01,-2.429687500000001776e+01,-1.543750000000001066e+01,-7.703125000000005329e+00,-1.781250000000001776e+00,3.281250000000001665e-01,1.968750000000000888e+00,3.468750000000001776e+00,9.234375000000003553e+00,1.487500000000000711e+01,1.492187500000000888e+01,1.471875000000001066e+01,7.062500000000006217e+00,-9.062499999999993339e-01,-4.375000000000002665e+00,-6.375000000000004441e+00,-2.531250000000002665e+00,3.203125000000001332e+00,8.125000000000005329e+00,9.546875000000007105e+00,7.906250000000005329e+00,4.234375000000003553e+00,9.375000000000004441e-01,5.625000000000007772e-01,2.312500000000001776e+00,4.781250000000003553e+00,3.984375000000002665e+00,2.859375000000001776e+00,-3.906250000000004441e-01,-3.125000000000002220e+00,-1.406249999999995559e-01,2.125000000000001776e+00,6.906250000000005329e+00,1.107812500000000711e+01,9.015625000000005329e+00,7.312500000000005329e+00,1.609375000000000888e+00,-4.125000000000002665e+00,-4.203125000000002665e+00,-5.546875000000003553e+00,-1.703125000000000444e+00,2.859375000000002220e+00,2.265625000000001776e+00,4.906250000000003553e+00,2.578125000000001776e+00,-2.328125000000000888e+00,-2.640625000000001776e+00,-7.109375000000003553e+00,-7.281250000000003553e+00,-3.468750000000002220e+00,-3.843750000000002220e+00,-1.015625000000000666e+00,-2.593750000000000888e+00,-6.234375000000003553e+00,-5.250000000000003553e+00,-5.921875000000003553e+00,-1.734375000000001332e+00,2.593750000000001776e+00,3.234375000000001776e+00,6.453125000000003553e+00,6.593750000000003553e+00,5.515625000000003553e+00,6.062500000000003553e+00,2.578125000000001332e+00,7.812499999999994449e-02,1.640625000000000888e+00,2.593750000000001776e+00,5.093750000000003553e+00,6.640625000000004441e+00,2.046875000000001776e+00,-2.078125000000000888e+00,-3.796875000000001776e+00,-5.234375000000002665e+00,-7.656250000000000000e-01,2.703125000000001776e+00,3.359375000000001776e+00,6.140625000000003553e+00,4.296875000000003553e+00,3.328125000000001776e+00,3.125000000000001776e+00,-1.562500000000000888e+00,-2.703125000000001776e+00,-3.031250000000001776e+00,-2.375000000000001332e+00,3.515625000000002665e+00,6.875000000000005329e+00,8.812500000000005329e+00,7.921875000000005329e+00,2.421875000000001332e+00,-8.593750000000006661e-01,-3.781250000000002665e+00,-3.328125000000001776e+00,1.453125000000000666e+00,3.218750000000001776e+00,4.984375000000003553e+00,5.765625000000003553e+00,1.875000000000001554e+00,1.062500000000000666e+00,6.562500000000002220e-01,-1.468750000000000444e+00,1.046875000000000888e+00,3.015625000000002220e+00,5.265625000000003553e+00,9.671875000000005329e+00,1.085937500000000533e+01,9.671875000000005329e+00,6.312500000000003553e+00,1.546875000000000888e+00,-3.546875000000001332e+00,-7.281250000000003553e+00,-8.984375000000003553e+00,-9.562500000000005329e+00,-6.468750000000003553e+00,-1.343750000000001332e+00,4.156250000000002665e+00,8.515625000000005329e+00,8.609375000000005329e+00,5.671875000000003553e+00,7.187500000000006661e-01,-4.671875000000002665e+00,-6.937500000000003553e+00,-7.468750000000005329e+00,-5.109375000000003553e+00,1.250000000000000222e+00,5.843750000000003553e+00,9.234375000000003553e+00,9.015625000000003553e+00,1.640625000000000888e+00,-4.687500000000003553e+00,-8.609375000000005329e+00,-9.484375000000005329e+00,-3.218750000000001776e+00,1.875000000000001776e+00,2.750000000000001776e+00,1.281250000000000666e+00,-4.140625000000003553e+00,-1.015625000000000711e+01,-1.300000000000001066e+01,-1.353125000000001066e+01,-1.403125000000001066e+01,-1.126562500000000711e+01,-7.140625000000005329e+00,-4.421875000000003553e+00,7.812500000000002220e-01,4.031250000000002665e+00,3.890625000000002665e+00,3.843750000000002665e+00,1.859375000000001332e+00,-4.218750000000002776e-01,-1.421875000000000888e+00,-6.250000000000004441e-01,-2.031250000000001665e-01,-2.343750000000001665e-01,1.062500000000000666e+00,-1.531250000000000888e+00,-1.687500000000000888e+00,-1.125000000000000888e+00,-2.843750000000002220e+00,-1.203125000000000888e+00,-3.343750000000002665e+00,-4.015625000000003553e+00,-3.234375000000001776e+00,-2.281250000000001332e+00,1.390625000000001110e+00,2.031250000000001776e+00,2.640625000000001776e+00,-3.749999999999997780e-01,-2.234375000000001332e+00,-8.281250000000002220e-01,-6.718749999999998890e-01,4.109375000000002665e+00,5.375000000000003553e+00,2.781250000000001776e+00,2.062500000000000888e+00,-1.234375000000000888e+00,-3.468750000000002665e+00,-1.421875000000000888e+00,3.124999999999988898e-02,7.812500000000013878e-02,2.875000000000001776e+00,2.015625000000000888e+00,-1.031250000000000444e+00,-7.343750000000006661e-01,-3.281250000000002665e+00,-3.781250000000003109e+00,-1.562500000000044409e-02,2.406250000000001332e+00,4.812500000000003553e+00,6.000000000000004441e+00,2.171875000000001332e+00,-3.015625000000001776e+00,-7.562500000000005329e+00,-9.203125000000007105e+00,-5.531250000000003553e+00,-6.250000000000044409e-02,7.000000000000004441e+00,9.937500000000007105e+00,7.406250000000005329e+00,4.687500000000003553e+00,6.718750000000006661e-01,-1.656250000000000888e+00,1.046875000000000888e+00,2.359375000000001776e+00,9.062500000000006661e-01,1.296875000000000888e+00,-1.312500000000000666e+00,-3.703125000000002220e+00,-3.125000000000000000e-01,6.718750000000005551e-01,5.781250000000003331e-01,3.281250000000001776e+00,7.343750000000000000e-01,-2.234375000000001776e+00,-1.718750000000002220e-01,-1.765625000000000888e+00,-1.687500000000000888e+00,1.656250000000001110e+00,-1.671875000000001110e+00,-2.906250000000002220e+00,-2.046875000000001776e+00,-5.015625000000003553e+00,-1.750000000000001776e+00,1.062500000000000444e+00,1.984375000000000888e+00,5.859375000000003553e+00,4.968750000000003553e+00,3.453125000000002220e+00,1.109375000000000888e+00,-1.890625000000000888e+00,-1.046875000000000666e+00,7.500000000000008882e-01,4.453125000000003553e+00,5.468750000000003553e+00,3.125000000000002665e+00,-5.312500000000002220e-01,-5.625000000000003553e+00,-6.593750000000004441e+00,-6.421875000000004441e+00,-3.484375000000002665e+00,9.531250000000007772e-01,3.109375000000001776e+00,6.843750000000003553e+00,7.390625000000003553e+00,5.578125000000003553e+00,3.921875000000002665e+00,1.265625000000000666e+00,-3.125000000000001388e-02,-1.562500000000001388e-02,-5.468750000000004441e-01,-2.750000000000001776e+00,-4.765625000000003553e+00,-4.109375000000002665e+00,-2.218750000000001332e+00,1.453125000000000888e+00,4.437500000000002665e+00,1.937500000000001332e+00,-1.406250000000000666e+00,-5.500000000000003553e+00,-8.296875000000005329e+00,-7.562500000000005329e+00,-5.265625000000003553e+00,-2.812500000000004441e-01,3.156250000000002220e+00,7.937500000000007105e+00,1.081250000000000888e+01,8.234375000000007105e+00,7.437500000000005329e+00,2.218750000000001776e+00,-2.953125000000002220e+00,-2.843750000000001776e+00,-5.750000000000003553e+00,-4.546875000000002665e+00,-3.015625000000001776e+00,-3.593750000000001776e+00,-1.171875000000000666e+00,-3.125000000000001110e-01,2.500000000000001332e+00,4.578125000000002665e+00,6.531250000000003553e+00,6.515625000000003553e+00,4.203125000000001776e+00,1.625000000000000444e+00,-2.546875000000002220e+00,-2.609375000000001776e+00,-3.484375000000001776e+00,-1.453125000000000444e+00,1.250000000000004441e-01,-2.187500000000001332e+00,-1.375000000000001110e+00,-3.609375000000002665e+00,-3.859375000000002665e+00,-2.093750000000000888e+00,-1.406250000000000666e+00,1.062500000000000666e+00,1.906250000000001332e+00,3.765625000000002220e+00,1.937500000000001332e+00,-1.359375000000000444e+00,-2.359375000000001332e+00,-6.078125000000003553e+00,-2.734375000000001776e+00,1.468750000000000888e+00,3.453125000000002220e+00,7.265625000000005329e+00,4.296875000000002665e+00,2.265625000000001776e+00,9.375000000000007772e-01,-1.125000000000000666e+00,4.843750000000002220e-01,7.500000000000003331e-01,1.093750000000000666e+00,1.359375000000000888e+00,6.562500000000004441e-01,2.500000000000003331e-01,-2.078125000000001332e+00,-3.140625000000001776e+00,-4.468750000000003553e+00,-6.218750000000004441e+00,-3.265625000000002220e+00,-1.562500000000000888e+00,1.421875000000001110e+00,4.750000000000003553e+00,4.406250000000002665e+00,4.015625000000001776e+00,2.421875000000001332e+00,2.203125000000001332e+00,1.531250000000001110e+00,1.734375000000001332e+00,3.218750000000001776e+00,2.343750000000001332e+00,2.140625000000001332e+00,1.359375000000000444e+00,-2.984375000000001776e+00,-6.515625000000005329e+00,-7.328125000000005329e+00,-9.015625000000005329e+00,-6.250000000000004441e+00,-2.062500000000001332e+00,-5.468750000000003331e-01,4.062500000000002665e+00,5.421875000000003553e+00,5.281250000000003553e+00,5.140625000000003553e+00,5.000000000000004441e-01,-1.078125000000000666e+00,-1.703125000000001332e+00,-2.109375000000001776e+00,1.250000000000000555e-01,3.281250000000002220e-01,-1.359375000000000666e+00,-3.343750000000001776e+00,-4.281250000000002665e+00,-6.937500000000003553e+00,-8.984375000000005329e+00,-8.593750000000005329e+00,-9.828125000000007105e+00,-6.281250000000003553e+00,1.296875000000000888e+00,5.390625000000003553e+00,8.765625000000005329e+00,8.406250000000003553e+00,1.515625000000000666e+00,-2.390625000000001332e+00,-3.515625000000001776e+00,-3.890625000000002220e+00,1.828125000000000888e+00,5.593750000000003553e+00,5.093750000000002665e+00,6.062500000000003553e+00,8.750000000000008882e-01,-3.421875000000001776e+00,-2.281250000000001332e+00,-4.890625000000003553e+00,-1.437500000000001332e+00,2.359375000000001332e+00,5.937500000000004441e-01,4.687500000000002665e+00,4.734375000000002665e+00,1.531250000000001332e+00,2.656250000000002220e+00,-2.875000000000002220e+00,-5.984375000000004441e+00,-3.750000000000002665e+00,-3.031250000000002665e+00,3.812500000000001776e+00,7.062500000000003553e+00,5.781250000000003553e+00,1.375000000000001332e+00,-8.406250000000005329e+00,-1.501562500000001066e+01,-1.742187500000001066e+01,-1.303125000000000711e+01,-4.296875000000002665e+00,6.078125000000003553e+00,1.068750000000000711e+01,9.296875000000005329e+00,7.781250000000005329e+00,2.328125000000001776e+00,4.734375000000002665e+00,1.045312500000000711e+01,1.198437500000000711e+01,1.557812500000001066e+01,1.148437500000000711e+01,5.921875000000003553e+00,2.921875000000002220e+00,-7.500000000000013323e-01,-2.140625000000002220e+00,-2.984375000000001776e+00,-2.500000000000001776e+00,-3.250000000000001776e+00,5.937500000000008882e-01,2.125000000000001776e+00,1.171875000000001554e+00,3.046875000000002220e+00,-3.906250000000002220e+00,-7.593750000000005329e+00,-1.090625000000000711e+01,-1.742187500000001066e+01,-1.375000000000000711e+01,-1.239062500000000711e+01,-7.562500000000005329e+00,1.421875000000001554e+00,9.843750000000013323e-01,4.593750000000003553e+00,1.843750000000000888e+00,-5.109375000000003553e+00,-3.093750000000002665e+00,-7.078125000000005329e+00,-3.953125000000003109e+00,1.968750000000000888e+00,-4.687500000000001388e-02,3.984375000000003109e+00,4.484375000000003553e+00,4.109375000000003553e+00,7.375000000000005329e+00,5.781250000000003553e+00,1.953125000000000888e+00,-1.421875000000001554e+00,-3.218750000000002220e+00,-3.062500000000002220e+00,1.093750000000000222e+00,3.109375000000001776e+00,2.531250000000001776e+00,2.765625000000001776e+00,7.343750000000006661e-01,1.593750000000001110e+00,3.343750000000002220e+00,2.515625000000001776e+00,2.796875000000001776e+00,2.375000000000001776e+00,5.156250000000003331e-01,2.343750000000001776e+00,2.296875000000001776e+00,-1.031250000000000444e+00,-7.656250000000001110e-01,-2.734375000000001332e+00,-8.750000000000000000e-01,6.750000000000003553e+00,6.328125000000003553e+00,5.937500000000000000e-01,-1.379687500000001066e+01,-3.657812500000002132e+01,-4.612500000000002842e+01,-4.112500000000002132e+01,-2.093750000000001066e+01
2.306250000000001421e+01,5.100000000000002132e+01,2.512500000000000711e+01,-7.187500000000002665e+00,-1.181250000000000533e+01,1.937500000000000000e+00,1.087500000000000355e+01,2.312500000000000888e+00,-1.006250000000000533e+01,-6.875000000000017764e-01,8.375000000000003553e+00,-6.562500000000002665e+00,-7.375000000000002665e+00,1.318750000000000711e+01,9.875000000000003553e+00,-1.068750000000000355e+01,-6.250000000000001776e+00,9.000000000000005329e+00,1.062500000000000888e+00,-8.500000000000003553e+00,3.187500000000001776e+00,1.368750000000000711e+01,7.125000000000003553e+00,-6.562500000000003553e+00,-1.143750000000000533e+01,-2.562500000000000444e+00,7.937500000000003553e+00,6.437500000000002665e+00,-3.375000000000002665e+00,-7.187500000000004441e+00,-4.562500000000002665e+00,2.000000000000000888e+00,6.125000000000003553e+00,-3.812500000000002220e+00,-1.337500000000000711e+01,-3.625000000000001776e+00,8.312500000000003553e+00,-3.750000000000000000e-01,-7.437500000000002665e+00,6.812500000000002665e+00,1.375000000000000533e+01,4.312500000000001776e+00,1.687500000000001332e+00,3.500000000000001776e+00,-2.687500000000001776e+00,-1.150000000000000533e+01,-9.812500000000003553e+00,5.750000000000002665e+00,1.337500000000000533e+01,4.437500000000001776e+00,-5.000000000000001776e+00,-1.150000000000000533e+01,-1.106250000000000533e+01,-2.312500000000001332e+00,2.937500000000000888e+00,-2.500000000000004441e-01,-1.625000000000000888e+00,5.937500000000002665e+00,6.125000000000002665e+00,-1.312500000000000666e+00,-3.062500000000001332e+00,-3.375000000000001332e+00,4.625000000000001776e+00,1.568750000000000711e+01,5.625000000000001776e+00,-1.300000000000000533e+01,-9.125000000000003553e+00,3.312500000000001332e+00,-2.562500000000000444e+00,-7.250000000000002665e+00,1.187500000000000444e+00,4.375000000000001776e+00,-3.750000000000004441e-01,-3.687500000000001776e+00,-4.250000000000001776e+00,-5.812500000000001776e+00,-1.812500000000000444e+00,6.625000000000002665e+00,3.937500000000000888e+00,-2.750000000000001776e+00,5.000000000000002665e+00,1.112500000000000533e+01,-3.000000000000001776e+00,-8.437500000000003553e+00,6.375000000000003553e+00,4.187500000000001776e+00,-1.081250000000000533e+01,-1.875000000000000888e+00,1.268750000000000711e+01,2.625000000000001776e+00,-6.750000000000003553e+00,8.750000000000004441e-01,9.375000000000008882e-01,-5.000000000000001776e+00,-4.687500000000001776e+00,-2.562500000000000888e+00,6.375000000000003553e+00,8.500000000000003553e+00,-6.500000000000002665e+00,-1.043750000000000355e+01,-6.250000000000000000e-02,5.250000000000001776e+00,3.250000000000001332e+00,-5.500000000000001776e+00,-1.125000000000000355e+01,-6.187500000000003553e+00,3.375000000000001776e+00,1.206250000000000711e+01,9.312500000000003553e+00,-6.687500000000003553e+00,-9.500000000000003553e+00,7.437500000000003553e+00,8.812500000000003553e+00,-4.812500000000001776e+00,1.062500000000000888e+00,1.231250000000000711e+01,2.437500000000001776e+00,-1.150000000000000533e+01,-5.312500000000002665e+00,1.150000000000000355e+01,1.225000000000000355e+01,8.125000000000004441e-01,-5.125000000000001776e+00,-5.000000000000001776e+00,-3.687500000000001776e+00,-5.062500000000002665e+00,4.375000000000000000e-01,9.250000000000003553e+00,-1.562500000000000888e+00,-1.312500000000000711e+01,2.312500000000000000e+00,1.768750000000000711e+01,4.187500000000001776e+00,-1.306250000000000533e+01,-5.250000000000002665e+00,5.562500000000001776e+00,4.125000000000001776e+00,4.375000000000001776e+00,-1.187500000000000444e+00,-7.062500000000002665e+00,-1.250000000000000000e-01,-3.500000000000002665e+00,-2.025000000000000711e+01,-2.306250000000001066e+01,-8.500000000000005329e+00,4.875000000000002665e+00,1.412500000000000711e+01,2.481250000000001066e+01,2.400000000000001066e+01,1.418750000000000355e+01,8.625000000000001776e+00,6.250000000000004441e-01,-7.937500000000001776e+00,-1.450000000000000355e+01,-1.525000000000000711e+01,-3.562500000000001776e+00,5.000000000000000000e-01,-7.562500000000003553e+00,-1.006250000000000533e+01,-4.500000000000002665e+00,3.250000000000002220e+00,3.875000000000002220e+00,1.006250000000000355e+01,2.825000000000001066e+01,2.325000000000000711e+01,-1.562500000000002665e+00,3.750000000000000000e-01,1.962500000000000711e+01,7.125000000000001776e+00,-2.612500000000001066e+01,-3.187500000000001066e+01,-2.106250000000000711e+01,-3.081250000000001066e+01,-4.293750000000001421e+01,-3.887500000000001421e+01,-3.318750000000001421e+01,-5.250000000000001776e+00,3.687500000000001421e+01,4.056250000000001421e+01,3.675000000000001421e+01,5.875000000000002132e+01,5.175000000000002132e+01,6.000000000000005329e+00,-1.893750000000000711e+01,-1.550000000000000711e+01,-1.437500000000000711e+01,-1.093750000000000533e+01,-5.062500000000001776e+00,-9.250000000000003553e+00,-5.625000000000003553e+00,1.062500000000000533e+01,1.181250000000000711e+01,-6.187500000000001776e+00,-1.137500000000000533e+01,6.312500000000001776e+00,1.168750000000000533e+01,-1.812500000000001332e+00,-6.750000000000003553e+00,-6.562500000000003553e+00,-7.000000000000002665e+00,1.812500000000000888e+00,5.187500000000001776e+00,-6.375000000000003553e+00,-1.037500000000000533e+01,-5.875000000000003553e+00,-4.375000000000002665e+00,5.250000000000001776e+00,1.462500000000000711e+01,4.187500000000001776e+00,-7.562500000000003553e+00,2.687500000000001776e+00,1.393750000000000711e+01,2.500000000000001776e+00,-1.162500000000000533e+01,-4.437500000000001776e+00,9.812500000000005329e+00,6.500000000000003553e+00,-1.437500000000000444e+00,-9.375000000000002220e-01,-7.750000000000003553e+00,-7.625000000000003553e+00,7.125000000000003553e+00,3.062500000000001776e+00,-6.125000000000001776e+00,3.750000000000001332e+00,3.500000000000000444e+00,-6.312500000000003553e+00,-4.500000000000001776e+00,5.625000000000003331e-01,6.062500000000003553e+00,7.750000000000003553e+00,3.250000000000000888e+00,-3.250000000000001776e+00,-1.031250000000000533e+01,-5.000000000000002665e+00,3.750000000000002220e+00,2.937500000000001776e+00,4.500000000000001776e+00,6.250000000000000000e-01,-9.375000000000005329e+00,-3.937500000000002665e+00,1.018750000000000355e+01,9.125000000000003553e+00,-4.125000000000000888e+00,-8.625000000000003553e+00,-4.937500000000002665e+00,5.000000000000002220e-01,4.062500000000001776e+00,3.125000000000000000e-01,8.750000000000000000e-01,5.125000000000001776e+00,2.125000000000000888e+00,-3.500000000000001776e+00,-5.000000000000001776e+00,-2.125000000000000888e+00,1.625000000000000888e+00,7.625000000000002665e+00,5.437500000000001776e+00,-9.000000000000003553e+00,-8.125000000000003553e+00,8.312500000000003553e+00,9.750000000000003553e+00,-1.500000000000000888e+00,-9.062500000000003553e+00,-8.312500000000003553e+00,5.062500000000001776e+00,9.437500000000003553e+00,-5.687500000000002665e+00,-7.625000000000003553e+00,2.187500000000001332e+00,1.062500000000000888e+00,-6.875000000000001110e-01,2.750000000000001332e+00,4.625000000000001776e+00,4.000000000000001776e+00,-3.750000000000002220e-01,-4.500000000000001776e+00,-2.062500000000000444e+00,8.750000000000005551e-01,-1.750000000000000666e+00,-6.812500000000002665e+00,-4.187500000000001776e+00,7.375000000000003553e+00,5.312500000000002665e+00,-4.437500000000001776e+00,3.062500000000001776e+00,7.312500000000003553e+00,-3.750000000000001776e+00,-1.050000000000000355e+01,-4.250000000000000888e+00,9.125000000000003553e+00,6.625000000000002665e+00,-8.375000000000003553e+00,-5.500000000000002665e+00,3.625000000000002220e+00,1.250000000000000888e+00,1.812500000000000444e+00,8.000000000000003553e+00,6.062500000000001776e+00,-4.000000000000001776e+00,-6.187500000000002665e+00,-3.125000000000001776e+00,-4.937500000000001776e+00,1.750000000000000444e+00,7.562500000000002665e+00,-4.687500000000002665e+00,-7.187500000000003553e+00,8.062500000000003553e+00,6.187500000000002665e+00,-5.937500000000002665e+00,7.500000000000008882e-01,1.006250000000000355e+01,7.625000000000001776e+00,-8.125000000000013323e-01,-8.500000000000003553e+00,-5.312500000000001776e+00,-4.250000000000001776e+00,-1.056250000000000355e+01,-7.875000000000003553e+00,-1.625000000000000444e+00,5.250000000000001776e+00,9.375000000000003553e+00,-1.312500000000000000e+00,-3.937500000000001332e+00,9.250000000000003553e+00,6.375000000000002665e+00,-5.500000000000002665e+00,-3.500000000000001332e+00,5.000000000000003331e-01,2.375000000000000888e+00,2.500000000000000888e+00,-2.687500000000000888e+00,1.875000000000000888e+00,7.250000000000002665e+00,2.499999999999995559e-01,-8.750000000000008882e-01,-4.375000000000004441e-01,-1.812500000000000888e+00,5.000000000000001776e+00,3.687500000000001332e+00,-2.500000000000002220e-01,6.375000000000002665e+00,3.062500000000001776e+00,-3.437500000000001776e+00,8.000000000000001776e+00,9.875000000000005329e+00,-7.437500000000000888e+00,-7.375000000000001776e+00,1.000000000000000222e+00,-4.250000000000002665e+00,-3.125000000000002665e+00,2.937500000000000888e+00,-6.249999999999955591e-02,-3.125000000000002220e-01,1.125000000000000222e+00,-6.062500000000001776e+00,-6.000000000000001776e+00,1.187500000000000444e+00,-2.937500000000001332e+00,-1.687500000000000444e+00,9.437500000000003553e+00,2.250000000000000888e+00,-1.606250000000000711e+01,-1.300000000000000355e+01,3.812500000000000888e+00,5.812500000000001776e+00,4.125000000000001776e+00,6.750000000000003553e+00,-4.562500000000001776e+00,-1.306250000000000711e+01,-5.187500000000002665e+00,-1.250000000000000000e-01,5.375000000000001776e+00,8.625000000000003553e+00,-2.437500000000000444e+00,-4.250000000000001776e+00,3.312500000000001332e+00,5.625000000000000000e-01,3.562500000000001776e+00,9.125000000000003553e+00,3.250000000000001332e+00,-7.500000000000005551e-01,-3.937500000000001776e+00,-7.875000000000003553e+00,-4.562500000000001776e+00,-6.875000000000003331e-01,-7.500000000000001110e-01,-3.125000000000000888e+00,-7.062500000000003553e+00,-4.562500000000002665e+00,5.250000000000002665e+00,1.093750000000000355e+01,9.000000000000003553e+00,2.500000000000000000e-01,-5.750000000000003553e+00,-9.375000000000004441e-01,4.562500000000001776e+00,4.062500000000001776e+00,-5.562500000000003553e+00,-1.712500000000000711e+01,-1.193750000000000533e+01,2.250000000000000444e+00,5.812500000000003553e+00,2.812500000000001776e+00,5.875000000000001776e+00,1.037500000000000355e+01,2.062500000000000000e+00,-4.750000000000002665e+00,-6.250000000000000000e-01,-1.812500000000000666e+00,-3.750000000000004441e-01,3.187500000000001776e+00,-1.750000000000000222e+00,-3.750000000000001776e+00,-1.687500000000001332e+00,2.625000000000001332e+00,1.081250000000000533e+01,7.562500000000003553e+00,-8.500000000000003553e+00,-9.187500000000003553e+00,4.812500000000001776e+00,5.875000000000001776e+00,-4.625000000000001776e+00,-6.625000000000002665e+00,4.687500000000002665e+00,6.187500000000003553e+00,-5.562500000000002665e+00,-1.437500000000000888e+00,7.375000000000003553e+00,0.000000000000000000e+00,-1.000000000000000888e+00,5.562500000000002665e+00,-2.437500000000000000e+00,-1.131250000000000355e+01,-5.937500000000003553e+00,3.937500000000001332e+00,6.062500000000002665e+00,-1.125000000000000222e+00,-1.250000000000000000e-01,6.562500000000003553e+00,-6.250000000000000000e-02,-5.625000000000002665e+00,3.750000000000000000e-01,4.812500000000001776e+00,8.250000000000003553e+00,1.187500000000000533e+01,4.937500000000003553e+00,-9.312500000000003553e+00,-1.156250000000000533e+01,-6.250000000000008882e-01,1.250000000000000000e+00,-4.437500000000001776e+00,-6.250000000000000000e-02,3.812500000000001332e+00,-3.062500000000001332e+00,-5.250000000000001776e+00,1.875000000000001332e+00,2.187500000000001332e+00,-5.250000000000001776e+00,-8.125000000000003553e+00,-1.937500000000000888e+00,7.937500000000003553e+00,1.056250000000000355e+01,3.375000000000001776e+00,-7.125000000000003553e+00,-5.875000000000003553e+00,7.312500000000003553e+00,4.625000000000002665e+00,-8.750000000000003553e+00,-4.437500000000002665e+00,2.437500000000000888e+00,-6.875000000000003331e-01,4.562500000000001776e+00,1.337500000000000711e+01,1.081250000000000533e+01,1.062500000000000444e+00,-8.875000000000005329e+00,-7.250000000000003553e+00,3.125000000000001776e+00,-6.875000000000000000e-01,-5.312500000000001776e+00,2.250000000000000888e+00,1.312500000000000222e+00,1.375000000000000222e+00,7.187500000000003553e+00,3.625000000000001776e+00,8.125000000000011102e-01,-2.125000000000000000e+00,-1.043750000000000533e+01,-6.375000000000002665e+00,6.750000000000002665e+00,6.187500000000001776e+00,1.375000000000001110e+00,1.937500000000001332e+00,-2.937500000000001776e+00,-4.440892098500626162e-16,6.250000000000002665e+00,-1.000000000000000888e+00,5.062500000000003553e+00,1.562500000000000711e+01,-3.750000000000002665e+00,-2.225000000000000711e+01,-1.406250000000000355e+01,-2.437500000000000888e+00,2.500000000000001110e-01,-1.250000000000000833e-01,-3.125000000000001665e-01,-6.250000000000002776e-02,6.250000000000002776e-02,0.000000000000000000e+00,1.250000000000000555e-01,1.250000000000000555e-01,0.000000000000000000e+00,6.250000000000002776e-02,0.000000000000000000e+00,-1.875000000000000833e-01,-1.875000000000000833e-01,1.250000000000000833e-01,3.750000000000002220e-01,0.000000000000000000e+00,-3.750000000000002220e-01,-1.250000000000000833e-01,6.250000000000002776e-02,-6.250000000000002776e-02,6.250000000000002776e-02,3.125000000000001665e-01,1.875000000000001110e-01,-1.875000000000001110e-01,-3.125000000000001665e-01,-6.250000000000002776e-02,0.000000000000000000e+00,-1.875000000000000833e-01,1.250000000000000555e-01,4.375000000000002220e-01,-6.625000000000003553e+00,-1.950000000000001066e+01,-1.650000000000000711e+01,-5.624999999999982236e-01,6.062500000000003553e+00,6.750000000000001776e+00,3.937500000000001776e+00,-7.812500000000004441e+00,-1.031250000000000533e+01,5.375000000000003553e+00,1.118750000000000533e+01,6.812500000000001776e+00,9.187500000000003553e+00,1.937500000000001332e+00,-7.062500000000003553e+00,-2.625000000000001776e+00,-2.437500000000001776e+00,-5.500000000000003553e+00,5.625000000000000000e-01,5.687500000000002665e+00,5.937500000000002665e+00,8.687500000000003553e+00,2.500000000000000444e+00,-1.175000000000000533e+01,-7.250000000000003553e+00,9.250000000000003553e+00,6.625000000000003553e+00,-3.187500000000000888e+00,3.312500000000000888e+00,4.812500000000001776e+00,-7.375000000000002665e+00,-9.437500000000003553e+00,1.812500000000000888e+00,1.081250000000000355e+01,4.625000000000001776e+00,-3.250000000000001776e+00,5.312500000000002665e+00,8.687500000000003553e+00,-4.562500000000002665e+00,-1.300000000000000711e+01,-4.687500000000001776e+00,8.500000000000003553e+00,3.750000000000002220e+00,-4.312500000000001776e+00,3.875000000000001776e+00,2.750000000000001776e+00,-3.250000000000001332e+00,2.937500000000001332e+00,-9.375000000000000000e-01,-9.187500000000003553e+00,-5.312500000000001776e+00,1.875000000000001332e+00,7.562500000000003553e+00,4.000000000000001776e+00,-5.250000000000001776e+00,-8.812500000000003553e+00,-6.250000000000003553e+00,2.562500000000002220e+00,6.625000000000003553e+00,3.750000000000001332e+00,7.499999999999998890e-01,-6.062500000000003553e+00,-2.125000000000000888e+00,1.325000000000000711e+01,9.562500000000005329e+00,-7.812500000000003553e+00,-1.306250000000000711e+01,-3.500000000000001776e+00,1.293750000000000711e+01,1.425000000000000711e+01,-2.937500000000001776e+00,-7.625000000000004441e+00,-2.812500000000001776e+00,-6.625000000000002665e+00,-1.625000000000000000e+00,1.043750000000000533e+01,7.000000000000003553e+00,-6.687500000000003553e+00,-7.125000000000003553e+00,9.062500000000003553e+00,9.250000000000003553e+00,-6.687500000000002665e+00,-3.437500000000001332e+00,2.000000000000000888e+00,-7.750000000000003553e+00,-3.687500000000001776e+00,1.093750000000000533e+01,8.312500000000003553e+00,-2.250000000000001332e+00,1.625000000000000444e+00,5.312500000000001776e+00,-8.375000000000003553e+00,-1.206250000000000355e+01,3.875000000000002665e+00,1.100000000000000533e+01,4.812500000000002665e+00,-3.937500000000001332e+00,-4.812500000000002665e+00,5.562500000000001776e+00,3.187500000000001776e+00,-7.500000000000002665e+00,5.000000000000000000e-01,5.625000000000001776e+00,-4.062500000000001776e+00,-1.687500000000000444e+00,9.500000000000005329e+00,9.500000000000005329e+00,2.250000000000001332e+00,-4.187500000000001776e+00,-6.812500000000003553e+00,-4.375000000000004441e-01,5.062500000000001776e+00,-3.250000000000002220e+00,-1.206250000000000533e+01,-6.250000000000002665e+00,6.937500000000002665e+00,1.218750000000000533e+01,5.312500000000002665e+00,-3.187500000000001332e+00,-3.062500000000001332e+00,1.937500000000000444e+00,-8.750000000000004441e-01,-8.437500000000003553e+00,-3.437500000000000888e+00,4.000000000000001776e+00,-1.812500000000000888e+00,1.875000000000004441e-01,1.400000000000000533e+01,1.206250000000000355e+01,-7.125000000000003553e+00,-2.000000000000000711e+01,-8.750000000000001776e+00,9.437500000000005329e+00,4.812500000000001776e+00,-6.250000000000000000e-01,9.812500000000005329e+00,9.375000000000000000e-01,-1.850000000000000711e+01,-6.750000000000001776e+00,9.750000000000003553e+00,-2.125000000000001776e+00,-1.268750000000000711e+01,-6.125000000000003553e+00,2.312500000000000888e+00,7.187500000000003553e+00,1.312500000000000000e+00,-5.312500000000002665e+00,4.187500000000002665e+00,7.875000000000003553e+00,-5.062500000000003553e+00,-6.687500000000003553e+00,2.937500000000001776e+00,1.000000000000000888e+00,-1.125000000000000444e+00,4.250000000000001776e+00,4.375000000000004441e-01,-4.937500000000001776e+00,-2.625000000000000888e+00,1.187500000000000444e+00,3.312500000000001776e+00,1.250000000000002220e-01,-2.625000000000001332e+00,-3.500000000000001776e+00,-4.125000000000001776e+00,6.250000000000000000e-02,5.562500000000002665e+00,6.125000000000002665e+00,5.625000000000000000e-01,-5.437500000000002665e+00,-8.375000000000003553e+00,-1.187500000000000000e+00,1.050000000000000355e+01,3.875000000000000888e+00,-2.875000000000001776e+00,4.562500000000001776e+00,-2.125000000000000888e+00,-9.812500000000003553e+00,3.250000000000001776e+00,5.812500000000003553e+00,-4.187500000000001776e+00,-3.750000000000004441e-01,2.937500000000001332e+00,1.437500000000000888e+00,2.812500000000001776e+00,-5.437500000000002665e+00,-7.312500000000003553e+00,4.687500000000001776e+00,1.875000000000000000e+00,-4.625000000000001776e+00,7.062500000000003553e+00,1.062500000000000355e+01,-3.437500000000001776e+00,-8.812500000000003553e+00,-4.812500000000002665e+00,-6.000000000000003553e+00,-2.312500000000001776e+00,8.750000000000003553e+00,8.000000000000003553e+00,3.500000000000001776e+00,4.312500000000001776e+00,-5.687500000000002665e+00,-1.143750000000000533e+01,2.375000000000000888e+00,8.937500000000003553e+00,4.562500000000001776e+00,1.000000000000000666e+00,-9.062500000000003553e+00,-6.750000000000002665e+00,8.687500000000003553e+00,1.875000000000001776e+00,-6.250000000000001776e+00,5.250000000000003553e+00,3.312500000000002220e+00,-3.562500000000001332e+00,8.750000000000007772e-01,-4.875000000000002665e+00,-4.125000000000002665e+00,9.062500000000003553e+00,3.562500000000001776e+00,-5.062500000000002665e+00,-3.062500000000001332e+00,-4.437500000000001776e+00,-1.875000000000000000e-01,5.125000000000001776e+00,8.125000000000004441e-01,-2.750000000000000888e+00,-4.375000000000002220e-01,7.312500000000003553e+00,8.625000000000003553e+00,-5.375000000000002665e+00,-1.506250000000000711e+01,-2.687500000000001776e+00,1.387500000000000533e+01,8.937500000000003553e+00,-3.375000000000001776e+00,-2.437500000000001332e+00,-3.125000000000001110e-01,-5.875000000000003553e+00,-6.437500000000003553e+00,2.937500000000000888e+00,4.750000000000001776e+00,-2.062500000000000444e+00,-1.437500000000000444e+00,2.625000000000001332e+00,7.125000000000002665e+00,8.437500000000003553e+00,-5.062500000000001776e+00,-1.462500000000000711e+01,8.125000000000000000e-01,1.512500000000000711e+01,5.125000000000001776e+00,-9.250000000000005329e+00,-1.231250000000000533e+01,-5.875000000000001776e+00,9.312500000000003553e+00,1.406250000000000711e+01,-1.124999999999999112e+00,-8.000000000000003553e+00,-1.437500000000000888e+00,-1.875000000000000888e+00,-4.687500000000001776e+00,-5.000000000000000000e-01,5.625000000000006661e-01,-2.000000000000000888e+00,2.500000000000000888e+00,5.437500000000002665e+00,5.687500000000002665e+00,6.750000000000003553e+00,-3.562500000000002220e+00,-7.875000000000004441e+00,2.500000000000000888e+00,1.000000000000000444e+00,-5.000000000000001776e+00,-1.000000000000000444e+00,2.187500000000000888e+00,-2.500000000000000000e-01,-3.375000000000001332e+00,-1.187500000000000444e+00,3.500000000000001776e+00,4.562500000000001776e+00,1.250000000000000444e+00,8.750000000000005551e-01,3.625000000000001332e+00,2.499999999999993339e-01,-6.562500000000002665e+00,-6.500000000000002665e+00,2.500000000000000888e+00,6.250000000000002665e+00,3.187500000000001776e+00,-1.812500000000001110e+00,-1.093750000000000533e+01,-4.000000000000001776e+00,1.243750000000000533e+01,2.875000000000000888e+00,-1.381250000000000711e+01,-1.937500000000000000e+00,1.281250000000000711e+01,2.687500000000001776e+00,-2.937500000000000888e+00,1.000000000000000666e+00,-7.250000000000003553e+00,-7.500000000000003553e+00,3.750000000000001776e+00,5.750000000000002665e+00,3.125000000000001332e+00,4.375000000000001776e+00,2.812500000000001776e+00,-9.187500000000003553e+00,-8.687500000000003553e+00,1.218750000000000533e+01,1.068750000000000533e+01,-1.312500000000000533e+01,-9.500000000000003553e+00,1.368750000000000711e+01,8.812500000000003553e+00,-1.118750000000000355e+01,-6.875000000000002665e+00,5.562500000000002665e+00,2.937500000000001332e+00,-5.062500000000001776e+00,-8.812500000000003553e+00,6.250000000000000000e-02,1.143750000000000533e+01,6.000000000000003553e+00,-4.000000000000001776e+00,-4.000000000000001776e+00,-1.312500000000000444e+00,2.437500000000000888e+00,8.375000000000003553e+00,-1.250000000000008882e-01,-1.225000000000000711e+01,2.000000000000000000e+00,1.493750000000000711e+01,-1.250000000000000000e-01,-9.062500000000003553e+00,-4.875000000000001776e+00,-7.312500000000003553e+00,4.375000000000000000e-01,1.006250000000000355e+01,-3.312500000000001776e+00,-1.112500000000000533e+01,5.250000000000001776e+00,1.418750000000000711e+01,-1.875000000000000000e-01,-6.687500000000003553e+00,3.750000000000001776e+00,-2.812500000000000888e+00,-1.100000000000000533e+01,7.750000000000003553e+00,1.268750000000000533e+01,-8.375000000000005329e+00,-8.000000000000005329e+00,5.437500000000002665e+00,-2.562500000000001776e+00,-5.125000000000002665e+00,5.125000000000002665e+00,-3.500000000000001776e+00,-1.356250000000000711e+01,-4.562500000000001776e+00,7.375000000000001776e+00,1.500000000000000533e+01,8.812500000000003553e+00,-8.312500000000003553e+00,-8.812500000000003553e+00,6.250000000000022204e-02,6.250000000000022204e-02,2.500000000000000000e-01,4.375000000000003331e-01,2.812500000000001776e+00,8.750000000000003553e+00,2.625000000000000888e+00,-6.687500000000002665e+00,-8.062500000000003553e+00,-3.312500000000001332e+00,8.500000000000003553e+00,4.250000000000001776e+00,-8.062500000000003553e+00,1.312500000000000888e+00,5.125000000000001776e+00,-1.375000000000000888e+00,4.312500000000001776e+00,2.687500000000000888e+00,-5.312500000000001776e+00,-5.875000000000002665e+00,-6.437500000000003553e+00,6.250000000000000000e-02,1.131250000000000533e+01,1.062500000000000533e+01,-1.812500000000000000e+00,-6.812500000000003553e+00,-1.312500000000001110e+00,-7.750000000000003553e+00,-1.718750000000000711e+01,-4.312500000000001776e+00,1.250000000000000533e+01,1.068750000000000533e+01,8.062500000000003553e+00,3.750000000000000888e+00,-1.287500000000000711e+01,-1.137500000000000533e+01,7.500000000000003553e+00,1.568750000000000711e+01,1.181250000000000533e+01,-1.250000000000000000e+00,-7.000000000000002665e+00,5.625000000000004441e-01,2.312500000000001332e+00,-1.875000000000000555e-01,1.687500000000000888e+00,-1.625000000000000888e+00,-7.437500000000003553e+00,-1.937500000000000888e+00,5.437500000000002665e+00,7.687500000000004441e+00,8.125000000000008882e-01,-1.006250000000000533e+01,6.875000000000000000e-01,8.187500000000003553e+00,-9.750000000000005329e+00,-1.681250000000000711e+01,-4.187500000000001776e+00,7.062500000000002665e+00,2.000000000000000444e+00,-5.062500000000001776e+00,5.875000000000002665e+00,6.687500000000003553e+00,-3.312500000000001332e+00,-3.875000000000001776e+00,-7.437500000000002665e+00,-4.062500000000000888e+00,3.687500000000001332e+00,5.437500000000001776e+00,8.937500000000003553e+00,-4.375000000000001776e+00,-1.693750000000000711e+01,4.812500000000004441e+00,2.275000000000001066e+01,7.250000000000001776e+00,-1.237500000000000533e+01,-1.631250000000000711e+01,-5.062500000000002665e+00,1.468750000000000711e+01,1.475000000000000888e+01,-7.562500000000001776e+00,-1.412500000000000533e+01,4.500000000000001776e+00,1.306250000000000533e+01,-4.937500000000001776e+00,-1.037500000000000355e+01,1.125000000000000711e+01,1.125000000000000711e+01,-1.243750000000000533e+01,-1.081250000000000533e+01,8.687500000000003553e+00,1.368750000000000533e+01,1.875000000000000000e+00,-1.512500000000000711e+01,-1.193750000000000533e+01,6.250000000000003553e+00,1.112500000000000533e+01,1.087500000000000533e+01,7.437500000000003553e+00,-7.187500000000003553e+00,-2.531250000000001066e+01,-4.400000000000002132e+01,-3.112500000000001421e+01
4.250000000000001421e+01,6.000000000000001776e+00,1.600000000000000355e+01,-1.425000000000000355e+01,-5.000000000000000888e+00,6.750000000000000888e+00,-3.250000000000000888e+00,1.450000000000000355e+01,-1.700000000000000355e+01,-3.500000000000000888e+00,2.100000000000000711e+01,-1.225000000000000355e+01,-1.250000000000000355e+01,1.675000000000000355e+01,6.500000000000000888e+00,-1.150000000000000178e+01,-8.000000000000001776e+00,1.550000000000000355e+01,5.000000000000000000e-01,-1.550000000000000355e+01,9.250000000000001776e+00,4.500000000000001776e+00,7.500000000000000000e-01,3.250000000000000000e+00,-1.625000000000000355e+01,1.175000000000000355e+01,-9.000000000000001776e+00,1.700000000000000355e+01,-1.300000000000000355e+01,0.000000000000000000e+00,5.500000000000001776e+00,-1.575000000000000355e+01,2.475000000000000711e+01,-1.850000000000000355e+01,7.500000000000001776e+00,-1.750000000000000355e+01,2.075000000000000711e+01,-4.000000000000000888e+00,-1.275000000000000355e+01,8.000000000000001776e+00,1.000000000000000178e+01,-5.750000000000001776e+00,-1.250000000000000000e+00,8.750000000000001776e+00,-7.750000000000001776e+00,3.250000000000000444e+00,-1.100000000000000178e+01,7.500000000000000000e-01,1.850000000000000355e+01,-1.475000000000000355e+01,9.500000000000001776e+00,-6.500000000000001776e+00,-1.050000000000000178e+01,1.175000000000000355e+01,-1.175000000000000355e+01,1.575000000000000355e+01,-1.725000000000000355e+01,8.750000000000001776e+00,1.075000000000000178e+01,-1.850000000000000355e+01,1.625000000000000355e+01,-1.100000000000000355e+01,-2.500000000000000888e+00,1.600000000000000355e+01,-2.750000000000000000e+00,-1.250000000000000000e+00,-1.750000000000000355e+01,2.050000000000000355e+01,-5.750000000000000888e+00,-1.550000000000000355e+01,2.175000000000000711e+01,-2.050000000000000355e+01,2.400000000000000711e+01,-2.700000000000000711e+01,2.275000000000000711e+01,-1.925000000000000355e+01,7.500000000000000888e+00,-1.750000000000000000e+00,9.000000000000001776e+00,-9.750000000000001776e+00,2.500000000000000000e-01,1.225000000000000355e+01,-5.000000000000000000e-01,-1.825000000000000355e+01,1.475000000000000355e+01,6.500000000000000888e+00,-1.550000000000000355e+01,-1.000000000000000000e+00,1.300000000000000355e+01,2.000000000000000000e+00,-1.575000000000000355e+01,1.050000000000000178e+01,4.500000000000001776e+00,-1.650000000000000355e+01,1.650000000000000355e+01,-1.550000000000000355e+01,5.750000000000001776e+00,1.025000000000000178e+01,-4.500000000000000888e+00,-1.700000000000000355e+01,2.225000000000000711e+01,-2.100000000000000711e+01,2.275000000000000711e+01,-1.600000000000000355e+01,2.250000000000000000e+00,-5.000000000000000888e+00,2.750000000000000888e+00,1.250000000000000000e+00,9.750000000000001776e+00,-4.250000000000000888e+00,-1.200000000000000178e+01,6.500000000000000888e+00,1.525000000000000355e+01,-1.800000000000000355e+01,1.750000000000000888e+00,1.425000000000000355e+01,-6.500000000000001776e+00,7.500000000000004441e-01,-1.300000000000000355e+01,1.325000000000000355e+01,7.250000000000000888e+00,-1.125000000000000178e+01,1.050000000000000178e+01,-1.350000000000000355e+01,8.250000000000001776e+00,-2.750000000000000444e+00,-9.750000000000001776e+00,1.575000000000000355e+01,0.000000000000000000e+00,-1.575000000000000355e+01,3.500000000000000888e+00,1.225000000000000355e+01,2.250000000000000000e+00,-1.000000000000000178e+01,-9.250000000000001776e+00,2.350000000000000711e+01,-2.175000000000000711e+01,1.525000000000000355e+01,1.250000000000000000e+00,-1.550000000000000355e+01,1.050000000000000355e+01,2.500000000000000888e+00,-1.275000000000000355e+01,-4.500000000000000000e+00,-7.000000000000001776e+00,1.125000000000000178e+01,-6.250000000000001776e+00,9.500000000000003553e+00,1.800000000000000355e+01,-1.600000000000000355e+01,2.025000000000000355e+01,-9.750000000000001776e+00,-2.000000000000000000e+00,4.000000000000000000e+00,-1.700000000000000355e+01,3.750000000000000444e+00,1.200000000000000178e+01,-2.075000000000000355e+01,1.500000000000000355e+01,-1.750000000000000355e+01,1.075000000000000355e+01,4.750000000000000888e+00,-1.550000000000000355e+01,2.350000000000000711e+01,9.500000000000001776e+00,-8.750000000000001776e+00,-7.500000000000000888e+00,1.475000000000000355e+01,1.300000000000000355e+01,-2.325000000000000711e+01,-8.000000000000001776e+00,2.500000000000000555e-01,-5.000000000000001110e-01,-2.850000000000000711e+01,7.500000000000000000e-01,-2.000000000000000000e+00,-3.750000000000000711e+01,5.475000000000001421e+01,-7.750000000000000000e+00,2.000000000000000000e+00,1.925000000000000355e+01,3.425000000000000711e+01,-1.775000000000000355e+01,-6.500000000000001776e+00,2.500000000000000000e-01,-1.000000000000000000e+00,-1.575000000000000355e+01,1.700000000000000355e+01,-1.350000000000000178e+01,-4.250000000000001776e+00,8.750000000000001776e+00,5.000000000000001776e+00,5.000000000000000000e-01,-1.550000000000000355e+01,5.500000000000001776e+00,1.850000000000000355e+01,-2.025000000000000355e+01,1.025000000000000355e+01,-6.250000000000001776e+00,-1.000000000000000222e+00,-5.500000000000001776e+00,1.475000000000000355e+01,-8.500000000000001776e+00,-1.075000000000000178e+01,1.500000000000000355e+01,-1.775000000000000355e+01,9.000000000000003553e+00,3.750000000000000888e+00,8.000000000000001776e+00,-1.425000000000000355e+01,1.750000000000000888e+00,1.250000000000000355e+01,-7.500000000000000000e-01,-9.000000000000001776e+00,-1.250000000000000444e+00,3.000000000000000888e+00,1.450000000000000355e+01,-2.275000000000000711e+01,1.925000000000000355e+01,-7.250000000000001776e+00,-1.375000000000000178e+01,1.325000000000000178e+01,8.750000000000001776e+00,-2.375000000000000711e+01,1.550000000000000355e+01,7.750000000000001776e+00,-2.275000000000000711e+01,2.025000000000000711e+01,-1.625000000000000355e+01,8.750000000000001776e+00,6.500000000000001776e+00,-9.500000000000001776e+00,1.125000000000000178e+01,-9.750000000000001776e+00,-1.000000000000000178e+01,2.175000000000000355e+01,-1.925000000000000355e+01,1.125000000000000178e+01,5.250000000000001776e+00,-1.525000000000000355e+01,6.250000000000001776e+00,-3.250000000000000888e+00,1.550000000000000355e+01,-1.150000000000000178e+01,-3.750000000000000888e+00,8.750000000000001776e+00,-1.650000000000000355e+01,2.025000000000000355e+01,-1.125000000000000178e+01,-3.000000000000000444e+00,1.625000000000000355e+01,-1.875000000000000355e+01,2.125000000000000711e+01,-2.600000000000000711e+01,2.125000000000000711e+01,-1.525000000000000355e+01,7.750000000000001776e+00,8.000000000000001776e+00,-8.250000000000001776e+00,-9.000000000000001776e+00,9.750000000000001776e+00,7.500000000000001776e+00,-1.100000000000000178e+01,8.000000000000001776e+00,-1.175000000000000355e+01,-7.500000000000000000e-01,1.925000000000000711e+01,-1.325000000000000355e+01,-1.000000000000000178e+01,2.050000000000000355e+01,-1.875000000000000355e+01,1.400000000000000355e+01,-1.125000000000000355e+01,1.275000000000000355e+01,-9.750000000000003553e+00,1.200000000000000355e+01,-1.325000000000000355e+01,5.750000000000000888e+00,2.500000000000002220e-01,-2.750000000000000888e+00,3.250000000000000888e+00,-1.025000000000000178e+01,5.000000000000000888e+00,1.450000000000000355e+01,-2.075000000000000355e+01,7.500000000000001776e+00,1.375000000000000178e+01,-1.925000000000000355e+01,1.450000000000000355e+01,-2.000000000000000711e+01,1.425000000000000355e+01,7.250000000000001776e+00,-1.250000000000000355e+01,-4.000000000000000888e+00,1.425000000000000355e+01,-1.225000000000000355e+01,6.500000000000001776e+00,-5.000000000000001110e-01,5.000000000000000888e+00,1.250000000000000888e+00,-1.525000000000000355e+01,1.800000000000000355e+01,-1.525000000000000355e+01,2.500000000000000000e-01,1.400000000000000355e+01,-7.500000000000001776e+00,-9.500000000000001776e+00,8.000000000000001776e+00,1.225000000000000178e+01,-1.925000000000000355e+01,5.750000000000001776e+00,1.175000000000000178e+01,-1.375000000000000355e+01,2.100000000000000355e+01,-2.375000000000000711e+01,9.000000000000001776e+00,2.250000000000000444e+00,-1.025000000000000355e+01,-1.750000000000000000e+00,8.250000000000001776e+00,-1.525000000000000355e+01,2.225000000000000711e+01,-7.750000000000001776e+00,-1.225000000000000355e+01,1.650000000000000355e+01,5.000000000000000000e-01,-7.250000000000001776e+00,-2.250000000000000444e+00,1.200000000000000355e+01,-2.000000000000000711e+01,2.625000000000000711e+01,-2.125000000000000711e+01,5.500000000000001776e+00,9.750000000000001776e+00,-5.750000000000001776e+00,-7.250000000000001776e+00,2.000000000000000355e+01,-2.675000000000000711e+01,2.000000000000000711e+01,5.000000000000000000e-01,-1.500000000000000355e+01,1.850000000000000355e+01,-7.000000000000000888e+00,2.000000000000000888e+00,-1.275000000000000355e+01,3.475000000000000711e+01,-3.150000000000000711e+01,6.000000000000001776e+00,9.000000000000003553e+00,-1.025000000000000355e+01,-1.500000000000000444e+00,8.500000000000001776e+00,-5.500000000000000888e+00,-1.000000000000000444e+00,4.250000000000001776e+00,1.250000000000000000e+00,-1.650000000000000355e+01,1.825000000000000355e+01,-7.250000000000001776e+00,-1.100000000000000178e+01,1.925000000000000355e+01,-7.000000000000000888e+00,1.500000000000000000e+00,-2.100000000000000355e+01,1.950000000000000355e+01,-3.000000000000000888e+00,-7.250000000000001776e+00,1.325000000000000355e+01,-5.000000000000000000e-01,-1.850000000000000711e+01,1.300000000000000355e+01,-4.500000000000000888e+00,-6.250000000000000888e+00,1.800000000000000355e+01,-8.000000000000001776e+00,-1.200000000000000355e+01,2.050000000000000711e+01,-1.300000000000000355e+01,-1.750000000000000888e+00,1.725000000000000355e+01,-1.275000000000000178e+01,4.000000000000000888e+00,6.250000000000001776e+00,-1.825000000000000355e+01,1.650000000000000355e+01,-1.700000000000000355e+01,1.750000000000000355e+01,-1.850000000000000355e+01,1.750000000000000355e+01,-2.450000000000000711e+01,2.125000000000000355e+01,-7.750000000000001776e+00,5.000000000000000888e+00,9.750000000000001776e+00,-2.325000000000000711e+01,2.325000000000000711e+01,-2.050000000000000355e+01,2.200000000000000355e+01,-1.650000000000000355e+01,9.000000000000001776e+00,-2.675000000000000355e+01,2.850000000000000355e+01,-2.075000000000000355e+01,1.900000000000000355e+01,-1.550000000000000355e+01,1.375000000000000178e+01,6.250000000000001776e+00,-2.300000000000000711e+01,2.325000000000000711e+01,-1.275000000000000355e+01,-5.250000000000000888e+00,2.025000000000000355e+01,-2.325000000000000711e+01,1.800000000000000355e+01,-1.525000000000000355e+01,1.075000000000000178e+01,-7.000000000000001776e+00,1.700000000000000355e+01,-1.050000000000000178e+01,-1.250000000000000355e+01,1.800000000000000711e+01,-8.750000000000001776e+00,6.750000000000001776e+00,-1.050000000000000355e+01,0.000000000000000000e+00,1.825000000000000355e+01,-1.900000000000000355e+01,1.750000000000000888e+00,1.175000000000000355e+01,-5.500000000000001776e+00,-7.000000000000001776e+00,1.225000000000000355e+01,-7.500000000000008882e-01,-1.475000000000000355e+01,1.175000000000000178e+01,-1.300000000000000178e+01,1.750000000000000355e+01,-8.500000000000001776e+00,-6.500000000000001776e+00,1.550000000000000355e+01,-7.000000000000001776e+00,-4.250000000000000888e+00,3.250000000000000888e+00,2.500000000000000888e+00,-4.000000000000000888e+00,1.150000000000000178e+01,-2.250000000000000000e+00,1.000000000000000000e+00,-1.275000000000000355e+01,5.250000000000000888e+00,7.500000000000001776e+00,-1.400000000000000355e+01,7.750000000000001776e+00,0.000000000000000000e+00,1.750000000000000444e+00,-8.750000000000001776e+00,4.500000000000000888e+00,6.500000000000000888e+00,-1.225000000000000355e+01,9.500000000000003553e+00,-1.600000000000000355e+01,1.700000000000000355e+01,-5.500000000000001776e+00,6.250000000000001776e+00,-1.750000000000000000e+00,-1.200000000000000355e+01,1.050000000000000178e+01,7.250000000000001776e+00,-1.300000000000000355e+01,-3.000000000000000888e+00,1.550000000000000355e+01,-1.700000000000000355e+01,9.750000000000001776e+00,1.250000000000000222e+00,7.250000000000001776e+00,-5.000000000000000888e+00,5.000000000000000888e+00,-1.600000000000000355e+01,1.125000000000000355e+01,7.000000000000000888e+00,-2.400000000000000711e+01,2.225000000000000711e+01,-5.500000000000000888e+00,-1.350000000000000355e+01,2.725000000000000711e+01,-2.275000000000000355e+01,1.575000000000000355e+01,-7.500000000000000888e+00,2.500000000000000888e+00,-1.375000000000000355e+01,1.250000000000000355e+01,4.500000000000000888e+00,-1.350000000000000355e+01,1.550000000000000355e+01,-6.000000000000000888e+00,-1.175000000000000355e+01,2.275000000000000711e+01,-1.200000000000000355e+01,-1.050000000000000355e+01,3.075000000000000711e+01,-1.450000000000000533e+01,-1.000000000000000178e+01,-5.000000000000001110e-01,2.500000000000000555e-01,2.500000000000000555e-01,-2.500000000000000555e-01,0.000000000000000000e+00,-2.500000000000000555e-01,5.000000000000001110e-01,-5.000000000000001110e-01,2.500000000000000555e-01,2.500000000000000555e-01,-5.000000000000001110e-01,5.000000000000001110e-01,-2.500000000000000555e-01,0.000000000000000000e+00,0.000000000000000000e+00,-2.500000000000000555e-01,5.000000000000001110e-01,0.000000000000000000e+00,-5.000000000000001110e-01,2.500000000000000555e-01,0.000000000000000000e+00,0.000000000000000000e+00,-2.500000000000000555e-01,5.000000000000001110e-01,-2.500000000000000555e-01,2.500000000000000555e-01,-5.000000000000001110e-01,2.500000000000000555e-01,0.000000000000000000e+00,0.000000000000000000e+00,-5.000000000000001110e-01,1.000000000000000222e+00,-5.000000000000001110e-01,-2.500000000000000555e-01,-2.600000000000000711e+01,2.850000000000000711e+01,-2.250000000000000355e+01,2.100000000000000355e+01,-1.275000000000000355e+01,1.350000000000000355e+01,-2.325000000000000355e+01,1.075000000000000178e+01,1.400000000000000355e+01,-1.950000000000000355e+01,1.900000000000000355e+01,1.500000000000000444e+00,-1.925000000000000355e+01,1.925000000000000355e+01,-1.475000000000000355e+01,8.500000000000001776e+00,-1.300000000000000355e+01,1.875000000000000355e+01,-1.400000000000000355e+01,9.750000000000001776e+00,6.750000000000001776e+00,-1.350000000000000355e+01,-1.500000000000000000e+00,3.250000000000000888e+00,1.425000000000000355e+01,-2.000000000000000355e+01,9.500000000000001776e+00,9.000000000000001776e+00,-1.400000000000000355e+01,3.250000000000000888e+00,-4.000000000000000888e+00,5.750000000000001776e+00,9.250000000000001776e+00,-1.550000000000000355e+01,6.000000000000001776e+00,1.325000000000000178e+01,-1.500000000000000355e+01,6.750000000000001776e+00,-1.425000000000000178e+01,1.125000000000000178e+01,9.750000000000001776e+00,-2.225000000000000711e+01,1.475000000000000355e+01,7.000000000000001776e+00,-2.175000000000000711e+01,1.925000000000000711e+01,-2.250000000000000888e+00,-1.475000000000000355e+01,1.350000000000000355e+01,-1.250000000000000355e+01,9.000000000000001776e+00,7.250000000000001776e+00,-1.625000000000000355e+01,1.400000000000000355e+01,-1.750000000000000355e+01,8.500000000000003553e+00,6.250000000000001776e+00,-9.750000000000001776e+00,1.150000000000000355e+01,-6.000000000000001776e+00,-9.250000000000001776e+00,1.250000000000000178e+01,9.500000000000001776e+00,-1.700000000000000355e+01,8.500000000000001776e+00,-1.375000000000000355e+01,1.025000000000000355e+01,1.050000000000000178e+01,-5.250000000000000888e+00,-1.225000000000000355e+01,1.650000000000000355e+01,-1.250000000000000355e+01,-6.000000000000000888e+00,1.875000000000000355e+01,-1.200000000000000355e+01,1.375000000000000355e+01,-2.400000000000000711e+01,1.600000000000000355e+01,8.500000000000001776e+00,-1.150000000000000178e+01,-8.000000000000001776e+00,2.425000000000000711e+01,-2.525000000000000711e+01,7.000000000000000888e+00,3.500000000000000888e+00,6.000000000000001776e+00,-4.000000000000001776e+00,-7.750000000000001776e+00,1.850000000000000355e+01,-1.100000000000000355e+01,-1.075000000000000178e+01,9.250000000000001776e+00,4.750000000000000888e+00,-5.000000000000000888e+00,9.250000000000001776e+00,-1.600000000000000355e+01,8.000000000000001776e+00,1.275000000000000355e+01,-2.200000000000000711e+01,8.250000000000001776e+00,1.000000000000000178e+01,-1.225000000000000178e+01,5.000000000000002220e-01,7.000000000000000888e+00,1.250000000000000888e+00,1.250000000000000000e+00,-3.000000000000000888e+00,1.500000000000000888e+00,-1.100000000000000355e+01,1.850000000000000355e+01,-1.275000000000000355e+01,2.750000000000000444e+00,-1.050000000000000355e+01,9.750000000000003553e+00,7.500000000000000000e-01,5.500000000000000888e+00,-6.250000000000000888e+00,5.000000000000000000e-01,0.000000000000000000e+00,4.250000000000000888e+00,-5.000000000000000888e+00,-9.500000000000003553e+00,1.725000000000000355e+01,-1.000000000000000178e+01,-4.500000000000000888e+00,1.125000000000000355e+01,5.500000000000001776e+00,-5.500000000000001776e+00,-3.250000000000000888e+00,-1.575000000000000355e+01,1.900000000000000355e+01,2.000000000000000000e+00,-1.800000000000000355e+01,1.900000000000000355e+01,2.500000000000001776e+00,-1.475000000000000355e+01,-1.025000000000000178e+01,2.650000000000000711e+01,-1.500000000000000355e+01,-4.250000000000000888e+00,2.750000000000000444e+00,-2.750000000000000444e+00,2.000000000000000444e+00,1.100000000000000178e+01,-1.900000000000000355e+01,1.000000000000000178e+01,6.750000000000001776e+00,-5.250000000000001776e+00,-9.000000000000001776e+00,1.025000000000000178e+01,5.000000000000000000e-01,-1.050000000000000178e+01,1.100000000000000355e+01,2.250000000000000000e+00,-1.650000000000000355e+01,2.075000000000000355e+01,-2.375000000000000711e+01,2.375000000000000711e+01,-1.425000000000000355e+01,2.000000000000000444e+00,6.750000000000001776e+00,-1.625000000000000355e+01,1.675000000000000355e+01,-1.500000000000000355e+01,1.800000000000000355e+01,-1.050000000000000178e+01,1.750000000000000222e+00,1.250000000000000222e+00,-1.325000000000000355e+01,1.550000000000000355e+01,6.000000000000001776e+00,-2.325000000000000711e+01,2.375000000000000711e+01,-6.500000000000001776e+00,-1.125000000000000178e+01,3.750000000000000888e+00,1.550000000000000355e+01,-2.000000000000000355e+01,6.500000000000000888e+00,1.150000000000000355e+01,-2.200000000000000711e+01,2.475000000000000711e+01,-1.375000000000000178e+01,-5.750000000000001776e+00,6.750000000000001776e+00,8.500000000000001776e+00,-1.900000000000000711e+01,1.125000000000000355e+01,9.750000000000001776e+00,-1.075000000000000178e+01,1.000000000000000222e+00,-3.500000000000000888e+00,6.000000000000001776e+00,-1.550000000000000355e+01,1.500000000000000355e+01,3.250000000000000888e+00,-1.200000000000000355e+01,1.600000000000000355e+01,-6.000000000000001776e+00,-1.000000000000000178e+01,1.250000000000000000e+00,1.725000000000000355e+01,-2.100000000000000355e+01,2.125000000000000355e+01,-1.100000000000000178e+01,-1.275000000000000355e+01,1.675000000000000355e+01,5.250000000000000888e+00,-2.475000000000000711e+01,2.075000000000000355e+01,2.750000000000000888e+00,-2.075000000000000711e+01,2.150000000000000711e+01,-7.500000000000001776e+00,-1.525000000000000355e+01,2.125000000000000711e+01,-1.500000000000000000e+00,-1.675000000000000355e+01,2.050000000000000355e+01,-1.700000000000000355e+01,1.250000000000000000e+00,1.400000000000000355e+01,-1.675000000000000355e+01,1.550000000000000355e+01,-1.550000000000000355e+01,1.100000000000000178e+01,2.000000000000000444e+00,1.750000000000000888e+00,-1.300000000000000355e+01,1.000000000000000000e+00,4.750000000000001776e+00,1.450000000000000355e+01,-2.200000000000000711e+01,1.675000000000000355e+01,-1.125000000000000355e+01,8.250000000000001776e+00,-1.175000000000000355e+01,2.250000000000000888e+00,1.400000000000000355e+01,-1.900000000000000355e+01,1.375000000000000355e+01,-7.500000000000001776e+00,3.750000000000000888e+00,4.500000000000000888e+00,4.250000000000000888e+00,-1.775000000000000355e+01,3.500000000000000888e+00,1.250000000000000355e+01,-1.000000000000000000e+00,-6.750000000000001776e+00,0.000000000000000000e+00,-5.000000000000000888e+00,-1.250000000000000888e+00,1.825000000000000355e+01,-8.250000000000000000e+00,-1.025000000000000355e+01,1.425000000000000355e+01,-1.275000000000000355e+01,9.000000000000001776e+00,-1.375000000000000355e+01,1.900000000000000355e+01,-1.875000000000000355e+01,9.250000000000001776e+00,5.250000000000000888e+00,-1.050000000000000178e+01,1.400000000000000355e+01,-5.000000000000000000e-01,-1.825000000000000355e+01,1.625000000000000355e+01,1.000000000000000888e+00,-1.800000000000000355e+01,2.325000000000000711e+01,-2.525000000000000711e+01,2.850000000000000711e+01,-2.875000000000000711e+01,2.075000000000000711e+01,-1.275000000000000355e+01,8.250000000000001776e+00,3.250000000000001332e+00,-1.400000000000000355e+01,2.125000000000000711e+01,-1.875000000000000355e+01,1.475000000000000355e+01,-1.650000000000000355e+01,5.000000000000001776e+00,1.275000000000000178e+01,-1.975000000000000355e+01,2.400000000000000711e+01,-2.075000000000000711e+01,-2.000000000000000000e+00,1.250000000000000355e+01,5.000000000000000888e+00,-1.650000000000000355e+01,-5.000000000000000000e-01,1.325000000000000355e+01,3.250000000000000888e+00,-2.275000000000000711e+01,2.975000000000000711e+01,-2.050000000000000355e+01,-4.750000000000000888e+00,1.675000000000000355e+01,-1.625000000000000355e+01,1.900000000000000355e+01,-1.775000000000000355e+01,1.775000000000000355e+01,-6.750000000000000888e+00,-1.625000000000000355e+01,1.550000000000000355e+01,1.000000000000000355e+01,-1.250000000000000355e+01,-1.300000000000000355e+01,1.900000000000000711e+01,4.000000000000000000e+00,-1.075000000000000178e+01,-8.750000000000001776e+00,1.975000000000000355e+01,-1.500000000000000355e+01,9.500000000000001776e+00,-6.500000000000001776e+00,-1.100000000000000355e+01,2.475000000000000711e+01,-1.625000000000000355e+01,1.275000000000000355e+01,-1.750000000000000355e+01,1.775000000000000355e+01,-1.675000000000000355e+01,1.250000000000000355e+01,6.750000000000000888e+00,-1.925000000000000355e+01,2.750000000000000888e+00,1.600000000000000355e+01,-2.250000000000000000e+00,-1.900000000000000355e+01,2.225000000000000711e+01,-1.825000000000000711e+01,-1.750000000000000000e+00,1.725000000000000355e+01,-6.000000000000000888e+00,-1.400000000000000355e+01,1.150000000000000178e+01,2.500000000000000000e-01,1.300000000000000355e+01,-2.875000000000000711e+01,2.375000000000000711e+01,-1.500000000000000000e+00,-1.950000000000000711e+01,9.500000000000003553e+00,1.725000000000000355e+01,-1.550000000000000355e+01,-9.250000000000001776e+00,1.800000000000000355e+01,-3.750000000000000888e+00,-1.875000000000000355e+01,2.450000000000000711e+01,-9.000000000000001776e+00,-1.175000000000000178e+01,7.750000000000000888e+00,-3.250000000000000888e+00,4.250000000000001776e+00,1.275000000000000178e+01,-1.125000000000000178e+01,-1.000000000000000178e+01,1.900000000000000355e+01,-1.900000000000000355e+01,1.350000000000000355e+01,-5.750000000000001776e+00,0.000000000000000000e+00,1.250000000000000000e+00,1.575000000000000355e+01,-2.975000000000000711e+01,3.000000000000000711e+01,-3.250000000000000711e+01,2.100000000000000355e+01,7.500000000000000888e+00,-2.200000000000000355e+01,8.500000000000000000e+00,1.475000000000000355e+01,-2.425000000000000711e+01,1.700000000000000355e+01,4.500000000000000888e+00,-2.050000000000000355e+01,2.200000000000000355e+01,-2.125000000000000355e+01,7.000000000000000888e+00,6.250000000000001776e+00,-3.750000000000000888e+00,1.600000000000000355e+01,-3.100000000000000711e+01,2.950000000000000711e+01,-1.950000000000000711e+01,3.750000000000001332e+00,-1.600000000000000355e+01,2.125000000000000355e+01,-1.750000000000000222e+00,-1.025000000000000178e+01,2.525000000000000711e+01,-2.150000000000000355e+01,-7.750000000000002665e+00,1.775000000000000355e+01,-9.250000000000001776e+00,1.300000000000000355e+01,3.000000000000000000e+00,-2.350000000000000711e+01,2.825000000000000711e+01,-2.500000000000000711e+01,2.375000000000000711e+01,-2.525000000000000711e+01,2.950000000000000711e+01,-2.975000000000000711e+01,1.275000000000000178e+01,5.000000000000001776e+00,-1.475000000000000355e+01,2.950000000000000711e+01,-3.150000000000000711e+01,6.250000000000000888e+00,2.050000000000000355e+01,-2.025000000000000355e+01,-2.750000000000000888e+00,5.250000000000001776e+00,-1.125000000000000355e+01,2.800000000000000711e+01,-3.450000000000000711e+01,1.775000000000000355e+01,1.500000000000000355e+01,-3.300000000000000711e+01,3.225000000000000711e+01,-2.200000000000000711e+01,-4.000000000000001776e+00,2.225000000000000711e+01,-2.550000000000000711e+01,2.125000000000000355e+01,4.750000000000000888e+00,-3.100000000000000711e+01,1.850000000000000355e+01,4.000000000000000888e+00,1.150000000000000355e+01,-2.200000000000000711e+01,1.350000000000000355e+01,-2.150000000000000355e+01,1.625000000000000355e+01,1.175000000000000178e+01,-1.325000000000000178e+01,-2.000000000000000444e+00,-6.000000000000000888e+00,2.075000000000000355e+01,-7.750000000000000888e+00,-1.525000000000000355e+01,1.075000000000000355e+01,1.725000000000000355e+01,-1.975000000000000355e+01,-7.250000000000000888e+00,1.800000000000000355e+01,-1.000000000000000355e+01,1.550000000000000355e+01,-1.200000000000000355e+01,-1.550000000000000355e+01,2.150000000000000711e+01,-8.250000000000001776e+00,3.000000000000000888e+00,1.150000000000000355e+01,-9.000000000000003553e+00,-7.000000000000001776e+00,4.250000000000000888e+00,-5.175000000000001421e+01
