-2.684950000000005588e+01,-2.483387500000005232e+01,-2.370887500000004877e+01,-2.319325000000004877e+01,-2.213075000000004877e+01,-2.244325000000004877e+01,-2.274012500000004877e+01,-2.370887500000004877e+01,-2.513075000000005588e+01,-2.825575000000005588e+01,-3.089637500000005588e+01,-3.302137500000005588e+01,-3.575575000000005588e+01,-3.866200000000005588e+01,-4.174012500000005588e+01,-4.344325000000005588e+01,-4.411512500000005588e+01,-4.324012500000005588e+01,-4.317762500000005588e+01,-4.261512500000005588e+01,-4.259950000000005588e+01,-4.175575000000005588e+01,-4.078700000000005588e+01,-4.000575000000005588e+01,-3.975575000000005588e+01,-3.999012500000005588e+01,-3.884950000000005588e+01,-3.734950000000005588e+01,-3.499012500000005588e+01,-3.239637500000005588e+01,-2.936512500000005588e+01,-2.683387500000005588e+01,-2.525575000000005588e+01,-2.355262500000004877e+01,-2.291200000000004877e+01,-2.372450000000004877e+01,-2.430262500000005232e+01,-2.595887500000005588e+01,-2.845887500000005588e+01,-3.033387500000005588e+01,-3.047450000000005588e+01,-3.142762500000005588e+01,-3.241200000000005588e+01,-3.249012500000005588e+01,-3.322450000000005588e+01,-3.299012500000005588e+01,-3.161512500000005588e+01,-3.083387500000005588e+01,-3.180262500000005588e+01,-3.222450000000005588e+01,-3.189637500000005588e+01,-3.167762500000005588e+01,-3.056825000000005588e+01,-3.013075000000005588e+01,-3.105262500000005588e+01,-3.155262500000005588e+01,-3.100575000000005588e+01,-2.991200000000005588e+01,-2.895887500000005588e+01,-2.781825000000005588e+01,-2.802137500000005588e+01,-2.784950000000005588e+01,-2.716200000000005588e+01,-2.706825000000005588e+01,-2.659950000000005588e+01,-2.669325000000005588e+01,-2.758387500000005588e+01,-2.895887500000005588e+01,-2.922450000000005588e+01,-3.041200000000005588e+01,-3.074012500000005588e+01,-3.108387500000005588e+01,-3.303700000000005588e+01,-3.552137500000005588e+01,-3.761512500000005588e+01,-3.947450000000005588e+01,-4.228700000000005588e+01,-4.349012500000005588e+01,-4.556825000000005588e+01,-4.745887500000006298e+01,-4.777137500000006298e+01,-4.791200000000006298e+01,-4.742762500000006298e+01,-4.670887500000006298e+01,-4.533387500000005588e+01,-4.463075000000005588e+01,-4.409950000000005588e+01,-4.220887500000005588e+01,-4.053700000000005588e+01,-3.759950000000005588e+01,-3.563075000000005588e+01,-3.295887500000005588e+01,-2.919325000000005588e+01,-2.588075000000005232e+01,-2.175575000000004877e+01,-1.892762500000004522e+01,-1.675575000000004522e+01,-1.625575000000004522e+01,-1.505262500000004522e+01,-1.592762500000004522e+01,-1.902137500000004877e+01,-2.199012500000004877e+01,-2.624012500000005588e+01,-3.138075000000005588e+01,-3.613075000000005588e+01,-4.008387500000006298e+01,-4.527137500000007009e+01,-4.861512500000007719e+01,-5.108387500000007719e+01,-5.406825000000007719e+01,-5.591200000000007719e+01,-5.613075000000007719e+01,-5.681825000000007719e+01,-5.759950000000007719e+01,-5.653700000000007719e+01,-5.619325000000007719e+01,-5.609950000000007719e+01,-5.520887500000007719e+01,-5.434950000000007719e+01,-5.413075000000007719e+01,-5.372450000000007719e+01,-5.250575000000007719e+01,-5.247450000000007719e+01,-5.297450000000007719e+01,-5.209950000000007719e+01,-5.113075000000007719e+01,-5.113075000000007719e+01,-5.092762500000007719e+01,-4.991200000000007719e+01,-5.031825000000007719e+01,-4.994325000000007719e+01,-4.824012500000007719e+01,-4.772450000000006298e+01,-4.622450000000006298e+01,-4.345887500000006298e+01,-4.094325000000005588e+01,-3.817762500000005588e+01,-3.413075000000005588e+01,-3.075575000000005588e+01,-2.739637500000005588e+01,-2.288075000000005232e+01,-2.014637500000004877e+01,-1.780262500000004522e+01,-1.452137500000004522e+01,-1.264637500000004344e+01,-1.136512500000004167e+01,-8.912000000000039890e+00,-7.349500000000039890e+00,-7.240125000000039890e+00,-6.349500000000039002e+00,-6.083875000000038114e+00,-7.974500000000039890e+00,-9.896375000000039890e+00,-1.277137500000004167e+01,-1.774012500000004522e+01,-2.295887500000004877e+01,-2.847450000000005588e+01,-3.486512500000005588e+01,-4.175575000000006298e+01,-4.711512500000007719e+01,-5.253700000000007719e+01,-5.694325000000007719e+01,-6.064637500000007719e+01,-6.506825000000007719e+01,-6.858387500000007719e+01,-7.184950000000007719e+01,-7.406825000000007719e+01,-7.684950000000007719e+01,-7.867762500000007719e+01,-8.063075000000007719e+01,-8.149012500000007719e+01,-8.097450000000007719e+01,-8.089637500000007719e+01,-7.963075000000007719e+01,-7.791200000000007719e+01,-7.634950000000007719e+01,-7.530262500000007719e+01,-7.342762500000007719e+01,-7.225575000000007719e+01,-7.134950000000007719e+01,-6.958387500000007719e+01,-6.972450000000007719e+01,-7.066200000000007719e+01,-7.005262500000007719e+01,-6.934950000000007719e+01,-6.972450000000007719e+01,-6.994325000000007719e+01,-7.000575000000007719e+01,-7.083387500000007719e+01,-6.938075000000007719e+01,-6.783387500000007719e+01,-6.713075000000007719e+01,-6.603700000000007719e+01,-6.445887500000007719e+01,-6.275575000000007719e+01,-6.011512500000007719e+01,-5.656825000000007719e+01,-5.427137500000007719e+01,-5.116200000000007719e+01,-4.927137500000007719e+01,-4.769325000000006298e+01,-4.670887500000006298e+01,-4.700575000000006298e+01,-4.828700000000007009e+01,-5.136512500000007719e+01,-5.495887500000007719e+01,-5.897450000000007719e+01,-6.188075000000007719e+01,-6.480262500000007719e+01,-6.638075000000007719e+01,-6.614637500000007719e+01,-6.675575000000007719e+01,-6.613075000000007719e+01,-6.463075000000007719e+01,-6.438075000000007719e+01,-6.369325000000007719e+01,-6.228700000000007719e+01,-6.180262500000007719e+01,-6.272450000000007719e+01,-6.266200000000007719e+01,-6.166200000000007719e+01,-6.095887500000007719e+01,-5.872450000000007719e+01,-5.630262500000007719e+01,-5.477137500000007719e+01,-5.313075000000007719e+01,-4.964637500000007719e+01,-4.634950000000006298e+01,-4.445887500000006298e+01,-4.252137500000005588e+01,-4.091200000000005588e+01,-4.041200000000005588e+01,-3.972450000000005588e+01,-3.927137500000005588e+01,-4.081825000000005588e+01,-4.230262500000005588e+01,-4.280262500000005588e+01,-4.261512500000005588e+01,-4.220887500000005588e+01,-4.114637500000005588e+01,-3.978700000000005588e+01,-3.836512500000005588e+01,-3.624012500000005588e+01,-3.314637500000005588e+01,-3.049012500000005588e+01,-2.811512500000005588e+01,-2.583387500000005588e+01,-2.349012500000005232e+01,-2.025575000000004877e+01,-1.691200000000004522e+01,-1.299012500000004167e+01,-1.022450000000003989e+01,-8.333875000000039890e+00,-6.630750000000039890e+00,-5.068250000000038114e+00,-4.349500000000037225e+00,-5.052625000000037225e+00,-4.802625000000037225e+00,-4.427625000000037225e+00,-4.037000000000037225e+00,-2.208875000000036337e+00,-1.255750000000035449e+00,-9.120000000000352269e-01,-3.963750000000347273e-01,1.973749999999656057e-01,-1.151250000000345608e-01,-1.443250000000035449e+00,-2.927625000000036337e+00,-4.771375000000038114e+00,-5.771375000000038114e+00,-5.927625000000038114e+00,-5.505750000000038114e+00,-3.740125000000036337e+00,-2.099500000000035449e+00,6.192499999999661053e-01,4.681749999999968104e+00,8.087999999999970768e+00,1.268174999999997254e+01,1.691612499999997610e+01,2.054112499999997965e+01,2.146299999999997965e+01,2.186924999999997965e+01,2.029112499999997965e+01,1.618174999999997610e+01,1.035362499999997254e+01,8.799999999996499511e-02,-1.309950000000004167e+01,-2.767762500000004877e+01,-4.227137500000006298e+01,-5.899012500000007719e+01,-7.683387500000009140e+01,-9.524012500000010562e+01,-1.138182500000001198e+02,-1.302713750000001198e+02,-1.452870000000001198e+02,-1.614901250000001198e+02,-1.790213750000001482e+02,-1.956151250000002051e+02,-2.114120000000002051e+02,-2.265370000000002051e+02,-2.394276250000002051e+02,-2.553026250000002051e+02,-2.714432500000002051e+02,-2.851620000000002051e+02,-2.966463750000002051e+02,-3.084120000000002051e+02,-3.193026250000002051e+02,-3.309901250000002051e+02,-3.449276250000002051e+02,-3.528807500000002051e+02,-3.592713750000002051e+02,-3.641620000000002051e+02,-3.681932500000002051e+02,-3.703026250000002051e+02,-3.714901250000002051e+02,-3.702401250000002051e+02,-3.663807500000002051e+02,-3.655838750000002051e+02,-3.654432500000002051e+02,-3.673651250000002051e+02,-3.704901250000002051e+02,-3.728963750000002051e+02,-3.750995000000002051e+02,-3.775526250000002051e+02,-3.790995000000002051e+02,-3.775995000000002051e+02,-3.750370000000002051e+02,-3.702870000000002051e+02,-3.632245000000002051e+02,-3.552713750000002051e+02,-3.467401250000002051e+02,-3.369276250000002051e+02,-3.280682500000002051e+02,-3.218963750000002051e+02,-3.133651250000002051e+02,-3.038338750000002051e+02,-2.946151250000002051e+02,-2.863495000000002051e+02,-2.787088750000002051e+02,-2.702401250000002051e+02,-2.605370000000002051e+02,-2.483651250000002051e+02,-2.377088750000002051e+02,-2.277245000000002051e+02,-2.157245000000002051e+02,-2.012088750000002051e+02,-1.849432500000002051e+02,-1.704432500000001482e+02,-1.558963750000001198e+02,-1.410526250000001198e+02,-1.254588750000001198e+02,-1.107088750000001198e+02,-9.884950000000011983e+01,-8.839637500000009140e+01,-7.825575000000007719e+01,-6.569325000000007719e+01,-5.256825000000006298e+01,-3.953700000000006298e+01,-2.719325000000004877e+01,-1.408387500000004167e+01,1.837999999999967216e+00,1.707237499999997610e+01,3.154112499999998676e+01,4.355674999999999386e+01,5.365050000000000807e+01,6.200987500000000807e+01,7.057237500000000807e+01,7.910362500000000807e+01,8.471300000000000807e+01,8.918175000000002228e+01,9.424425000000003649e+01,1.009161250000000507e+02,1.081192500000000507e+02,1.166661250000000507e+02,1.244786250000000507e+02,1.331973750000000507e+02,1.437911250000000507e+02,1.559317500000000507e+02,1.676973750000000507e+02,1.777598750000000791e+02,1.868848750000000791e+02,1.943692500000001360e+02,2.022911250000001360e+02,2.078223750000001360e+02,2.115880000000001360e+02,2.147911250000001360e+02,2.170255000000001360e+02,2.194786250000001360e+02,2.241348750000001360e+02,2.291348750000001360e+02,2.327911250000001360e+02,2.371192500000001360e+02,2.419317500000001360e+02,2.464005000000001360e+02,2.502130000000001360e+02,2.526348750000001360e+02,2.511505000000001360e+02,2.482598750000001360e+02,2.449786250000001360e+02,2.406661250000001360e+02,2.346192500000001360e+02,2.272911250000001360e+02,2.208848750000001360e+02,2.160411250000001360e+02,2.125880000000001360e+02,2.102442500000001360e+02,2.096192500000001360e+02,2.100098750000001360e+02,2.109630000000001360e+02,2.126661250000001360e+02,2.132130000000001360e+02,2.123067500000001360e+02,2.127286250000001360e+02,2.137911250000001360e+02,2.123692500000001360e+02,2.086973750000001360e+02,2.060411250000001360e+02,2.032911250000001360e+02,2.003067500000001360e+02,1.980567500000001360e+02,1.939473750000001075e+02,1.888067500000000791e+02,1.858380000000000507e+02,1.852442500000000507e+02,1.840880000000000507e+02,1.832442500000000507e+02,1.834473750000000507e+02,1.835255000000000507e+02,1.844317500000000507e+02,1.859786250000000507e+02,1.865098750000000507e+02,1.862442500000000507e+02,1.863848750000000507e+02,1.855098750000000507e+02,1.855098750000000507e+02,1.867755000000000507e+02,1.882442500000000507e+02,1.884786250000000507e+02,1.889005000000000507e+02,1.887286250000000507e+02,1.881192500000000507e+02,1.887286250000000507e+02,1.870098750000000507e+02,1.835255000000000507e+02,1.807911250000000507e+02,1.794942500000000507e+02,1.775098750000000507e+02,1.765255000000000507e+02,1.753223750000000507e+02,1.743692500000000507e+02,1.742286250000000507e+02,1.745567500000000507e+02,1.741348750000000507e+02,1.738848750000000507e+02,1.754942500000000507e+02,1.774317500000000507e+02,1.793536250000000507e+02,1.803692500000000507e+02,1.826973750000000507e+02,1.850255000000000507e+02,1.877130000000000507e+02,1.896036250000000507e+02,1.895411250000000507e+02,1.897755000000000791e+02,1.909942500000000791e+02,1.930880000000001360e+02,1.944317500000001360e+02,1.967598750000001360e+02,1.991817500000001360e+02,2.013848750000001360e+02,2.038223750000001360e+02,2.047442500000001360e+02,2.057755000000001360e+02,2.066192500000001360e+02,2.079005000000001360e+02,2.091348750000001360e+02,2.101036250000001360e+02,2.122286250000001360e+02,2.163223750000001360e+02,2.214005000000001360e+02,2.257130000000001360e+02,2.288223750000001360e+02,2.317286250000001360e+02,2.340723750000001360e+02,2.356348750000001360e+02,2.361505000000001360e+02,2.351817500000001360e+02,2.345723750000001360e+02,2.341661250000001360e+02,2.351817500000001360e+02,2.354005000000001360e+02,2.351505000000001360e+02,2.356505000000001360e+02,2.359005000000001360e+02,2.355411250000001360e+02,2.335255000000001360e+02,2.315723750000001360e+02,2.282598750000001360e+02,2.259473750000001360e+02,2.230411250000001360e+02,2.186973750000001360e+02,2.154317500000001360e+02,2.136036250000001360e+02,2.132755000000001360e+02,2.119161250000001360e+02,2.115098750000001360e+02,2.106505000000001360e+02,2.110098750000001360e+02,2.126817500000001360e+02,2.141973750000001360e+02,2.153067500000001360e+02,2.148848750000001360e+02,2.156973750000001360e+02,2.163380000000001360e+02,2.164005000000001360e+02,2.153536250000001360e+02,2.138380000000001360e+02,2.112598750000001360e+02,2.069942500000001360e+02,2.040567500000001360e+02,2.010411250000001360e+02,1.957442500000001360e+02,1.904942500000001075e+02,1.866505000000000791e+02,1.819473750000000507e+02,1.770723750000000507e+02,1.729786250000000507e+02,1.679005000000000507e+02,1.600723750000000507e+02,1.546505000000000507e+02,1.493223750000000507e+02,1.430255000000000507e+02,1.378848750000000507e+02,1.333223750000000507e+02,1.276348750000000507e+02,1.221973750000000507e+02,1.186192500000000507e+02,1.155567500000000507e+02,1.118536250000000507e+02,1.084942500000000507e+02,1.042130000000000507e+02,9.790050000000005070e+01,9.375987500000002228e+01,8.840050000000002228e+01,8.377550000000002228e+01,7.688487500000000807e+01,6.977550000000000807e+01,6.046300000000000807e+01,5.080675000000000097e+01,4.365049999999999386e+01,3.515049999999998676e+01,2.765049999999998320e+01,1.955674999999997965e+01,1.261924999999997254e+01,6.962999999999968992e+00,2.681749999999967216e+00,6.504999999999658833e-01,-2.365125000000036337e+00,-4.318250000000038114e+00,-4.615125000000038114e+00,-4.646375000000038114e+00,-4.865125000000038114e+00,-4.802625000000038114e+00,-2.958875000000036781e+00,-2.630750000000036337e+00,-9.745000000000351159e-01,4.112499999996543920e-02,-9.120000000000352269e-01,-3.365125000000036337e+00,-5.990125000000038114e+00,-9.880750000000041666e+00,-1.527137500000004522e+01,-2.069325000000004877e+01,-2.850575000000005588e+01,-3.670887500000006298e+01,-4.402137500000006298e+01,-4.967762500000007719e+01,-5.499012500000007719e+01,-6.028700000000007719e+01,-6.556825000000007719e+01,-7.078700000000007719e+01,-7.534950000000007719e+01,-7.991200000000007719e+01,-8.697450000000009140e+01,-9.616200000000010562e+01,-1.053182500000001198e+02,-1.155526250000001198e+02,-1.268651250000001198e+02,-1.383495000000001198e+02,-1.494120000000001198e+02,-1.601307500000001198e+02,-1.688651250000001198e+02,-1.747713750000001198e+02,-1.802245000000001198e+02,-1.833963750000001198e+02,-1.847245000000001198e+02,-1.855838750000001198e+02,-1.838495000000001198e+02,-1.798807500000001198e+02,-1.732557500000001198e+02,-1.655682500000001198e+02,-1.572557500000001198e+02,-1.472713750000001198e+02,-1.371932500000001198e+02,-1.250682500000001198e+02,-1.142557500000001198e+02,-1.065370000000001198e+02,-1.011463750000001198e+02,-9.949012500000011983e+01,-1.009120000000001198e+02,-1.061463750000001198e+02,-1.140682500000001198e+02,-1.273807500000001198e+02,-1.431151250000001198e+02,-1.590838750000001482e+02,-1.761151250000001482e+02,-1.904901250000002051e+02,-2.015682500000002051e+02,-2.106776250000002051e+02,-2.152245000000002051e+02,-2.148026250000002051e+02,-2.127557500000002051e+02,-2.075526250000002051e+02,-2.012557500000002051e+02,-1.964901250000002051e+02,-1.918651250000001482e+02,-1.892401250000001482e+02,-1.941932500000001482e+02,-2.044745000000002051e+02,-2.170682500000002051e+02,-2.349120000000002051e+02,-2.557870000000002051e+02,-2.802401250000002051e+02,-3.092088750000002051e+02,-3.395995000000002619e+02,-3.654588750000002619e+02,-3.883338750000003756e+02,-4.108182500000003756e+02,-4.315682500000003756e+02,-4.505526250000003756e+02,-4.658026250000003756e+02,-4.790838750000003756e+02,-4.890526250000003756e+02,-4.981463750000003756e+02,-5.062557500000003756e+02,-5.121776250000003756e+02,-5.161307500000003756e+02,-5.185995000000003756e+02,-5.203807500000003756e+02,-5.203651250000003756e+02,-5.203338750000003756e+02,-5.203182500000003756e+02,-5.203026250000003756e+02,-5.203026250000003756e+02,-5.203026250000003756e+02,-5.203026250000003756e+02,-5.203026250000003756e+02,-5.202713750000003756e+02,-5.202557500000003756e+02,-5.202401250000003756e+02,-5.202088750000003756e+02,-5.201776250000003756e+02,-5.201151250000003756e+02,-5.200682500000003756e+02,-5.200213750000003756e+02,-5.199901250000003756e+02,-5.199901250000003756e+02,-5.199901250000003756e+02,-5.200370000000003756e+02,-5.200838750000003756e+02,-5.201776250000003756e+02,-5.202401250000003756e+02,-5.203026250000003756e+02,-5.203651250000003756e+02,-5.203807500000003756e+02,-5.203807500000003756e+02,-5.203338750000003756e+02,-5.202870000000003756e+02,-5.202401250000003756e+02,-5.202088750000003756e+02,-5.201932500000003756e+02,-5.201776250000003756e+02,-5.201776250000003756e+02,-5.202088750000003756e+02,-5.202245000000003756e+02,-5.202245000000003756e+02,-5.201932500000003756e+02,-5.201463750000003756e+02,-5.200838750000003756e+02,-5.200213750000003756e+02,-5.199588750000003756e+02,-5.198807500000003756e+02,-5.198651250000003756e+02,-5.198807500000003756e+02,-5.199276250000003756e+02,-5.200057500000003756e+02,-5.200682500000003756e+02,-5.201307500000003756e+02,-5.201932500000003756e+02,-5.202557500000003756e+02,-5.202713750000003756e+02,-5.202870000000003756e+02,-5.202713750000003756e+02,-5.199745000000003756e+02,-5.183026250000003756e+02,-5.154901250000003756e+02,-5.104901250000003756e+02,-5.035838750000003756e+02,-4.939276250000003756e+02,-4.814588750000003756e+02,-4.644588750000003756e+02,-4.439745000000003756e+02,-4.227088750000003756e+02,-3.986932500000003756e+02,-3.731463750000003756e+02,-3.459432500000002619e+02,-3.194276250000002051e+02,-2.922088750000002051e+02,-2.687870000000002051e+02,-2.470057500000002051e+02,-2.253026250000002051e+02,-2.048182500000002051e+02,-1.854588750000002051e+02,-1.668651250000001482e+02,-1.468182500000001198e+02,-1.275995000000001198e+02,-1.063495000000001056e+02,-8.369325000000009140e+01,-5.955262500000006298e+01,-3.691200000000005588e+01,-1.494325000000004700e+01,6.181749999999968992e+00,2.621299999999997965e+01,4.510362499999999386e+01,6.338487500000000807e+01,7.824425000000000807e+01,9.090050000000002228e+01,1.045567500000000507e+02,1.163536250000000507e+02,1.262286250000000507e+02,1.344317500000000507e+02,1.422598750000000507e+02,1.496817500000000507e+02,1.605411250000000507e+02,1.724161250000000507e+02,1.853536250000000791e+02,2.033223750000001360e+02,2.266192500000001360e+02,2.532286250000001360e+02,2.827130000000001360e+02,3.140880000000001360e+02,3.443380000000001928e+02,3.748848750000003065e+02,4.035880000000003065e+02,4.272911250000003065e+02,4.456973750000003065e+02,4.599786250000003065e+02,4.701505000000003065e+02,4.765880000000003065e+02,4.804786250000003065e+02,4.815411250000003065e+02,4.811661250000003065e+02,4.806661250000003065e+02,4.800723750000003065e+02,4.795411250000003065e+02,4.791348750000003065e+02,4.788380000000003065e+02,4.787911250000003065e+02,4.789942500000003065e+02,4.792598750000003065e+02,4.795567500000003065e+02,4.799005000000003065e+02,4.802442500000003065e+02,4.805411250000003065e+02,4.808223750000003065e+02,4.810098750000003065e+02,4.810567500000003065e+02,4.810723750000003065e+02,4.810567500000003065e+02,4.809942500000003065e+02,4.808536250000003065e+02,4.806505000000003065e+02,4.802598750000003065e+02,4.797286250000003065e+02,4.784942500000003065e+02,4.764005000000003065e+02,4.739473750000003065e+02,4.701192500000003065e+02,4.660255000000003065e+02,4.615098750000003065e+02,4.568692500000003065e+02,4.519786250000003065e+02,4.470567500000003065e+02,4.427755000000003065e+02,4.389473750000003065e+02,4.367286250000003065e+02,4.349942500000003065e+02,4.338380000000003065e+02,4.322130000000003065e+02,4.309942500000003065e+02,4.315723750000003065e+02,4.328848750000003065e+02,4.338380000000003065e+02,4.355098750000003065e+02,4.361661250000003065e+02,4.355880000000003065e+02,4.353848750000003065e+02,4.332755000000003065e+02,4.289630000000003065e+02,4.224161250000003065e+02,4.150880000000003065e+02,4.047130000000003065e+02,3.945567500000003065e+02,3.852598750000003065e+02,3.763692500000001928e+02,3.686973750000001360e+02,3.616817500000001360e+02,3.557442500000001360e+02,3.491505000000001360e+02,3.440411250000001360e+02,3.374630000000001360e+02,3.300098750000001360e+02,3.203067500000001360e+02,3.105880000000001360e+02,3.006192500000001360e+02,2.908380000000001360e+02,2.830723750000001360e+02,2.750880000000001360e+02,2.697286250000001360e+02,2.649942500000001360e+02,2.624161250000001360e+02,2.606505000000001360e+02,2.594161250000001360e+02,2.591036250000001360e+02,2.583692500000001360e+02,2.584630000000001360e+02,2.581036250000001360e+02,2.581661250000001360e+02,2.589161250000001360e+02,2.605723750000001360e+02,2.627755000000001360e+02,2.634630000000001360e+02,2.640255000000001360e+02,2.651348750000001360e+02,2.653692500000001360e+02,2.658848750000001360e+02,2.644630000000001360e+02,2.595411250000001360e+02,2.529630000000001360e+02,2.472130000000001360e+02,2.403067500000001360e+02,2.300723750000001360e+02,2.194005000000001360e+02,2.068536250000001360e+02,1.939317500000001360e+02,1.831036250000000791e+02,1.714473750000000507e+02,1.591348750000000507e+02,1.479161250000000507e+02,1.395880000000000507e+02,1.317911250000000507e+02,1.243848750000000507e+02,1.195255000000000507e+02,1.139005000000000507e+02,1.111192500000000507e+02,1.092130000000000507e+02,1.070723750000000507e+02,1.054786250000000507e+02,1.046348750000000507e+02,1.055411250000000507e+02,1.048380000000000507e+02,1.064317500000000507e+02,1.068536250000000507e+02,1.066036250000000507e+02,1.078848750000000507e+02,1.086036250000000507e+02,1.100880000000000507e+02,1.107130000000000507e+02,1.123067500000000507e+02,1.123692500000000507e+02,1.126192500000000507e+02,1.133692500000000507e+02,1.109317500000000507e+02,1.063223750000000507e+02,9.944737500000005070e+01,9.299425000000002228e+01,8.561925000000002228e+01,7.708800000000000807e+01,6.824425000000000807e+01,5.869737500000000807e+01,5.210362500000000807e+01,4.805675000000000097e+01,4.580674999999999386e+01,4.358799999999999386e+01,4.168174999999998676e+01,4.222862499999998676e+01,4.433799999999999386e+01,4.700987500000000097e+01,4.849425000000000807e+01,5.022862500000000807e+01,5.118175000000000807e+01,5.194737500000000807e+01,5.274425000000000807e+01,5.158800000000000807e+01,4.808800000000000807e+01,4.535362500000000097e+01,4.271299999999999386e+01,3.886924999999999386e+01,3.422862499999998676e+01,2.925987499999998676e+01,2.419737499999997965e+01,1.991612499999997610e+01,1.643174999999997610e+01,1.102549999999997254e+01,5.884874999999968992e+00,-1.776250000000341167e-01,-4.833875000000036337e+00,-9.177625000000039890e+00,-1.274012500000004167e+01,-1.581825000000004522e+01,-1.802137500000004522e+01,-1.767762500000004522e+01,-1.731825000000004522e+01,-1.416200000000004344e+01,-1.120887500000004167e+01,-8.005750000000039890e+00,-4.630750000000038114e+00,-1.755750000000035671e+00,1.962999999999966994e+00,4.306749999999968104e+00,6.259874999999968992e+00,6.259874999999968992e+00,6.400499999999968992e+00,6.806749999999969880e+00,6.556749999999969880e+00,6.041124999999968992e+00,4.025499999999968104e+00,1.978624999999966771e+00,8.067499999999658833e-01,9.317499999999659943e-01,8.848749999999658833e-01,-1.307500000000347273e-01,-6.932500000000350049e-01,-5.370000000000348939e-01,-2.245000000000347273e-01,2.286249999999656057e-01,5.567499999999657723e-01,-5.370000000000350049e-01,-1.927625000000035893e+00,-2.396375000000036337e+00,-4.193250000000037225e+00,-6.396375000000038114e+00,-8.162000000000039890e+00,-9.568250000000039890e+00,-1.259950000000004167e+01,-1.509950000000004522e+01,-1.667762500000004522e+01,-1.878700000000004522e+01,-1.934950000000004522e+01,-1.933387500000004522e+01,-1.991200000000004522e+01,-2.106825000000004522e+01,-2.056825000000004522e+01,-1.952137500000004522e+01,-1.903700000000004522e+01,-1.855262500000004522e+01,-1.839637500000004522e+01,-1.961512500000004522e+01,-2.122450000000004877e+01,-2.147450000000004877e+01,-2.158387500000004877e+01,-2.324012500000005232e+01,-2.524012500000005588e+01,-2.800575000000005588e+01,-3.108387500000005588e+01,-3.225575000000005588e+01,-3.286512500000005588e+01,-3.564637500000005588e+01,-3.934950000000005588e+01,-4.070887500000005588e+01,-4.181825000000005588e+01,-4.078700000000005588e+01,-4.033387500000005588e+01,-4.178700000000005588e+01,-4.194325000000005588e+01,-4.049012500000005588e+01,-3.881825000000005588e+01,-3.817762500000005588e+01,-3.720887500000005588e+01,-3.844325000000005588e+01,-3.867762500000005588e+01,-3.656825000000005588e+01,-3.605262500000005588e+01,-3.589637500000005588e+01,-3.486512500000005588e+01,-3.408387500000005588e+01,-3.361512500000005588e+01,-3.105262500000005588e+01,-2.878700000000005588e+01,-2.811512500000005588e+01
-8.125000000000006661e-01,2.343750000000001665e-01,4.843750000000002776e-01,2.093750000000001332e+00,3.593750000000001776e+00,3.156250000000001776e+00,3.390625000000001776e+00,1.609375000000000888e+00,1.343750000000000444e+00,1.656250000000001110e+00,1.859375000000001554e+00,3.484375000000002665e+00,1.343750000000001110e+00,-1.875000000000001332e+00,-4.421875000000002665e+00,-7.468750000000004441e+00,-6.296875000000003553e+00,-3.734375000000002220e+00,-2.421875000000001776e+00,2.031250000000002220e-01,1.375000000000000888e+00,3.281250000000002220e+00,5.437500000000003553e+00,5.281250000000003553e+00,2.218750000000001332e+00,-3.109375000000002220e+00,-8.000000000000005329e+00,-1.081250000000000711e+01,-7.734375000000005329e+00,-2.890625000000001776e+00,3.015625000000002220e+00,8.484375000000005329e+00,8.281250000000005329e+00,7.640625000000005329e+00,5.000000000000003553e+00,1.250000000000000888e+00,-4.687500000000005551e-02,-1.140625000000000888e+00,-1.015625000000000444e+00,-1.265625000000000888e+00,-1.062500000000000666e+00,-2.296875000000001332e+00,-4.562500000000002665e+00,-3.171875000000001776e+00,-1.250000000000000888e+00,1.828125000000000888e+00,5.390625000000003553e+00,3.796875000000002665e+00,-6.093749999999998890e-01,-3.687500000000001776e+00,-5.140625000000002665e+00,-1.921875000000000888e+00,2.656250000000001776e+00,4.218750000000002665e+00,3.765625000000002220e+00,-9.218750000000004441e-01,-3.031250000000001776e+00,-2.875000000000001776e+00,-3.640625000000002220e+00,1.562500000000000000e-01,-1.562500000000022204e-02,-3.125000000000004441e-01,3.812500000000001776e+00,3.593750000000001776e+00,4.625000000000003553e+00,4.406250000000003553e+00,-1.765625000000001332e+00,-4.703125000000003553e+00,-5.187500000000003553e+00,-3.625000000000003109e+00,2.453125000000000888e+00,6.046875000000003553e+00,6.937500000000004441e+00,4.234375000000002665e+00,5.781250000000006661e-01,-1.125000000000000444e+00,-3.250000000000001776e+00,-1.984375000000001332e+00,-2.531250000000001332e+00,-4.203125000000002665e+00,-4.203125000000002665e+00,-3.812500000000002665e+00,-1.609375000000001110e+00,7.968750000000006661e-01,3.734375000000002665e+00,1.906250000000001332e+00,5.625000000000005551e-01,-1.140625000000000444e+00,-5.625000000000003553e+00,-3.750000000000002220e+00,-4.656250000000003553e+00,-3.265625000000002220e+00,9.687500000000007772e-01,9.062500000000008882e-01,3.343750000000002665e+00,2.890625000000002665e+00,2.593750000000001776e+00,4.031250000000003553e+00,5.140625000000003553e+00,8.515625000000005329e+00,8.546875000000005329e+00,6.390625000000003553e+00,4.265625000000002665e+00,-1.468750000000000666e+00,-4.843750000000002665e+00,-4.453125000000002665e+00,-5.828125000000003553e+00,-3.796875000000002665e+00,-1.015625000000000666e+00,-1.593750000000001332e+00,-1.000000000000000888e+00,-6.562500000000005551e-01,-2.343750000000001776e+00,-2.812500000000001776e+00,-2.187500000000001332e+00,-2.343750000000001332e+00,-7.500000000000003331e-01,1.296875000000000888e+00,2.562500000000001776e+00,3.218750000000001776e+00,2.187500000000001332e+00,-9.375000000000011102e-02,-2.625000000000001776e+00,-3.187500000000001776e+00,-2.875000000000001776e+00,2.187500000000002220e-01,3.218750000000002665e+00,2.265625000000001776e+00,3.000000000000001776e+00,2.187500000000000000e-01,-3.656250000000002665e+00,-1.984375000000001332e+00,-3.125000000000001332e+00,-3.937500000000001776e+00,-1.203125000000000888e+00,-2.906250000000001776e+00,-4.109375000000002665e+00,-3.437500000000004441e-01,-1.562500000000000000e-01,1.546875000000000666e+00,5.593750000000003553e+00,2.734375000000001332e+00,1.265625000000000666e+00,4.843750000000000000e-01,-2.015625000000001776e+00,7.812500000000000000e-02,1.687500000000001110e+00,3.187500000000002220e+00,3.265625000000002220e+00,8.750000000000006661e-01,1.421875000000000666e+00,9.375000000000002220e-01,3.546875000000001776e+00,9.609375000000005329e+00,9.953125000000005329e+00,9.296875000000005329e+00,5.562500000000002665e+00,-4.421875000000002665e+00,-8.968750000000005329e+00,-1.035937500000000711e+01,-9.187500000000005329e+00,-7.812500000000000000e-01,2.859375000000001776e+00,5.218750000000004441e+00,4.796875000000003553e+00,-1.187500000000000222e+00,-2.218750000000000888e+00,-6.250000000000003553e+00,-6.359375000000003553e+00,-2.968750000000001776e+00,-4.421875000000002665e+00,-3.750000000000002220e-01,4.687499999999977796e-02,-2.656250000000001776e+00,6.249999999999988898e-02,-1.750000000000000888e+00,-1.546875000000000666e+00,3.078125000000001776e+00,2.218750000000001332e+00,3.500000000000002665e+00,2.921875000000002220e+00,-1.000000000000000666e+00,-4.375000000000003331e-01,-1.546875000000001110e+00,1.187500000000000666e+00,2.625000000000001776e+00,-4.687500000000007216e-01,8.437500000000002220e-01,-3.578125000000001776e+00,-4.593750000000002665e+00,-1.562500000000000347e-02,-2.968750000000001776e+00,-3.125000000000004441e-01,1.984375000000000888e+00,-2.468750000000001332e+00,9.531250000000006661e-01,-4.687500000000008882e-01,-4.640625000000003553e+00,-1.562500000000000666e+00,-2.765625000000001332e+00,1.843750000000002220e+00,9.921875000000007105e+00,1.303125000000000888e+01,1.443750000000001066e+01,9.328125000000007105e+00,6.093750000000000000e-01,-8.375000000000007105e+00,-1.153125000000000888e+01,-1.073437500000000711e+01,-7.968750000000005329e+00,-1.078125000000001110e+00,-9.375000000000000000e-02,3.125000000000000000e-02,2.156250000000001776e+00,1.593750000000001110e+00,3.781250000000002665e+00,5.500000000000003553e+00,2.578125000000001776e+00,-2.000000000000001332e+00,-5.437500000000004441e+00,-7.812500000000005329e+00,-5.328125000000003553e+00,6.250000000000000000e-02,1.765625000000001332e+00,3.859375000000002665e+00,1.093750000000000666e+00,-3.203125000000001776e+00,-1.687500000000000888e+00,-3.328125000000002220e+00,3.593750000000004441e-01,6.687500000000004441e+00,5.625000000000003553e+00,8.375000000000005329e+00,5.546875000000004441e+00,-1.531250000000000888e+00,-1.734375000000001332e+00,-5.609375000000003553e+00,-4.859375000000002665e+00,-2.140625000000001332e+00,-5.203125000000003553e+00,-3.250000000000001776e+00,-3.421875000000001776e+00,-1.546875000000000444e+00,5.296875000000003553e+00,5.828125000000004441e+00,5.703125000000004441e+00,7.968750000000013323e-01,-7.046875000000003553e+00,-9.343750000000005329e+00,-8.937500000000005329e+00,-2.484375000000001776e+00,5.187500000000003553e+00,1.117187500000000711e+01,1.309375000000000888e+01,9.093750000000005329e+00,4.062500000000002665e+00,-4.359375000000001776e+00,-8.796875000000005329e+00,-8.421875000000005329e+00,-7.750000000000005329e+00,-2.015625000000001332e+00,2.781250000000001776e+00,4.875000000000003553e+00,8.109375000000005329e+00,8.828125000000005329e+00,5.640625000000003553e+00,2.718750000000001776e+00,-2.296875000000001776e+00,-8.265625000000005329e+00,-7.265625000000004441e+00,-6.359375000000004441e+00,-3.468750000000002220e+00,1.703125000000000888e+00,-4.375000000000004441e-01,-1.031250000000000666e+00,-3.531250000000002220e+00,-5.937500000000003553e+00,-2.968750000000001776e+00,-1.328125000000001110e+00,4.859375000000002665e+00,8.625000000000005329e+00,1.196875000000000711e+01,1.660937500000001066e+01,1.403125000000000888e+01,1.317187500000000711e+01,1.000000000000000533e+01,4.875000000000002665e+00,6.578125000000003553e+00,6.546875000000003553e+00,5.328125000000003553e+00,3.984375000000003109e+00,-3.484375000000003109e+00,-7.343750000000005329e+00,-8.453125000000005329e+00,-8.125000000000005329e+00,-9.218750000000002220e-01,1.796875000000000666e+00,5.640625000000002665e+00,9.937500000000007105e+00,4.125000000000002665e+00,-1.046875000000000222e+00,-8.484375000000003553e+00,-1.784375000000001066e+01,-1.375000000000000711e+01,-2.890625000000000888e+00,4.750000000000003553e+00,1.357812500000001066e+01,1.057812500000000711e+01,-2.109375000000002665e+00,-9.656250000000007105e+00,-1.720312500000001066e+01,-2.006250000000001421e+01,-1.790625000000001066e+01,-1.248437500000000711e+01,-6.921875000000004441e+00,2.453125000000000444e+00,1.284375000000000711e+01,1.248437500000000711e+01,1.278125000000000711e+01,6.203125000000004441e+00,-1.859375000000001332e+00,-4.531250000000003331e-01,-2.937500000000001332e+00,-1.796875000000000444e+00,-4.625000000000001776e+00,-1.418750000000000711e+01,-1.662500000000001066e+01,-2.006250000000001421e+01,-1.337500000000000711e+01,1.796875000000001998e+00,7.953125000000006217e+00,1.582812500000001066e+01,1.209375000000000711e+01,-4.531250000000002220e-01,-4.359375000000002665e+00,-1.132812500000000711e+01,-9.109375000000005329e+00,-3.062500000000001776e+00,-5.156250000000004441e-01,6.328125000000004441e+00,5.500000000000004441e+00,4.140625000000002665e+00,-9.531250000000004441e-01,-1.025000000000000711e+01,-1.262500000000000888e+01,-1.439062500000000711e+01,-9.343750000000003553e+00,-5.937499999999997780e-01,4.734375000000002665e+00,1.164062500000000711e+01,1.292187500000000711e+01,8.984375000000003553e+00,5.937500000000003553e+00,-1.390625000000001332e+00,-4.218750000000002665e+00,-2.656250000000001776e+00,-5.843750000000003553e+00,-5.062500000000002665e+00,-8.343750000000005329e+00,-1.026562500000000711e+01,-2.375000000000002220e+00,3.765625000000001332e+00,1.323437500000000711e+01,1.715625000000001066e+01,1.318750000000000888e+01,9.203125000000005329e+00,1.578125000000001554e+00,-1.953125000000001332e+00,-3.250000000000002220e+00,-4.406250000000003553e+00,-1.031250000000000888e+00,4.843750000000004441e-01,9.687500000000009992e-01,-7.031249999999997780e-01,-6.078125000000003553e+00,-9.484375000000005329e+00,-1.095312500000000711e+01,-5.968750000000004441e+00,2.031249999999996114e-01,6.203125000000003553e+00,1.351562500000000711e+01,1.346875000000000711e+01,1.429687500000000888e+01,1.157812500000000711e+01,2.312500000000001332e+00,-2.953125000000001332e+00,-8.937500000000007105e+00,-1.095312500000000711e+01,-5.984375000000003553e+00,-1.484375000000001332e+00,2.546875000000001332e+00,4.343750000000002665e+00,4.406250000000002665e+00,3.000000000000001776e+00,2.187500000000001776e+00,4.390625000000002665e+00,5.750000000000002665e+00,1.089062500000000533e+01,1.573437500000000888e+01,1.435937500000000711e+01,9.843750000000005329e+00,-1.953125000000002665e+00,-1.479687500000001066e+01,-2.045312500000001421e+01,-1.993750000000001421e+01,-1.090625000000000711e+01,1.031250000000000888e+00,7.953125000000004441e+00,9.625000000000005329e+00,4.296875000000001776e+00,-2.125000000000001776e+00,-3.781250000000002665e+00,-2.703125000000001776e+00,3.609375000000002220e+00,7.656250000000005329e+00,5.515625000000004441e+00,4.234375000000003553e+00,1.093750000000000000e-01,-1.968750000000001332e+00,-2.187500000000001665e-01,-3.593750000000002220e-01,1.562500000000002220e-01,-1.312500000000000888e+00,-2.906250000000001776e+00,-5.750000000000003553e+00,-9.343750000000005329e+00,-7.484375000000004441e+00,-5.062500000000003553e+00,1.656250000000000888e+00,1.023437500000000711e+01,1.082812500000000711e+01,8.593750000000005329e+00,8.281250000000000000e-01,-7.921875000000005329e+00,-1.010937500000000711e+01,-9.937500000000007105e+00,-3.218750000000002220e+00,2.171875000000000888e+00,5.000000000000003553e+00,9.859375000000007105e+00,7.593750000000005329e+00,6.296875000000003553e+00,5.390625000000003553e+00,-2.625000000000001776e+00,-4.765625000000003553e+00,-5.281250000000003553e+00,-8.171875000000005329e+00,-2.812500000000001776e+00,7.812500000000022204e-02,1.562500000000002220e-01,4.734375000000003553e+00,3.218750000000002665e+00,3.281249999999999445e-01,3.281249999999999445e-01,-5.843750000000003553e+00,-8.468750000000005329e+00,-7.140625000000003553e+00,-7.781250000000005329e+00,1.015625000000000444e+00,9.000000000000005329e+00,1.081250000000000711e+01,1.248437500000000711e+01,4.171875000000001776e+00,-6.687500000000003553e+00,-9.406250000000007105e+00,-1.143750000000000711e+01,-7.406250000000004441e+00,2.140625000000000888e+00,3.093750000000001776e+00,5.578125000000002665e+00,6.140625000000003553e+00,1.406250000000000888e+00,4.812500000000003553e+00,3.343750000000002665e+00,4.375000000000004441e-01,-1.359375000000000222e+00,-1.045312500000000711e+01,-1.264062500000000711e+01,-1.135937500000000711e+01,-6.562500000000004441e+00,4.812500000000003553e+00,1.095312500000000711e+01,1.529687500000001066e+01,1.407812500000000711e+01,6.515625000000003553e+00,0.000000000000000000e+00,-7.281250000000005329e+00,-9.421875000000007105e+00,-6.453125000000004441e+00,-2.656250000000001776e+00,2.500000000000001776e+00,4.687500000000003553e+00,3.437500000000002220e+00,3.625000000000002220e+00,2.359375000000001332e+00,2.250000000000001332e+00,5.140625000000002665e+00,3.765625000000001776e+00,2.515625000000001332e+00,-3.281250000000004441e-01,-4.921875000000003553e+00,-5.968750000000003553e+00,-4.640625000000003553e+00,-2.312500000000001776e+00,-1.390625000000000888e+00,-7.343750000000003331e-01,-2.625000000000001332e+00,-2.546875000000001332e+00,1.562500000000004718e-01,8.281250000000008882e-01,2.281250000000001776e+00,1.265625000000001110e+00,-1.171875000000000888e+00,-3.750000000000003331e-01,1.625000000000000888e+00,3.421875000000001776e+00,7.062500000000003553e+00,7.140625000000003553e+00,4.968750000000002665e+00,3.656250000000002220e+00,-2.015625000000001332e+00,-3.468750000000002665e+00,-4.468750000000003553e+00,-4.625000000000003553e+00,3.265625000000001332e+00,2.953125000000001332e+00,4.984375000000003553e+00,6.937500000000004441e+00,-1.734375000000001110e+00,1.312500000000000888e+00,6.406250000000000000e-01,-3.125000000000002665e+00,5.156250000000001110e-01,-6.671875000000004441e+00,-8.234375000000005329e+00,-4.734375000000002665e+00,-2.218750000000001332e+00,8.468750000000005329e+00,9.921875000000007105e+00,5.468750000000003553e+00,-9.375000000000008882e-01,-1.037500000000000711e+01,-9.296875000000007105e+00,1.874999999999995559e-01,1.012500000000000533e+01,1.564062500000000888e+01,1.456250000000000888e+01,2.000000000000000888e+00,-6.781250000000003553e+00,-8.687500000000005329e+00,-9.187500000000007105e+00,6.875000000000008882e-01,1.718750000000001332e+00,-4.687500000000000000e-01,-2.625000000000001332e+00,-1.121875000000000711e+01,-9.000000000000007105e+00,-6.421875000000005329e+00,-2.468750000000001776e+00,4.078125000000002665e+00,2.671875000000001776e+00,8.281250000000008882e-01,-3.234375000000002220e+00,-5.890625000000003553e+00,-3.656250000000002665e+00,-1.625000000000001332e+00,3.609375000000002665e+00,7.312500000000005329e+00,7.390625000000005329e+00,1.132812500000000711e+01,1.078125000000000711e+01,7.671875000000005329e+00,5.468750000000003553e+00,-3.531250000000001776e+00,-8.265625000000005329e+00,-8.265625000000005329e+00,-6.671875000000003553e+00,-2.968750000000000000e-01,2.500000000000001776e+00,1.656250000000001110e+00,0.000000000000000000e+00,-2.000000000000001332e+00,-6.875000000000005551e-01,4.812500000000002665e+00,1.093750000000000711e+01,1.390625000000000888e+01,1.489062500000000888e+01,7.203125000000003553e+00,-5.062500000000003553e+00,-1.168750000000000711e+01,-2.015625000000001421e+01,-1.710937500000001066e+01,-6.578125000000003553e+00,-3.812500000000000888e+00,4.109375000000002665e+00,8.750000000000008882e-01,-7.390625000000003553e+00,-7.875000000000005329e+00,-1.484375000000000888e+01,-1.196875000000000711e+01,-9.468750000000007105e+00,-1.065625000000000711e+01,-3.515625000000002220e+00,-1.531250000000000444e+00,5.843750000000003553e+00,1.278125000000000711e+01,1.375000000000000888e+01,1.504687500000001066e+01,1.270312500000000888e+01,1.475000000000001066e+01,1.635937500000001066e+01,2.040625000000001421e+01,2.221875000000001421e+01,1.326562500000000711e+01,6.859375000000005329e+00,-6.734375000000004441e+00,-2.192187500000001421e+01,-2.503125000000002132e+01,-3.142187500000002132e+01,-2.987500000000001421e+01,-1.717187500000000711e+01,-1.046875000000000711e+01,1.265625000000001776e+00,1.340625000000001066e+01,1.364062500000000888e+01,1.389062500000000888e+01,1.370312500000000711e+01,9.968750000000005329e+00,1.618750000000001066e+01,2.878125000000001776e+01,3.531250000000002132e+01,3.531250000000002132e+01,2.176562500000001421e+01,-4.515625000000002665e+00,-2.531250000000001776e+01,-3.251562500000002132e+01,-2.739062500000001776e+01,-1.028125000000000711e+01,2.593750000000001332e+00,5.140625000000003553e+00,2.390625000000001776e+00,-8.265625000000005329e+00,-1.435937500000001066e+01,-1.526562500000001066e+01,-1.440625000000000888e+01,-8.359375000000005329e+00,-4.281250000000002665e+00,-1.750000000000001332e+00,9.375000000000006939e-02,7.812500000000005551e-02,4.687500000000002776e-02,3.125000000000002082e-02,1.562500000000001041e-02,-4.687500000000004163e-02,-4.687500000000004163e-02,-4.687500000000004163e-02,-4.687500000000004163e-02,4.687500000000004163e-02,3.125000000000002776e-02,1.562500000000001735e-02,-1.562500000000000694e-02,-1.093750000000000833e-01,-1.093750000000000833e-01,-9.375000000000008327e-02,-1.562500000000001388e-02,7.812500000000006939e-02,2.031250000000001665e-01,2.656250000000002220e-01,2.500000000000002220e-01,2.343750000000001943e-01,1.562500000000004163e-02,-1.093750000000000555e-01,-2.343750000000001665e-01,-3.593750000000002776e-01,-2.187500000000001665e-01,-1.562500000000001388e-01,-1.562500000000002776e-02,1.250000000000001110e-01,7.812500000000006939e-02,1.093750000000000833e-01,9.375000000000006939e-02,7.812500000000005551e-02,1.406250000000001110e-01,1.093750000000000833e-01,0.000000000000000000e+00,-1.250000000000001110e-01,-2.812500000000002220e-01,-3.906250000000003331e-01,-2.656250000000002220e-01,-7.812500000000004163e-02,1.718750000000001388e-01,4.687500000000003331e-01,4.531250000000003331e-01,3.437500000000002220e-01,1.406250000000001110e-01,-1.562500000000001110e-01,-2.187500000000001665e-01,-2.187500000000001665e-01,-1.562500000000001110e-01,-3.125000000000002082e-02,-1.562500000000001041e-02,0.000000000000000000e+00,-1.562500000000001041e-02,-3.125000000000001665e-01,-1.921875000000001554e+00,-4.734375000000003553e+00,-9.671875000000007105e+00,-1.545312500000001066e+01,-1.854687500000001066e+01,-1.976562500000001421e+01,-1.689062500000001421e+01,-1.200000000000000888e+01,-7.828125000000005329e+00,-4.468750000000002665e+00,-1.828125000000000888e+00,1.031250000000001554e+00,2.140625000000001776e+00,4.984375000000003553e+00,7.500000000000006217e+00,9.031250000000007105e+00,1.270312500000001066e+01,1.359375000000001066e+01,7.859375000000006217e+00,-2.968750000000000000e-01,-1.190625000000000888e+01,-2.200000000000001421e+01,-1.900000000000001421e+01,-1.146875000000000711e+01,2.328125000000002665e+00,1.693750000000001421e+01,1.784375000000001066e+01,1.653125000000001066e+01,8.750000000000005329e+00,-3.203125000000003553e+00,-3.609375000000003553e+00,-3.781250000000002665e+00,1.250000000000000000e+00,1.203125000000000888e+01,1.473437500000001066e+01,1.510937500000001066e+01,9.906250000000007105e+00,8.906250000000006661e-01,-6.218750000000004441e+00,-1.276562500000000888e+01,-1.551562500000001066e+01,-1.920312500000001421e+01,-2.260937500000001421e+01,-2.134375000000001421e+01,-2.170312500000001066e+01,-1.675000000000000711e+01,-5.687500000000001776e+00,3.812500000000002665e+00,1.807812500000001066e+01,2.918750000000001421e+01,3.154687500000002132e+01,3.007812500000002132e+01,2.210937500000001421e+01,1.268750000000000711e+01,6.500000000000003553e+00,2.609375000000001776e+00,1.234375000000000666e+00,9.843750000000006661e-01,6.718750000000004441e-01,-1.093750000000001110e-01,-1.015625000000000444e+00,-1.609375000000000888e+00,-1.937500000000001332e+00,-1.515625000000000888e+00,-6.562500000000004441e-01,7.812500000000002776e-02,6.562500000000004441e-01,7.500000000000005551e-01,5.312500000000004441e-01,2.968750000000002220e-01,7.812500000000005551e-02,1.562500000000001041e-02,3.125000000000002082e-02,7.812500000000005551e-02,2.187500000000001110e-01,3.437500000000002220e-01,4.218750000000003331e-01,5.000000000000003331e-01,5.156250000000003331e-01,5.468750000000003331e-01,1.281250000000000888e+00,2.750000000000001776e+00,4.265625000000003553e+00,6.906250000000004441e+00,7.125000000000004441e+00,4.640625000000003553e+00,1.718750000000001110e+00,-5.828125000000004441e+00,-9.031250000000007105e+00,-8.187500000000007105e+00,-6.859375000000005329e+00,1.859375000000001332e+00,4.031250000000002665e+00,1.937500000000001332e+00,8.125000000000006661e-01,-7.406250000000005329e+00,-7.671875000000005329e+00,-3.671875000000001776e+00,-3.125000000000001776e+00,2.703125000000002220e+00,3.296875000000002665e+00,1.750000000000001332e+00,5.515625000000004441e+00,8.750000000000005329e+00,1.287500000000000711e+01,1.604687500000001066e+01,1.393750000000000888e+01,6.125000000000004441e+00,-1.843750000000000444e+00,-9.859375000000005329e+00,-1.496875000000001066e+01,-1.354687500000001066e+01,-1.071875000000000711e+01,-3.968750000000002665e+00,4.500000000000002665e+00,9.609375000000007105e+00,1.462500000000000888e+01,1.401562500000000888e+01,7.593750000000005329e+00,3.125000000000001776e+00,-5.906250000000004441e+00,-1.062500000000000711e+01,-1.129687500000000711e+01,-1.381250000000001066e+01,-8.765625000000007105e+00,-6.093750000000003553e+00,-1.578125000000001332e+00,3.437500000000002220e+00,2.859375000000002220e+00,2.859375000000002220e+00,-2.156250000000001776e+00,-5.312500000000003553e+00,-5.953125000000004441e+00,-4.578125000000003553e+00,1.296875000000000888e+00,2.890625000000001776e+00,3.062500000000001776e+00,6.250000000000000000e-02,-5.000000000000002665e+00,-2.921875000000001332e+00,1.906250000000001332e+00,7.328125000000005329e+00,1.337500000000000888e+01,1.310937500000000888e+01,8.125000000000005329e+00,6.375000000000005329e+00,2.843750000000002220e+00,5.781250000000003331e-01,3.000000000000001776e+00,1.609375000000000888e+00,3.156250000000002220e+00,3.234375000000002665e+00,2.656250000000003331e-01,-2.234375000000001332e+00,-9.515625000000007105e+00,-1.050000000000000711e+01,-1.182812500000000711e+01,-1.010937500000000711e+01,-1.750000000000000444e+00,-6.249999999999963918e-02,4.406250000000002665e+00,2.875000000000001332e+00,-2.921875000000001776e+00,-6.640625000000004441e+00,-1.117187500000000711e+01,-7.140625000000003553e+00,-2.625000000000001332e+00,3.968750000000003553e+00,9.234375000000007105e+00,6.671875000000005329e+00,2.890625000000002220e+00,-2.515625000000001332e+00,-8.312500000000005329e+00,-9.250000000000007105e+00,-4.531250000000003553e+00,-5.312500000000004441e-01,8.093750000000005329e+00,1.328125000000000888e+01,1.196875000000000888e+01,1.339062500000001066e+01,7.828125000000005329e+00,5.718750000000003553e+00,4.531250000000002665e+00,-3.062500000000001776e+00,-5.718750000000002665e+00,-1.079687500000000711e+01,-1.282812500000000711e+01,-7.468750000000004441e+00,-5.156250000000003553e+00,-3.312500000000001776e+00,-1.968750000000001332e+00,-5.203125000000003553e+00,-4.937500000000003553e+00,-1.109375000000000666e+00,-4.687500000000002220e-01,4.046875000000002665e+00,6.718750000000003553e+00,4.015625000000002665e+00,5.468750000000003553e+00,3.750000000000002665e+00,1.437500000000001110e+00,4.609375000000002665e+00,3.812500000000002220e+00,2.531250000000001776e+00,1.171875000000000444e+00,-3.734375000000002665e+00,-4.609375000000002665e+00,-2.578125000000001776e+00,1.562500000000004441e-01,5.000000000000003553e+00,5.203125000000003553e+00,3.765625000000002220e+00,1.984375000000000888e+00,-4.296875000000002665e+00,-5.484375000000003553e+00,-9.406250000000007105e+00,-1.220312500000000711e+01,-8.109375000000005329e+00,-8.281250000000005329e+00,-2.250000000000001332e+00,2.421875000000001776e+00,2.343750000000001776e+00,4.781250000000002665e+00,3.156250000000001776e+00,1.000000000000000444e+00,7.812500000000003331e-01,5.156250000000004441e-01,3.281250000000003886e-01,4.312500000000002665e+00,5.906250000000003553e+00,4.781250000000003553e+00,4.421875000000003553e+00,-2.812500000000001776e+00,-5.265625000000003553e+00,-4.031250000000002665e+00,-4.281250000000003553e+00,2.078125000000001776e+00,1.906250000000001776e+00,-9.687500000000003331e-01,5.000000000000005551e-01,-3.375000000000002665e+00,-1.015625000000001332e+00,3.218750000000001776e+00,1.812500000000000888e+00,5.265625000000003553e+00,3.109375000000001776e+00,5.312500000000006661e-01,1.734375000000001554e+00,-2.625000000000001776e+00,-6.562500000000004441e-01,-6.250000000000004441e-01,-2.437500000000001776e+00,2.265625000000001776e+00,2.500000000000004441e-01,-9.375000000000006661e-01,-1.328125000000000666e+00,-7.187500000000005329e+00,-6.781250000000004441e+00,-3.031250000000002220e+00,1.046875000000000222e+00,8.000000000000005329e+00,8.515625000000005329e+00,3.609375000000002665e+00,-8.593750000000000000e-01,-5.750000000000003553e+00,-4.812500000000003553e+00,1.171875000000001110e+00,4.203125000000002665e+00,5.328125000000003553e+00,4.718750000000003553e+00,3.593750000000002220e-01,-2.156250000000001332e+00,-1.296875000000000888e+00,-3.515625000000002665e+00,-3.125000000000002220e+00,-4.531250000000006661e-01,-1.406250000000001332e+00,-1.875000000000002220e-01,-1.390625000000000888e+00,-4.312500000000002665e+00,-4.718750000000003553e+00,-1.546875000000001554e+00,3.406250000000001776e+00,4.390625000000003553e+00,5.984375000000004441e+00,1.531250000000001776e+00,-4.046875000000001776e+00,-2.468750000000001776e+00,-3.671875000000001776e+00,-2.015625000000000888e+00,1.015625000000000666e+00,-3.281250000000003331e-01,7.812500000000000000e-02,2.031250000000000000e-01,-2.500000000000002220e-01,-3.593750000000003331e-01
-1.387500000000000711e+01,-1.875000000000008882e-01,7.437500000000002665e+00,1.062500000000000444e+00,-1.250000000000000444e+00,-2.500000000000001665e-01,5.625000000000002220e-01,4.062500000000001776e+00,3.750000000000001776e+00,-6.187500000000003553e+00,-7.250000000000003553e+00,6.750000000000003553e+00,1.087500000000000533e+01,7.500000000000004441e-01,-8.125000000000003553e+00,-8.875000000000003553e+00,-2.125000000000000888e+00,2.687500000000001332e+00,3.312500000000001776e+00,2.875000000000001332e+00,-4.062500000000001776e+00,-7.812500000000002665e+00,3.312500000000002665e+00,1.293750000000000711e+01,5.500000000000003553e+00,-5.937500000000001776e+00,-7.187500000000002665e+00,-4.375000000000001776e+00,-4.562500000000001776e+00,-3.250000000000001332e+00,4.062500000000001776e+00,6.812500000000002665e+00,3.437500000000001776e+00,4.125000000000001776e+00,-6.250000000000008882e-01,-6.062500000000002665e+00,3.312500000000001776e+00,6.062500000000002665e+00,-7.312500000000003553e+00,-6.187500000000002665e+00,8.250000000000003553e+00,3.937500000000002220e+00,-5.812500000000002665e+00,-1.875000000000000888e+00,-4.562500000000001776e+00,-6.625000000000001776e+00,9.187500000000003553e+00,1.550000000000000533e+01,6.250000000000000000e-01,-1.137500000000000533e+01,-1.200000000000000533e+01,-3.937500000000001776e+00,9.625000000000003553e+00,1.387500000000000711e+01,1.250000000000000888e+00,-9.562500000000003553e+00,-4.750000000000001776e+00,-1.000000000000000444e+00,6.250000000000000000e-02,6.125000000000002665e+00,1.500000000000000000e+00,-5.625000000000003553e+00,-3.187500000000001332e+00,-6.249999999999977796e-02,8.187500000000003553e+00,9.250000000000003553e+00,-4.437500000000001776e+00,-5.875000000000002665e+00,-1.625000000000000444e+00,-8.500000000000003553e+00,-3.500000000000002220e+00,1.350000000000000533e+01,1.256250000000000355e+01,-3.250000000000000888e+00,-8.500000000000003553e+00,-3.937500000000001776e+00,2.000000000000000444e+00,6.687500000000002665e+00,-1.437500000000000000e+00,-8.125000000000003553e+00,2.187500000000000888e+00,3.437500000000000888e+00,-9.750000000000003553e+00,-4.625000000000001776e+00,1.281250000000000533e+01,8.437500000000003553e+00,-6.500000000000002665e+00,-8.437500000000003553e+00,8.750000000000008882e-01,5.812500000000002665e+00,-3.750000000000001776e+00,-6.312500000000002665e+00,4.375000000000004441e-01,6.875000000000006661e-01,5.125000000000001776e+00,7.250000000000002665e+00,-5.125000000000002665e+00,-1.006250000000000533e+01,5.125000000000001776e+00,1.187500000000000533e+01,-3.125000000000000000e-01,-6.875000000000000000e-01,6.437500000000003553e+00,-1.437500000000000444e+00,-5.062500000000001776e+00,-2.000000000000000888e+00,-5.187500000000002665e+00,1.625000000000000000e+00,6.312500000000001776e+00,-5.875000000000003553e+00,-3.625000000000001776e+00,8.000000000000003553e+00,-1.625000000000001776e+00,-7.625000000000004441e+00,4.187500000000001776e+00,1.750000000000000888e+00,-8.187500000000003553e+00,1.375000000000000888e+00,9.000000000000003553e+00,-2.875000000000002220e+00,-5.000000000000002665e+00,9.062500000000003553e+00,4.812500000000001776e+00,-1.337500000000000533e+01,-8.312500000000003553e+00,8.875000000000003553e+00,4.875000000000002665e+00,-1.375000000000000666e+00,4.625000000000001776e+00,-2.437500000000001776e+00,-6.437500000000003553e+00,4.937500000000001776e+00,-1.187500000000001776e+00,-7.625000000000003553e+00,5.375000000000003553e+00,4.062500000000002665e+00,-5.750000000000002665e+00,-3.562500000000001776e+00,-2.875000000000001332e+00,3.812500000000002220e+00,9.250000000000005329e+00,-3.875000000000001776e+00,-2.750000000000001776e+00,9.000000000000003553e+00,-4.875000000000003553e+00,-1.350000000000000711e+01,6.937500000000003553e+00,1.362500000000000711e+01,-4.812500000000002665e+00,-5.312500000000002665e+00,6.625000000000002665e+00,-2.750000000000001776e+00,-7.437500000000003553e+00,5.375000000000002665e+00,8.000000000000003553e+00,6.375000000000003553e+00,5.125000000000003553e+00,-3.000000000000001776e+00,-5.562500000000003553e+00,-7.812500000000004441e+00,-1.081250000000000533e+01,6.875000000000008882e-01,1.225000000000000711e+01,8.312500000000003553e+00,-3.750000000000001776e+00,-6.250000000000001776e+00,1.750000000000001110e+00,1.062500000000000444e+00,-3.500000000000001776e+00,-5.437500000000002665e+00,-2.625000000000001332e+00,7.062500000000003553e+00,2.812500000000001776e+00,-5.500000000000002665e+00,-9.375000000000004441e-01,-1.187500000000000444e+00,1.062500000000000888e+00,4.312500000000001776e+00,-7.000000000000003553e+00,-2.187500000000000888e+00,1.637500000000000711e+01,5.437500000000000888e+00,-1.793750000000001066e+01,-1.068750000000000711e+01,1.212500000000000711e+01,1.056250000000000533e+01,-1.125000000000000444e+00,-3.875000000000001776e+00,-8.125000000000003553e+00,-6.250000000000000000e-02,6.812500000000003553e+00,-4.687500000000001776e+00,-4.375000000000000000e-01,5.687500000000002665e+00,-5.562500000000002665e+00,-2.375000000000000888e+00,4.500000000000001776e+00,2.125000000000000888e+00,4.375000000000001110e-01,-8.500000000000003553e+00,-7.937500000000003553e+00,6.500000000000002665e+00,1.043750000000000355e+01,7.812500000000003553e+00,7.000000000000003553e+00,1.312500000000000444e+00,-7.187500000000002665e+00,-1.187500000000000533e+01,-9.750000000000005329e+00,4.312500000000001776e+00,1.018750000000000533e+01,-5.187500000000001776e+00,-3.437500000000001776e+00,9.187500000000003553e+00,-5.500000000000003553e+00,-1.137500000000000533e+01,1.175000000000000711e+01,1.543750000000000711e+01,-4.062500000000002665e+00,-9.937500000000005329e+00,-6.812500000000003553e+00,-6.250000000000003553e+00,2.125000000000000444e+00,1.250000000000000533e+01,5.625000000000002665e+00,-9.500000000000003553e+00,-3.687500000000001776e+00,5.000000000000002665e+00,-5.250000000000002665e+00,-2.375000000000001776e+00,5.687500000000002665e+00,-1.750000000000000888e+00,4.562500000000001776e+00,1.218750000000000533e+01,-9.375000000000000000e-01,-1.125000000000000533e+01,-7.625000000000004441e+00,3.437500000000001776e+00,6.062500000000002665e+00,-1.875000000000002220e-01,-1.750000000000000666e+00,-6.500000000000001776e+00,-6.500000000000001776e+00,3.812500000000001332e+00,6.875000000000003553e+00,7.375000000000003553e+00,6.250000000000001776e+00,-5.000000000000003553e+00,-1.518750000000000711e+01,-1.018750000000000355e+01,5.437500000000002665e+00,9.250000000000005329e+00,1.250000000000004441e-01,1.000000000000000888e+00,1.143750000000000533e+01,7.000000000000003553e+00,-8.375000000000003553e+00,-8.437500000000003553e+00,-4.687500000000001776e+00,-5.250000000000002665e+00,5.687500000000002665e+00,7.437500000000003553e+00,-6.250000000000003553e+00,-2.500000000000001776e+00,9.937500000000005329e+00,5.937500000000003553e+00,-8.125000000000002220e-01,-8.125000000000004441e-01,-1.750000000000001110e+00,-7.250000000000002665e+00,-1.075000000000000355e+01,3.437500000000001776e+00,1.375000000000000533e+01,-2.000000000000001776e+00,-8.125000000000003553e+00,3.312500000000001332e+00,1.562500000000000888e+00,-9.500000000000003553e+00,-5.875000000000003553e+00,8.562500000000003553e+00,9.125000000000003553e+00,-3.750000000000002220e-01,-4.687500000000001776e+00,4.250000000000002665e+00,2.043750000000000711e+01,8.375000000000003553e+00,-1.781250000000000711e+01,-9.937500000000003553e+00,1.093750000000000533e+01,1.287500000000000533e+01,5.562500000000001776e+00,-3.312500000000001776e+00,-1.087500000000000533e+01,-1.131250000000000533e+01,1.250000000000000000e-01,9.625000000000003553e+00,2.187500000000000888e+00,-4.062500000000000888e+00,-4.062500000000000888e+00,3.375000000000001776e+00,2.068750000000001066e+01,6.250000000000003553e+00,-2.750000000000001066e+01,-2.212500000000000711e+01,-4.250000000000001776e+00,7.625000000000003553e+00,3.193750000000001066e+01,1.887500000000000355e+01,-2.450000000000001066e+01,-2.000000000000000711e+01,5.187500000000002665e+00,6.875000000000000000e-01,-5.687500000000002665e+00,-4.500000000000002665e+00,-1.112500000000000533e+01,-5.250000000000001776e+00,1.075000000000000533e+01,1.531250000000000711e+01,1.362500000000000711e+01,-2.625000000000000000e+00,-1.743750000000000711e+01,-5.937500000000002665e+00,7.250000000000002665e+00,8.312500000000003553e+00,2.937500000000001776e+00,-4.250000000000001776e+00,-1.087500000000000533e+01,-1.368750000000000711e+01,-4.187500000000001776e+00,-3.812500000000001332e+00,-3.500000000000000444e+00,2.581250000000000711e+01,2.618750000000000711e+01,-1.418750000000000711e+01,-2.431250000000001066e+01,-5.875000000000003553e+00,6.687500000000003553e+00,7.375000000000003553e+00,4.375000000000002220e-01,-8.625000000000003553e+00,-7.250000000000003553e+00,1.568750000000000711e+01,2.187500000000000711e+01,-9.312500000000005329e+00,-3.043750000000001421e+01,-1.318750000000000533e+01,1.525000000000000888e+01,1.350000000000000711e+01,-9.125000000000003553e+00,-1.087500000000000533e+01,7.500000000000002665e+00,2.218750000000001066e+01,1.312500000000000711e+01,-1.775000000000000711e+01,-2.456250000000001066e+01,3.812500000000000000e+00,2.237500000000000711e+01,7.812500000000003553e+00,-1.900000000000000711e+01,-1.593750000000000711e+01,3.500000000000000888e+00,-8.750000000000008882e-01,1.687500000000001776e+00,2.300000000000001066e+01,1.637500000000000711e+01,-1.575000000000000711e+01,-1.768750000000000711e+01,1.306250000000000711e+01,1.500000000000000711e+01,-1.206250000000000711e+01,-1.475000000000000888e+01,2.062500000000001332e+00,1.037500000000000533e+01,1.000000000000000355e+01,5.625000000000000000e-01,-1.525000000000000533e+01,-1.662500000000000711e+01,2.000000000000000888e+00,1.206250000000000711e+01,3.500000000000001776e+00,-4.937500000000001776e+00,1.125000000000000444e+00,1.412500000000000533e+01,6.562500000000001776e+00,-4.437500000000002665e+00,4.875000000000002665e+00,-2.125000000000000000e+00,-2.056250000000001066e+01,-7.187500000000005329e+00,1.381250000000000533e+01,9.375000000000003553e+00,-1.750000000000000444e+00,-5.375000000000002665e+00,-4.437500000000001776e+00,6.312500000000003553e+00,1.093750000000000533e+01,-5.687500000000001776e+00,-1.193750000000000533e+01,5.750000000000001776e+00,1.918750000000000711e+01,1.425000000000000533e+01,-8.750000000000000000e-01,-1.212500000000000533e+01,-1.737500000000000711e+01,-1.493750000000000533e+01,2.125000000000000888e+00,1.056250000000000355e+01,-1.750000000000000444e+00,1.875000000000001776e+00,2.100000000000001066e+01,5.125000000000003553e+00,-3.281250000000001421e+01,-2.056250000000000711e+01,2.731250000000001421e+01,2.493750000000001066e+01,-9.750000000000003553e+00,-9.562500000000003553e+00,-1.875000000000002220e-01,-3.625000000000001776e+00,4.875000000000002665e+00,9.625000000000003553e+00,-6.250000000000002665e+00,-1.131250000000000355e+01,5.375000000000002665e+00,1.012500000000000355e+01,-2.687500000000000888e+00,-1.275000000000000533e+01,-1.300000000000000533e+01,2.875000000000001776e+00,1.550000000000000711e+01,5.875000000000002665e+00,1.125000000000000000e+00,6.750000000000002665e+00,-1.875000000000000000e+00,-1.768750000000000711e+01,-1.387500000000000711e+01,7.187500000000001776e+00,1.506250000000000711e+01,4.062500000000001776e+00,-1.037500000000000355e+01,-8.250000000000003553e+00,1.718750000000000711e+01,1.756250000000000711e+01,-1.343750000000000711e+01,-1.381250000000000711e+01,2.250000000000001332e+00,3.750000000000000000e-01,2.750000000000000888e+00,3.125000000000000000e-01,-9.062500000000003553e+00,1.500000000000001776e+00,1.293750000000000711e+01,4.750000000000002665e+00,-1.000000000000000355e+01,-1.068750000000000355e+01,8.750000000000003553e+00,9.250000000000005329e+00,-1.637500000000000711e+01,-1.675000000000000711e+01,6.187500000000002665e+00,2.093750000000001066e+01,1.737500000000000711e+01,-5.500000000000001776e+00,-1.387500000000000533e+01,-2.625000000000001332e+00,-7.187500000000003553e+00,-6.812500000000003553e+00,9.562500000000003553e+00,6.437500000000002665e+00,-2.750000000000001332e+00,1.500000000000000444e+00,4.812500000000001776e+00,-2.375000000000000888e+00,-1.150000000000000533e+01,6.125000000000003553e+00,2.418750000000001421e+01,-3.437500000000001776e+00,-3.087500000000001421e+01,-1.325000000000000711e+01,1.412500000000000355e+01,9.687500000000003553e+00,-7.062500000000003553e+00,2.937500000000000888e+00,1.656250000000000711e+01,5.812500000000002665e+00,-5.687500000000002665e+00,-5.187500000000002665e+00,-6.187500000000002665e+00,-9.500000000000003553e+00,-3.125000000000000000e-01,1.381250000000000533e+01,6.875000000000002665e+00,-9.125000000000003553e+00,-5.812500000000003553e+00,6.812500000000001776e+00,8.187500000000003553e+00,-4.500000000000002665e+00,-1.056250000000000533e+01,9.250000000000005329e+00,1.850000000000000711e+01,-7.562500000000005329e+00,-2.250000000000001066e+01,-4.000000000000001776e+00,1.175000000000000533e+01,9.187500000000005329e+00,6.875000000000004441e-01,-1.031250000000000355e+01,-1.100000000000000355e+01,4.125000000000002665e+00,1.243750000000000711e+01,2.125000000000000888e+00,-8.437500000000003553e+00,-5.625000000000008882e-01,5.750000000000002665e+00,-7.562500000000002665e+00,-6.062500000000002665e+00,1.631250000000000711e+01,9.562500000000005329e+00,-1.325000000000000533e+01,-2.750000000000000000e+00,1.418750000000000711e+01,6.875000000000000000e-01,-1.506250000000000711e+01,-3.812500000000001776e+00,3.750000000000001332e+00,-1.312500000000000666e+00,1.400000000000000711e+01,9.625000000000003553e+00,-1.937500000000000711e+01,-4.250000000000000000e+00,1.350000000000000711e+01,-3.937500000000002220e+00,-4.437500000000001776e+00,9.312500000000003553e+00,2.812500000000000888e+00,-1.875000000000000711e+01,-1.718750000000000711e+01,1.243750000000000711e+01,2.318750000000001066e+01,1.050000000000000533e+01,-5.312500000000001776e+00,-1.706250000000000711e+01,-1.225000000000000711e+01,-3.875000000000001332e+00,1.562500000000000888e+00,2.193750000000000711e+01,2.812500000000001066e+01,-6.000000000000003553e+00,-2.706250000000001066e+01,-1.250000000000000355e+01,3.750000000000001332e+00,1.012500000000000355e+01,6.187500000000003553e+00,1.812500000000000888e+00,-3.875000000000002665e+00,-9.250000000000003553e+00,-2.687500000000000888e+00,-3.750000000000000888e+00,-5.000000000000001776e+00,8.250000000000003553e+00,9.437500000000003553e+00,-1.000000000000000666e+00,-3.000000000000001776e+00,-4.937500000000001776e+00,-1.125000000000000355e+01,-1.874999999999991118e-01,1.731250000000000711e+01,2.562500000000000000e+00,-1.381250000000000533e+01,5.125000000000001776e+00,1.381250000000000533e+01,-9.375000000000000000e-01,-8.125000000000000000e-01,8.250000000000003553e+00,1.437500000000000888e+00,-1.975000000000000711e+01,-2.043750000000000711e+01,1.400000000000000533e+01,2.950000000000001421e+01,-2.625000000000001776e+00,-2.700000000000001421e+01,-3.937500000000003553e+00,2.131250000000000711e+01,1.875000000000001776e+00,-2.081250000000000711e+01,4.625000000000001776e+00,3.112500000000001421e+01,7.875000000000003553e+00,-1.412500000000000711e+01,-7.187500000000002665e+00,-8.750000000000003553e+00,-1.006250000000000355e+01,-4.187500000000001776e+00,5.000000000000000000e-01,1.400000000000000711e+01,1.081250000000000533e+01,-8.062500000000003553e+00,-1.406250000000000711e+01,-9.812500000000003553e+00,2.937500000000000888e+00,6.250000000000002665e+00,-2.625000000000000888e+00,-7.250000000000002665e+00,-9.562500000000003553e+00,9.375000000000008882e-01,1.368750000000000711e+01,1.050000000000000533e+01,4.062500000000001776e+00,-1.500000000000000888e+00,-6.375000000000003553e+00,1.500000000000000000e+00,1.612500000000000711e+01,1.087500000000000355e+01,2.812500000000000444e+00,8.437500000000001776e+00,-4.937500000000001776e+00,-1.462500000000000533e+01,-2.187500000000000888e+00,-9.687500000000003553e+00,-1.593750000000000533e+01,-5.812500000000002665e+00,-6.312500000000003553e+00,5.750000000000002665e+00,1.506250000000000711e+01,-3.437500000000000888e+00,1.687500000000000000e+00,1.725000000000000711e+01,-2.312500000000000000e+00,-1.100000000000000355e+01,7.500000000000000000e-01,3.312500000000001776e+00,2.893750000000001421e+01,5.193750000000002842e+01,2.437500000000003553e+00,-5.962500000000002842e+01,-4.281250000000001421e+01,1.168750000000000533e+01,2.206250000000000711e+01,-1.312500000000001776e+00,-1.250000000000008882e-01,1.212500000000000533e+01,-4.187500000000000888e+00,-1.737500000000000711e+01,-7.375000000000003553e+00,-1.250000000000000555e-01,0.000000000000000000e+00,1.250000000000000555e-01,6.250000000000002776e-02,0.000000000000000000e+00,0.000000000000000000e+00,0.000000000000000000e+00,0.000000000000000000e+00,0.000000000000000000e+00,6.250000000000002776e-02,6.250000000000002776e-02,-1.875000000000001110e-01,-1.875000000000001110e-01,1.875000000000001110e-01,1.875000000000001110e-01,-6.250000000000002776e-02,-6.250000000000002776e-02,0.000000000000000000e+00,-6.250000000000002776e-02,-1.250000000000000555e-01,0.000000000000000000e+00,1.250000000000000555e-01,0.000000000000000000e+00,-6.250000000000002776e-02,2.500000000000001110e-01,3.125000000000001110e-01,-1.250000000000000833e-01,-1.875000000000001110e-01,0.000000000000000000e+00,-6.250000000000002776e-02,-1.875000000000000833e-01,-2.500000000000001110e-01,6.250000000000005551e-02,3.750000000000002220e-01,1.250000000000000833e-01,-1.875000000000000833e-01,-1.875000000000000833e-01,6.250000000000002776e-02,2.500000000000001110e-01,6.250000000000002776e-02,-6.250000000000002776e-02,6.250000000000002776e-02,-6.250000000000002776e-02,-2.500000000000001110e-01,-1.875000000000000833e-01,-1.875000000000001110e-01,-2.775557561562891351e-17,3.750000000000001665e-01,3.750000000000001665e-01,2.500000000000001110e-01,2.775557561562891351e-17,-3.750000000000001665e-01,-2.500000000000001110e-01,6.250000000000002776e-02,6.250000000000002776e-02,0.000000000000000000e+00,0.000000000000000000e+00,0.000000000000000000e+00,0.000000000000000000e+00,0.000000000000000000e+00,-6.250000000000002776e-02,-6.250000000000002776e-02,1.250000000000000555e-01,-1.000000000000000444e+00,-7.812500000000003553e+00,-1.456250000000000711e+01,-7.937500000000003553e+00,2.687500000000000444e+00,4.000000000000001776e+00,1.625000000000002220e+00,-4.812500000000000888e+00,-1.137500000000000711e+01,3.499999999999999112e+00,2.168750000000001066e+01,-5.000000000000000000e-01,-2.356250000000001066e+01,4.812500000000003553e+00,2.793750000000001421e+01,4.562500000000001776e+00,-9.625000000000003553e+00,2.187500000000000888e+00,-2.187500000000001776e+00,-2.343750000000001066e+01,-2.287500000000001066e+01,9.937500000000003553e+00,2.718750000000001421e+01,1.156250000000000533e+01,1.000000000000000222e+00,-5.000000000000002665e+00,-5.687500000000002665e+00,5.687500000000002665e+00,-3.000000000000000888e+00,-1.393750000000000711e+01,2.125000000000000888e+00,1.562500000000000711e+01,1.612500000000000711e+01,8.375000000000003553e+00,-1.143750000000000533e+01,-1.825000000000000711e+01,3.937500000000001776e+00,1.381250000000000711e+01,-1.018750000000000533e+01,-1.975000000000001066e+01,-4.312500000000003553e+00,-1.312500000000000444e+00,-2.750000000000000888e+00,-3.687500000000002665e+00,-1.168750000000000711e+01,1.000000000000001776e+00,2.368750000000001421e+01,2.037500000000000711e+01,5.937500000000001776e+00,8.750000000000003331e-01,3.750000000000001110e-01,1.250000000000000555e-01,1.250000000000000555e-01,1.875000000000001110e-01,5.625000000000003331e-01,6.250000000000003331e-01,0.000000000000000000e+00,-6.250000000000008327e-02,-3.125000000000002220e-01,-1.687500000000000888e+00,-1.562500000000000888e+00,3.750000000000001665e-01,1.125000000000000444e+00,5.000000000000002220e-01,6.250000000000002776e-02,-6.250000000000002776e-02,-1.250000000000000555e-01,6.250000000000002776e-02,1.875000000000000833e-01,-1.250000000000000833e-01,-1.875000000000001110e-01,1.875000000000001110e-01,1.250000000000000833e-01,-6.250000000000002776e-02,3.125000000000001110e-01,4.375000000000002220e-01,-6.250000000000002776e-02,-3.125000000000002220e-01,6.250000000000002776e-02,7.500000000000003331e-01,9.375000000000004441e-01,2.312500000000000888e+00,6.812500000000002665e+00,4.125000000000001776e+00,-5.437500000000001776e+00,-4.562500000000001776e+00,-4.375000000000001776e+00,-9.625000000000003553e+00,-1.375000000000000888e+00,1.093750000000000533e+01,1.393750000000000711e+01,6.875000000000000000e-01,-1.712500000000000711e+01,-9.187500000000003553e+00,2.500000000000000888e+00,1.750000000000000444e+00,8.750000000000003553e+00,3.750000000000001776e+00,-1.012500000000000533e+01,-1.937500000000001776e+00,5.937500000000002665e+00,6.250000000000006661e-01,6.500000000000003553e+00,1.443750000000000711e+01,5.125000000000001776e+00,-6.000000000000003553e+00,-8.937500000000003553e+00,-7.437500000000003553e+00,-2.437500000000001332e+00,0.000000000000000000e+00,-3.062500000000000888e+00,-5.687500000000001776e+00,3.312500000000002665e+00,1.562500000000000711e+01,7.937500000000002665e+00,-2.937500000000001776e+00,1.499999999999999778e+00,-7.500000000000004441e-01,-7.750000000000003553e+00,-5.812500000000002665e+00,-5.625000000000004441e-01,2.500000000000000000e-01,-7.687500000000003553e+00,-5.375000000000003553e+00,8.375000000000003553e+00,8.937500000000003553e+00,-1.750000000000000888e+00,-5.000000000000001776e+00,1.812500000000001332e+00,-9.375000000000000000e-01,-1.112500000000000533e+01,-5.250000000000002665e+00,1.100000000000000533e+01,1.387500000000000533e+01,-1.062500000000000000e+00,-1.006250000000000355e+01,-7.500000000000003553e+00,-8.812500000000003553e+00,3.750000000000000888e+00,2.537500000000001066e+01,1.156250000000000533e+01,-1.462500000000000533e+01,-8.375000000000003553e+00,5.062500000000002665e+00,9.062500000000003553e+00,7.312500000000003553e+00,-1.050000000000000711e+01,-1.512500000000000888e+01,1.187500000000000533e+01,2.300000000000001066e+01,-5.937500000000003553e+00,-2.293750000000001066e+01,-1.625000000000000000e+00,8.000000000000003553e+00,-3.812500000000001776e+00,-9.312500000000003553e+00,-5.125000000000001776e+00,1.068750000000000533e+01,1.537500000000000711e+01,-2.937500000000001776e+00,-1.412500000000000711e+01,-5.500000000000002665e+00,6.250000000000000000e-02,-5.500000000000002665e+00,1.562500000000000888e+00,1.137500000000000533e+01,5.937500000000002665e+00,1.937500000000000888e+00,-3.375000000000000888e+00,-1.156250000000000533e+01,-1.750000000000001776e+00,6.187500000000002665e+00,-8.125000000000003553e+00,-7.750000000000002665e+00,1.356250000000000711e+01,2.006250000000000711e+01,2.750000000000001776e+00,-1.456250000000000533e+01,-5.000000000000001776e+00,1.056250000000000533e+01,1.093750000000000533e+01,3.937500000000001776e+00,-1.543750000000000711e+01,-2.281250000000001066e+01,1.125000000000000000e+00,1.706250000000000711e+01,6.187500000000002665e+00,-9.000000000000003553e+00,-1.056250000000000533e+01,3.125000000000000000e-01,2.812500000000000888e+00,-5.625000000000005551e-01,5.437500000000002665e+00,-4.374999999999991118e-01,-7.000000000000001776e+00,1.100000000000000711e+01,1.087500000000000711e+01,-1.256250000000000711e+01,-1.000000000000000533e+01,8.437500000000003553e+00,1.231250000000000533e+01,3.812500000000000888e+00,-7.312500000000003553e+00,-1.137500000000000355e+01,-5.375000000000001776e+00,6.125000000000003553e+00,1.118750000000000533e+01,1.625000000000000000e+00,-5.875000000000003553e+00,-9.375000000000004441e-01,5.187500000000002665e+00,1.687500000000000888e+00,-9.812500000000003553e+00,-5.812500000000002665e+00,3.250000000000001776e+00,-6.687500000000002665e+00,-6.625000000000003553e+00,7.000000000000001776e+00,8.625000000000003553e+00,5.625000000000004441e-01,-6.937500000000003553e+00,-2.000000000000001332e+00,8.625000000000003553e+00,2.437500000000000888e+00,-8.125000000000003553e+00,-3.000000000000000888e+00,3.000000000000001776e+00,6.875000000000002665e+00,1.050000000000000355e+01,0.000000000000000000e+00,-1.250000000000000533e+01,-1.256250000000000533e+01,8.125000000000008882e-01,1.450000000000000711e+01,5.687500000000001776e+00,-5.625000000000002665e+00,-5.250000000000002665e+00,-5.937500000000003553e+00,3.750000000000001776e+00,8.187500000000003553e+00,-5.062500000000003553e+00,-2.625000000000001776e+00,9.000000000000003553e+00,3.625000000000001776e+00,-8.125000000000003553e+00,-4.500000000000002665e+00,7.437500000000003553e+00,6.875000000000008882e-01,-5.000000000000001776e+00,1.875000000000000888e+00,-3.750000000000001776e+00,2.499999999999991118e-01,1.362500000000000533e+01,-1.437500000000000000e+00,-1.843750000000000711e+01,-7.687500000000002665e+00,6.687500000000002665e+00,7.750000000000002665e+00,6.000000000000002665e+00,8.500000000000003553e+00,1.874999999999991118e-01,-1.631250000000000711e+01,-1.100000000000000355e+01,5.375000000000001776e+00,8.750000000000003553e+00,1.162500000000000533e+01,5.000000000000002665e+00,-1.731250000000000711e+01,-1.187500000000000711e+01,1.562500000000000711e+01,1.237500000000000711e+01,-9.062500000000003553e+00,-1.562500000000000711e+01,-5.062500000000002665e+00,1.668750000000000711e+01,1.693750000000000711e+01,-1.243750000000000711e+01,-2.237500000000001066e+01,-1.000000000000000000e+00,1.162500000000000533e+01,1.025000000000000355e+01,6.187500000000002665e+00,-8.125000000000003553e+00,-8.312500000000003553e+00,5.000000000000001776e+00,-4.062500000000001776e+00,-5.125000000000001776e+00,1.356250000000000533e+01,2.875000000000000000e+00,-1.750000000000000711e+01,-6.875000000000000000e-01,1.725000000000000711e+01,-3.125000000000000000e-01
-1.175000000000000355e+01,2.500000000000000888e+00,1.450000000000000355e+01,-1.825000000000000355e+01,1.750000000000000355e+01,-1.675000000000000355e+01,1.550000000000000355e+01,-1.425000000000000355e+01,1.575000000000000355e+01,-6.500000000000001776e+00,-1.200000000000000178e+01,1.350000000000000355e+01,-7.500000000000000000e-01,3.500000000000000888e+00,-8.000000000000001776e+00,3.500000000000000888e+00,-1.175000000000000178e+01,1.900000000000000355e+01,-2.000000000000000355e+01,2.025000000000000355e+01,-1.200000000000000178e+01,-1.000000000000000444e+00,-1.250000000000000000e+00,7.500000000000001776e+00,6.750000000000001776e+00,-1.425000000000000355e+01,9.750000000000001776e+00,-1.175000000000000355e+01,1.000000000000000355e+01,-1.175000000000000355e+01,6.000000000000001776e+00,5.250000000000000888e+00,-3.750000000000000888e+00,-1.500000000000000222e+00,1.525000000000000355e+01,-2.575000000000000711e+01,1.875000000000000355e+01,-4.250000000000000000e+00,5.500000000000001776e+00,-2.150000000000000711e+01,2.200000000000000711e+01,-1.500000000000000000e+00,-1.250000000000000355e+01,8.250000000000001776e+00,2.750000000000000444e+00,-1.650000000000000355e+01,1.075000000000000355e+01,1.025000000000000178e+01,-5.500000000000000888e+00,-4.000000000000000888e+00,-2.500000000000001110e-01,-8.750000000000001776e+00,1.000000000000000178e+01,1.750000000000000444e+00,6.750000000000001776e+00,-1.325000000000000355e+01,5.000000000000000000e-01,1.050000000000000355e+01,-1.775000000000000355e+01,1.525000000000000355e+01,3.250000000000000888e+00,-1.950000000000000711e+01,2.125000000000000711e+01,-1.875000000000000355e+01,9.500000000000001776e+00,8.750000000000001776e+00,-5.500000000000000888e+00,-1.275000000000000355e+01,2.175000000000000711e+01,-2.075000000000000711e+01,2.500000000000000000e+00,6.250000000000001776e+00,7.250000000000001776e+00,-1.750000000000000888e+00,-1.375000000000000355e+01,1.725000000000000355e+01,-2.075000000000000355e+01,2.050000000000000355e+01,-4.750000000000000888e+00,-1.150000000000000355e+01,7.500000000000001776e+00,5.000000000000000888e+00,-5.500000000000000888e+00,-1.275000000000000355e+01,1.750000000000000355e+01,5.000000000000000888e+00,-1.725000000000000355e+01,1.550000000000000355e+01,-2.200000000000000711e+01,2.525000000000000711e+01,-1.025000000000000178e+01,-1.475000000000000355e+01,2.650000000000000711e+01,-2.700000000000000711e+01,2.000000000000000355e+01,-6.500000000000000888e+00,8.000000000000001776e+00,-1.700000000000000355e+01,5.500000000000000888e+00,1.425000000000000355e+01,-9.500000000000001776e+00,-5.000000000000000888e+00,1.325000000000000355e+01,-2.000000000000000000e+00,-1.625000000000000355e+01,2.325000000000000711e+01,-2.100000000000000711e+01,3.500000000000000888e+00,1.450000000000000355e+01,-1.175000000000000178e+01,-7.750000000000001776e+00,1.650000000000000355e+01,-1.500000000000000000e+00,-1.825000000000000711e+01,1.725000000000000355e+01,-5.000000000000000000e-01,-1.025000000000000178e+01,2.500000000000000000e-01,1.250000000000000355e+01,-4.500000000000001776e+00,-1.175000000000000178e+01,1.225000000000000355e+01,7.000000000000000888e+00,-1.375000000000000355e+01,-5.000000000000000888e+00,8.750000000000001776e+00,9.750000000000001776e+00,-2.225000000000000711e+01,2.000000000000000711e+01,2.500000000000000000e-01,-2.325000000000000711e+01,2.400000000000000711e+01,-3.250000000000000888e+00,-1.850000000000000355e+01,1.600000000000000355e+01,5.500000000000001776e+00,-1.925000000000000355e+01,1.475000000000000355e+01,-4.500000000000000888e+00,-1.325000000000000355e+01,2.875000000000000711e+01,-1.700000000000000355e+01,-1.000000000000000355e+01,2.475000000000000711e+01,-1.075000000000000355e+01,-1.250000000000000178e+01,6.000000000000000888e+00,1.525000000000000355e+01,-8.500000000000001776e+00,-1.450000000000000355e+01,2.275000000000000711e+01,-6.500000000000000888e+00,-1.750000000000000355e+01,2.150000000000000711e+01,-7.500000000000001776e+00,-1.000000000000000222e+00,1.250000000000000178e+01,-1.000000000000000178e+01,-3.000000000000000888e+00,1.100000000000000178e+01,-2.075000000000000355e+01,7.750000000000000888e+00,9.250000000000003553e+00,-8.750000000000001776e+00,1.825000000000000355e+01,-3.200000000000000711e+01,2.925000000000000711e+01,-1.425000000000000355e+01,-1.750000000000000444e+00,1.175000000000000355e+01,-2.275000000000000711e+01,2.000000000000000355e+01,7.500000000000008882e-01,-1.550000000000000355e+01,1.150000000000000178e+01,2.000000000000000444e+00,-1.950000000000000355e+01,3.075000000000000711e+01,-2.125000000000000355e+01,-6.250000000000000888e+00,2.100000000000000355e+01,-1.000000000000000000e+00,-1.025000000000000178e+01,-9.000000000000001776e+00,8.750000000000001776e+00,1.825000000000000355e+01,-3.075000000000000711e+01,2.975000000000000711e+01,-2.075000000000000355e+01,-6.250000000000002665e+00,2.875000000000000711e+01,-2.450000000000000711e+01,-1.500000000000000000e+00,2.550000000000000711e+01,-2.550000000000000711e+01,2.250000000000000000e+00,2.125000000000000711e+01,-3.150000000000000711e+01,3.300000000000000711e+01,-2.175000000000000711e+01,-4.500000000000000000e+00,1.400000000000000355e+01,-6.750000000000001776e+00,8.750000000000001776e+00,-4.250000000000000888e+00,8.750000000000001776e+00,-9.750000000000001776e+00,0.000000000000000000e+00,-1.000000000000000222e+00,-1.325000000000000355e+01,2.975000000000000711e+01,-1.825000000000000355e+01,-1.075000000000000355e+01,2.600000000000000711e+01,-1.000000000000000355e+01,-1.800000000000000355e+01,1.675000000000000355e+01,9.500000000000001776e+00,-9.500000000000001776e+00,-6.250000000000001776e+00,1.100000000000000355e+01,-1.775000000000000355e+01,1.225000000000000178e+01,-5.250000000000000888e+00,1.600000000000000355e+01,-1.375000000000000178e+01,-9.750000000000003553e+00,2.475000000000000711e+01,-1.625000000000000355e+01,-1.075000000000000355e+01,3.025000000000000711e+01,-2.575000000000000711e+01,3.500000000000000000e+00,2.325000000000000711e+01,-2.300000000000000711e+01,1.300000000000000355e+01,-1.425000000000000355e+01,2.750000000000000888e+00,1.500000000000000355e+01,-1.875000000000000355e+01,1.250000000000000355e+01,-1.000000000000000000e+00,-1.800000000000000355e+01,2.075000000000000711e+01,-9.500000000000003553e+00,1.750000000000000444e+00,1.250000000000000178e+01,-1.375000000000000355e+01,7.500000000000001776e+00,-1.925000000000000355e+01,1.375000000000000355e+01,3.500000000000000888e+00,-5.250000000000000888e+00,1.250000000000000000e+00,-7.500000000000000000e-01,1.700000000000000355e+01,-1.750000000000000355e+01,-2.250000000000000444e+00,1.325000000000000355e+01,-2.025000000000000711e+01,9.250000000000003553e+00,1.275000000000000178e+01,-1.600000000000000355e+01,5.000000000000008882e-01,8.750000000000001776e+00,3.250000000000000888e+00,-1.175000000000000355e+01,1.575000000000000355e+01,-1.750000000000000355e+01,1.600000000000000355e+01,-1.725000000000000355e+01,-1.750000000000000000e+00,2.100000000000000355e+01,-6.750000000000000888e+00,-1.975000000000000355e+01,2.925000000000000711e+01,-2.500000000000000711e+01,2.350000000000000711e+01,-3.500000000000000711e+01,3.175000000000000711e+01,-9.500000000000001776e+00,-1.750000000000000444e+00,8.500000000000001776e+00,-1.875000000000000711e+01,2.175000000000000711e+01,1.025000000000000178e+01,-2.325000000000000355e+01,-3.250000000000000888e+00,1.850000000000000355e+01,-1.150000000000000178e+01,1.500000000000000355e+01,-1.025000000000000355e+01,7.500000000000000000e-01,-3.250000000000000444e+00,-9.000000000000001776e+00,1.750000000000000355e+01,-3.250000000000000000e+00,-1.425000000000000355e+01,2.425000000000000711e+01,-3.225000000000000711e+01,2.750000000000000711e+01,1.425000000000000355e+01,-3.450000000000000711e+01,-2.500000000000000000e-01,1.350000000000000355e+01,-1.725000000000000355e+01,6.500000000000000888e+00,5.425000000000001421e+01,-7.275000000000001421e+01,3.225000000000000711e+01,-1.400000000000000355e+01,1.925000000000000355e+01,-2.850000000000000711e+01,2.500000000000000711e+01,-1.475000000000000355e+01,-1.425000000000000355e+01,2.950000000000000711e+01,-1.950000000000000355e+01,1.575000000000000355e+01,1.150000000000000178e+01,-3.750000000000000711e+01,2.700000000000000711e+01,-1.450000000000000355e+01,1.075000000000000355e+01,2.500000000000000888e+00,-1.025000000000000355e+01,9.250000000000003553e+00,-1.325000000000000355e+01,-7.500000000000001776e+00,2.800000000000000711e+01,-4.000000000000001421e+01,2.000000000000000711e+01,4.150000000000000711e+01,-5.075000000000001421e+01,1.875000000000000355e+01,-1.325000000000000178e+01,4.750000000000000888e+00,1.275000000000000355e+01,-1.850000000000000355e+01,2.125000000000000355e+01,-2.800000000000000711e+01,1.125000000000000178e+01,2.750000000000000711e+01,-2.400000000000000355e+01,1.500000000000000444e+00,-2.050000000000000355e+01,1.975000000000000355e+01,9.250000000000001776e+00,-1.400000000000000355e+01,-4.000000000000000000e+00,6.750000000000000888e+00,2.500000000000000000e-01,1.850000000000000355e+01,-9.750000000000003553e+00,-2.725000000000000355e+01,2.225000000000000355e+01,-3.250000000000000888e+00,1.350000000000000355e+01,-6.750000000000001776e+00,-3.200000000000000711e+01,4.175000000000001421e+01,-2.525000000000000711e+01,-7.500000000000000000e-01,1.600000000000000355e+01,6.500000000000001776e+00,-1.750000000000000000e+00,-2.975000000000000711e+01,2.450000000000000355e+01,1.025000000000000355e+01,-1.500000000000000355e+01,-9.750000000000003553e+00,1.525000000000000355e+01,-1.175000000000000178e+01,1.775000000000000355e+01,-1.025000000000000178e+01,6.250000000000001776e+00,-2.050000000000000355e+01,6.750000000000001776e+00,1.475000000000000355e+01,-1.575000000000000355e+01,1.625000000000000355e+01,-2.225000000000000711e+01,2.000000000000000355e+01,8.750000000000003553e+00,-2.575000000000000711e+01,1.900000000000000711e+01,5.750000000000000000e+00,-2.325000000000000355e+01,-2.500000000000000000e-01,1.625000000000000355e+01,-5.000000000000000888e+00,2.000000000000000444e+00,-5.250000000000001776e+00,5.750000000000001776e+00,-1.600000000000000355e+01,3.075000000000000711e+01,-1.950000000000000355e+01,-4.500000000000001776e+00,5.250000000000001776e+00,5.500000000000001776e+00,7.000000000000000888e+00,-7.500000000000000000e-01,-9.250000000000001776e+00,4.500000000000000888e+00,-1.500000000000000355e+01,1.250000000000000000e+00,1.650000000000000355e+01,-9.500000000000001776e+00,-8.750000000000001776e+00,1.775000000000000355e+01,1.050000000000000178e+01,-2.000000000000000355e+01,-2.475000000000000711e+01,2.800000000000000711e+01,2.375000000000000711e+01,-3.475000000000000711e+01,9.000000000000001776e+00,1.050000000000000178e+01,-1.900000000000000355e+01,1.100000000000000178e+01,4.500000000000001776e+00,1.000000000000000000e+00,-1.750000000000000355e+01,1.000000000000000178e+01,1.125000000000000178e+01,-1.450000000000000355e+01,8.500000000000001776e+00,-1.275000000000000355e+01,-4.250000000000001776e+00,2.200000000000000711e+01,-8.500000000000001776e+00,-6.250000000000000888e+00,1.575000000000000355e+01,-9.000000000000001776e+00,2.000000000000000444e+00,-1.825000000000000355e+01,1.050000000000000355e+01,1.300000000000000355e+01,-1.525000000000000355e+01,1.950000000000000711e+01,-3.275000000000000711e+01,2.050000000000000355e+01,1.875000000000000355e+01,-1.775000000000000355e+01,-2.050000000000000355e+01,3.925000000000000711e+01,-3.700000000000000711e+01,2.125000000000000355e+01,2.000000000000000888e+00,-1.575000000000000355e+01,4.250000000000000888e+00,1.200000000000000355e+01,-6.500000000000001776e+00,4.500000000000000888e+00,-1.225000000000000355e+01,-4.000000000000000000e+00,3.525000000000000711e+01,-3.750000000000001421e+01,3.750000000000001776e+00,7.500000000000001776e+00,-4.750000000000001776e+00,2.125000000000000711e+01,-6.500000000000001776e+00,-2.050000000000000711e+01,1.875000000000000711e+01,-2.750000000000000888e+00,-2.350000000000000355e+01,2.725000000000000711e+01,-3.000000000000000888e+00,-1.650000000000000355e+01,2.425000000000000711e+01,-2.425000000000000711e+01,2.650000000000000711e+01,-2.175000000000000711e+01,-8.750000000000001776e+00,3.775000000000000711e+01,-1.350000000000000178e+01,-1.900000000000000355e+01,1.000000000000000000e+00,2.750000000000000000e+00,1.950000000000000711e+01,-2.300000000000000711e+01,1.750000000000000000e+00,2.200000000000000711e+01,-1.425000000000000355e+01,7.250000000000001776e+00,-1.000000000000000355e+01,8.750000000000001776e+00,-1.050000000000000178e+01,-2.500000000000000888e+00,1.000000000000000178e+01,7.000000000000001776e+00,-1.225000000000000355e+01,-3.000000000000000888e+00,1.100000000000000355e+01,-7.250000000000001776e+00,1.450000000000000355e+01,-2.275000000000000711e+01,4.000000000000000000e+00,2.750000000000000711e+01,-2.050000000000000355e+01,-2.250000000000000444e+00,-1.225000000000000355e+01,2.700000000000000711e+01,-2.100000000000000711e+01,2.025000000000000711e+01,-1.400000000000000355e+01,-5.750000000000001776e+00,5.750000000000001776e+00,3.250000000000000888e+00,6.000000000000001776e+00,-1.100000000000000355e+01,-2.250000000000000888e+00,1.400000000000000355e+01,-6.750000000000001776e+00,-1.400000000000000355e+01,1.250000000000000355e+01,2.275000000000000355e+01,-3.800000000000000711e+01,1.775000000000000355e+01,5.000000000000000000e-01,9.750000000000003553e+00,-1.825000000000000355e+01,-2.500000000000000888e+00,1.975000000000000355e+01,-1.600000000000000355e+01,-1.125000000000000355e+01,5.925000000000001421e+01,-6.925000000000001421e+01,2.100000000000000711e+01,2.825000000000000355e+01,-3.825000000000000711e+01,2.275000000000000711e+01,-1.125000000000000355e+01,1.550000000000000355e+01,-1.000000000000000355e+01,-1.950000000000000355e+01,1.225000000000000355e+01,2.375000000000000355e+01,-3.075000000000000711e+01,4.375000000000001421e+01,-5.575000000000001421e+01,3.850000000000001421e+01,-3.200000000000000711e+01,2.725000000000000711e+01,-3.075000000000000711e+01,5.525000000000001421e+01,-2.575000000000000711e+01,-2.025000000000000355e+01,2.125000000000000355e+01,-2.400000000000000711e+01,2.525000000000000711e+01,-6.750000000000000888e+00,-9.250000000000001776e+00,2.525000000000000355e+01,-3.650000000000000711e+01,2.275000000000000711e+01,-7.500000000000008882e-01,-2.350000000000000355e+01,2.900000000000000711e+01,-1.475000000000000355e+01,1.275000000000000355e+01,-1.725000000000000355e+01,1.850000000000000355e+01,-1.875000000000000355e+01,5.000000000000000000e-01,8.750000000000001776e+00,1.775000000000000355e+01,-3.750000000000000711e+01,1.825000000000000355e+01,1.700000000000000355e+01,-2.475000000000000711e+01,1.675000000000000355e+01,-8.500000000000001776e+00,1.225000000000000355e+01,-7.250000000000002665e+00,-2.150000000000000355e+01,1.000000000000000178e+01,2.400000000000000711e+01,-6.750000000000001776e+00,-1.750000000000000355e+01,-6.000000000000001776e+00,2.400000000000000711e+01,1.000000000000001776e+00,-2.125000000000000711e+01,-3.500000000000001776e+00,3.025000000000000711e+01,2.500000000000000000e+00,-3.175000000000000711e+01,2.600000000000000711e+01,-1.025000000000000355e+01,-1.925000000000000355e+01,3.125000000000000711e+01,-3.475000000000000711e+01,2.200000000000000355e+01,1.675000000000000355e+01,-3.525000000000000711e+01,3.050000000000000711e+01,-3.175000000000000711e+01,1.200000000000000355e+01,1.650000000000000355e+01,-2.975000000000000711e+01,2.875000000000000711e+01,-2.500000000000000711e+01,1.000000000000000000e+00,2.250000000000000711e+01,-2.100000000000000355e+01,2.475000000000000711e+01,-2.200000000000000711e+01,1.725000000000000355e+01,-2.100000000000000711e+01,1.825000000000000355e+01,1.200000000000000355e+01,-2.625000000000000711e+01,2.450000000000000711e+01,4.500000000000000000e+00,-3.825000000000000711e+01,3.450000000000000711e+01,-9.500000000000001776e+00,-2.925000000000000711e+01,3.550000000000000711e+01,-2.675000000000000711e+01,-2.750000000000000000e+00,3.350000000000000711e+01,-2.300000000000000355e+01,-1.100000000000000355e+01,3.700000000000000711e+01,-1.675000000000000355e+01,-1.900000000000000355e+01,3.025000000000000711e+01,-2.100000000000000711e+01,-1.750000000000000000e+00,4.425000000000000711e+01,3.000000000000000000e+00,-4.175000000000000711e+01,-1.650000000000000355e+01,2.175000000000000355e+01,4.750000000000000888e+00,5.000000000000001776e+00,-3.075000000000000711e+01,4.700000000000001421e+01,-2.875000000000000711e+01,-5.000000000000001110e-01,5.000000000000001110e-01,-5.000000000000001110e-01,2.500000000000000555e-01,0.000000000000000000e+00,0.000000000000000000e+00,0.000000000000000000e+00,0.000000000000000000e+00,0.000000000000000000e+00,0.000000000000000000e+00,0.000000000000000000e+00,0.000000000000000000e+00,0.000000000000000000e+00,2.500000000000000555e-01,-7.500000000000002220e-01,7.500000000000002220e-01,-2.500000000000000555e-01,0.000000000000000000e+00,0.000000000000000000e+00,0.000000000000000000e+00,0.000000000000000000e+00,0.000000000000000000e+00,-2.500000000000000555e-01,5.000000000000001110e-01,-5.000000000000001110e-01,5.000000000000001110e-01,-7.500000000000002220e-01,1.250000000000000444e+00,-1.000000000000000222e+00,2.500000000000000555e-01,2.500000000000000555e-01,-5.000000000000001110e-01,5.000000000000001110e-01,-5.000000000000001110e-01,0.000000000000000000e+00,5.000000000000001110e-01,-2.500000000000000555e-01,0.000000000000000000e+00,0.000000000000000000e+00,-2.500000000000000555e-01,5.000000000000001110e-01,-2.500000000000000555e-01,0.000000000000000000e+00,0.000000000000000000e+00,2.500000000000000555e-01,-5.000000000000001110e-01,2.500000000000000555e-01,0.000000000000000000e+00,-5.000000000000001110e-01,7.500000000000002220e-01,-2.500000000000000555e-01,0.000000000000000000e+00,5.000000000000001110e-01,-7.500000000000002220e-01,2.500000000000000555e-01,0.000000000000000000e+00,0.000000000000000000e+00,0.000000000000000000e+00,0.000000000000000000e+00,0.000000000000000000e+00,0.000000000000000000e+00,0.000000000000000000e+00,0.000000000000000000e+00,0.000000000000000000e+00,-2.500000000000000555e-01,7.500000000000002220e-01,-1.000000000000000222e+00,-3.500000000000000888e+00,-1.400000000000000355e+01,2.200000000000000355e+01,-2.075000000000000355e+01,2.125000000000000355e+01,-1.850000000000000355e+01,1.400000000000000355e+01,-2.850000000000000711e+01,3.725000000000000711e+01,-1.500000000000000000e+00,-3.075000000000000711e+01,9.500000000000000000e+00,2.100000000000000711e+01,2.750000000000000000e+00,-3.250000000000000711e+01,3.825000000000000711e+01,-2.850000000000000711e+01,2.050000000000000711e+01,-4.025000000000000711e+01,2.000000000000000355e+01,1.650000000000000355e+01,-5.750000000000001776e+00,-7.000000000000001776e+00,2.275000000000000711e+01,-3.850000000000001421e+01,3.125000000000000711e+01,-7.500000000000008882e-01,-3.050000000000000711e+01,2.800000000000000711e+01,-1.300000000000000355e+01,1.525000000000000355e+01,-2.000000000000000000e+00,5.000000000000000888e+00,-2.250000000000000711e+01,7.000000000000001776e+00,1.600000000000000355e+01,-5.250000000000000888e+00,-2.525000000000000355e+01,2.075000000000000355e+01,-5.500000000000001776e+00,-1.350000000000000178e+01,2.400000000000000355e+01,-2.475000000000000355e+01,-2.500000000000000000e-01,2.025000000000000355e+01,-5.000000000000001110e-01,1.000000000000000222e+00,-2.500000000000000555e-01,5.000000000000001110e-01,-5.000000000000001110e-01,5.000000000000001110e-01,-2.500000000000000555e-01,0.000000000000000000e+00,7.500000000000002220e-01,-2.500000000000001110e-01,-7.500000000000002220e-01,1.500000000000000222e+00,-1.500000000000000222e+00,-1.000000000000000222e+00,1.000000000000000222e+00,2.500000000000000555e-01,0.000000000000000000e+00,0.000000000000000000e+00,0.000000000000000000e+00,0.000000000000000000e+00,-2.500000000000000555e-01,5.000000000000001110e-01,-2.500000000000000555e-01,-2.500000000000000555e-01,2.500000000000000555e-01,2.500000000000000555e-01,-5.000000000000001110e-01,2.500000000000000555e-01,5.000000000000001110e-01,-5.000000000000001110e-01,2.500000000000000555e-01,-5.000000000000001110e-01,7.500000000000002220e-01,-2.500000000000000555e-01,1.250000000000000444e+00,-2.250000000000000888e+00,1.100000000000000178e+01,-8.000000000000001776e+00,-9.750000000000001776e+00,2.350000000000000711e+01,-3.275000000000000711e+01,1.950000000000000355e+01,-4.250000000000000888e+00,2.000000000000000444e+00,1.600000000000000355e+01,-2.275000000000000711e+01,-6.000000000000001776e+00,2.600000000000000711e+01,-2.975000000000000711e+01,1.975000000000000355e+01,8.500000000000003553e+00,-2.450000000000000711e+01,1.275000000000000355e+01,1.750000000000000444e+00,-1.750000000000000444e+00,-6.250000000000000888e+00,1.825000000000000355e+01,-4.250000000000001776e+00,-8.000000000000001776e+00,1.125000000000000178e+01,-2.225000000000000355e+01,2.200000000000000355e+01,-2.125000000000000355e+01,2.100000000000000355e+01,-2.225000000000000355e+01,1.375000000000000178e+01,-7.000000000000001776e+00,2.675000000000000355e+01,-3.525000000000000711e+01,2.650000000000000711e+01,-6.250000000000001776e+00,-1.375000000000000355e+01,1.875000000000000711e+01,-2.500000000000000711e+01,2.550000000000000711e+01,-1.550000000000000355e+01,-8.750000000000001776e+00,2.025000000000000355e+01,-1.350000000000000355e+01,1.650000000000000355e+01,-2.150000000000000355e+01,1.375000000000000355e+01,1.500000000000000000e+00,-1.175000000000000355e+01,7.500000000000008882e-01,3.250000000000000444e+00,7.000000000000001776e+00,5.250000000000000888e+00,-2.125000000000000355e+01,1.800000000000000355e+01,-1.275000000000000355e+01,-7.250000000000001776e+00,1.950000000000000711e+01,1.350000000000000178e+01,-2.775000000000000711e+01,5.500000000000001776e+00,1.250000000000000178e+01,-1.900000000000000355e+01,2.700000000000000711e+01,-1.325000000000000355e+01,-1.625000000000000355e+01,1.350000000000000178e+01,9.000000000000001776e+00,8.750000000000001776e+00,-3.475000000000000711e+01,1.325000000000000355e+01,1.975000000000000355e+01,-3.475000000000000711e+01,3.425000000000000711e+01,-3.600000000000000711e+01,2.050000000000000355e+01,1.125000000000000355e+01,-1.550000000000000355e+01,1.000000000000000178e+01,-2.425000000000000711e+01,3.125000000000000711e+01,-2.600000000000000711e+01,3.750000000000000000e+00,1.825000000000000355e+01,-1.650000000000000355e+01,1.300000000000000355e+01,-6.000000000000001776e+00,1.500000000000000222e+00,-1.900000000000000355e+01,3.175000000000000711e+01,-2.000000000000000355e+01,-1.125000000000000355e+01,2.450000000000000711e+01,-1.325000000000000355e+01,2.525000000000000355e+01,-2.800000000000000711e+01,0.000000000000000000e+00,2.200000000000000711e+01,-2.125000000000000711e+01,2.325000000000000711e+01,-9.750000000000001776e+00,-2.175000000000000711e+01,1.200000000000000355e+01,7.000000000000001776e+00,1.250000000000000000e+00,-5.000000000000000888e+00,-2.750000000000000444e+00,-7.000000000000001776e+00,2.100000000000000355e+01,-2.475000000000000711e+01,1.500000000000000355e+01,9.250000000000001776e+00,-2.725000000000000711e+01,1.650000000000000355e+01,1.750000000000000355e+01,-2.525000000000000711e+01,7.500000000000000000e-01,1.175000000000000355e+01,-8.000000000000001776e+00,1.750000000000000355e+01,-2.050000000000000355e+01,1.250000000000000355e+01,-1.825000000000000355e+01,1.700000000000000355e+01,-9.500000000000001776e+00,2.100000000000000355e+01,-3.200000000000000711e+01,2.950000000000000711e+01,-2.400000000000000711e+01,2.225000000000000711e+01,-1.025000000000000355e+01,-1.925000000000000355e+01,3.425000000000000711e+01,-2.600000000000000711e+01,-1.250000000000000000e+00,1.650000000000000355e+01,-1.525000000000000355e+01,2.100000000000000711e+01,-2.275000000000000711e+01,1.175000000000000178e+01,-7.000000000000001776e+00,1.950000000000000355e+01,-2.575000000000000711e+01,1.200000000000000178e+01,3.000000000000000888e+00,-1.250000000000000355e+01,2.175000000000000711e+01,-8.500000000000003553e+00,-7.500000000000001776e+00,6.500000000000001776e+00,-1.875000000000000355e+01,2.425000000000000711e+01,2.500000000000000000e-01,-2.000000000000000355e+01,2.300000000000000355e+01,-1.975000000000000355e+01,-2.500000000000000000e-01,2.375000000000000711e+01,-2.250000000000000711e+01,1.000000000000000000e+00,1.600000000000000355e+01,-1.425000000000000355e+01,1.550000000000000355e+01,-2.700000000000000711e+01,2.350000000000000711e+01,2.250000000000000000e+00,-2.775000000000000711e+01,3.325000000000000711e+01,-1.900000000000000355e+01,-7.250000000000000888e+00,2.275000000000000711e+01,-3.750000000000001776e+00,-1.900000000000000355e+01,9.000000000000001776e+00,-3.500000000000000444e+00,9.000000000000001776e+00,-5.250000000000001776e+00,3.000000000000000888e+00,1.100000000000000355e+01,-1.600000000000000355e+01,-8.000000000000000000e+00,1.575000000000000355e+01,-6.000000000000001776e+00,-1.000000000000000000e+00,2.000000000000000355e+01,-1.925000000000000355e+01,-1.300000000000000355e+01,1.925000000000000355e+01,1.050000000000000355e+01,-2.375000000000000711e+01,1.750000000000000355e+01,-2.500000000000000711e+01,1.700000000000000355e+01,1.550000000000000355e+01,-1.475000000000000355e+01,-9.250000000000001776e+00,-3.250000000000000000e+00,2.250000000000000355e+01,-2.275000000000000355e+01,2.475000000000000711e+01,-8.250000000000003553e+00,-2.225000000000000355e+01,2.975000000000000711e+01,-1.050000000000000355e+01,-1.925000000000000355e+01,2.700000000000000711e+01,-7.500000000000000000e-01,-1.725000000000000355e+01,-3.750000000000001776e+00,2.450000000000000711e+01,-8.500000000000003553e+00
