3.952100000000003632e+01,3.770850000000003632e+01,3.691162500000003632e+01,3.695850000000003632e+01,3.669287500000003632e+01,3.577100000000003632e+01,3.645850000000003632e+01,3.670850000000003632e+01,3.723975000000003632e+01,3.872412500000003632e+01,4.061475000000003632e+01,4.153662500000003632e+01,4.372412500000004343e+01,4.630225000000004343e+01,4.695850000000005053e+01,4.877100000000005764e+01,5.050537500000005764e+01,5.228662500000005764e+01,5.284912500000005764e+01,5.373975000000005764e+01,5.498975000000005764e+01,5.595850000000005764e+01,5.892725000000005764e+01,6.234912500000005764e+01,6.594287500000005764e+01,6.939600000000005764e+01,7.344287500000005764e+01,7.906787500000005764e+01,8.300537500000005764e+01,8.584912500000005764e+01,8.716162500000005764e+01,8.803662500000005764e+01,8.723975000000005764e+01,8.730225000000005764e+01,8.847412500000005764e+01,8.709912500000005764e+01,8.736475000000005764e+01,8.991162500000007185e+01,9.209912500000007185e+01,9.491162500000008606e+01,9.980225000000010027e+01,1.033803750000001003e+02,1.045991250000001003e+02,1.081616250000001003e+02,1.102085000000001003e+02,1.096772500000001003e+02,1.104272500000001003e+02,1.090678750000001003e+02,1.063335000000001003e+02,1.037085000000001003e+02,1.036147500000001003e+02,1.020210000000001003e+02,1.012085000000001003e+02,1.028647500000001003e+02,1.036147500000001003e+02,1.067553750000001003e+02,1.113022500000001003e+02,1.156303750000001003e+02,1.176928750000001003e+02,1.201303750000001003e+02,1.227866250000001003e+02,1.237397500000001003e+02,1.244116250000001003e+02,1.239116250000001003e+02,1.214741250000001003e+02,1.195366250000001003e+02,1.180678750000001003e+02,1.151147500000001003e+02,1.105835000000001003e+02,1.064272500000001003e+02,1.037085000000001003e+02,1.006772500000001003e+02,9.798975000000010027e+01,9.556787500000007185e+01,9.383350000000007185e+01,9.306787500000007185e+01,9.341162500000007185e+01,9.250537500000007185e+01,8.920850000000005764e+01,8.538037500000005764e+01,8.336475000000005764e+01,8.103662500000005764e+01,7.906787500000005764e+01,7.767725000000005764e+01,7.622412500000005764e+01,7.723975000000005764e+01,7.966162500000005764e+01,8.286475000000005764e+01,8.334912500000005764e+01,8.297412500000005764e+01,8.061475000000005764e+01,7.884912500000005764e+01,7.738037500000005764e+01,7.414600000000005764e+01,7.125537500000005764e+01,6.764600000000005764e+01,6.642725000000005764e+01,6.528662500000005764e+01,6.553662500000005764e+01,6.361475000000005764e+01,6.086475000000005764e+01,5.869287500000005764e+01,5.609912500000005764e+01,5.458350000000005764e+01,5.097412500000005764e+01,4.830225000000004343e+01,4.638037500000004343e+01,4.564600000000003632e+01,4.633350000000003632e+01,4.652100000000004343e+01,4.727100000000005053e+01,4.830225000000005764e+01,5.138037500000005764e+01,5.356787500000005764e+01,5.414600000000005764e+01,5.573975000000005764e+01,5.538037500000005764e+01,5.572412500000005764e+01,5.506787500000005764e+01,5.386475000000005764e+01,5.189600000000005764e+01,5.041162500000005764e+01,4.983350000000005764e+01,4.836475000000005053e+01,4.772412500000004343e+01,4.688037500000003632e+01,4.584912500000003632e+01,4.389600000000003632e+01,4.208350000000003632e+01,4.091162500000003632e+01,4.034912500000003632e+01,3.897412500000003632e+01,3.781787500000003632e+01,3.641162500000003632e+01,3.686475000000003632e+01,3.813037500000003632e+01,3.900537500000003632e+01,3.955225000000003632e+01,3.938037500000003632e+01,4.016162500000003632e+01,4.106787500000003632e+01,4.203662500000003632e+01,4.188037500000003632e+01,4.197412500000003632e+01,4.095850000000003632e+01,3.967725000000003632e+01,3.823975000000003632e+01,3.594287500000003632e+01,3.436475000000003632e+01,3.303662500000003632e+01,3.080225000000003632e+01,2.775537500000003632e+01,2.678662500000003632e+01,2.505225000000003632e+01,2.298975000000002922e+01,2.217725000000002922e+01,2.058350000000002922e+01,1.872412500000002566e+01,1.730225000000002566e+01,1.692725000000002566e+01,1.613037500000002566e+01,1.698975000000002566e+01,1.780225000000002566e+01,1.855225000000002566e+01,1.950537500000002566e+01,1.989600000000002566e+01,2.181787500000002922e+01,2.383350000000003277e+01,2.438037500000003277e+01,2.367725000000002922e+01,2.453662500000003277e+01,2.428662500000003277e+01,2.325537500000002922e+01,2.353662500000002922e+01,2.156787500000002922e+01,1.931787500000002566e+01,1.830225000000002566e+01,1.772412500000002566e+01,1.555225000000002566e+01,1.355225000000002389e+01,1.259912500000002211e+01,1.059912500000002034e+01,1.089600000000002211e+01,9.896000000000020336e+00,8.661625000000020336e+00,7.130375000000018559e+00,5.489750000000018559e+00,5.427250000000018559e+00,4.802250000000017671e+00,5.052250000000017671e+00,3.083500000000016783e+00,2.833500000000016783e+00,3.036625000000016783e+00,3.552250000000017227e+00,5.317875000000018559e+00,4.599125000000017671e+00,3.755375000000017671e+00,2.771000000000016783e+00,3.130375000000016783e+00,2.958500000000016783e+00,1.536625000000015895e+00,3.647500000000152287e-01,-9.164999999999855484e-01,-5.102499999999853264e-01,3.335000000000152287e-01,7.241250000000154508e-01,5.366250000000153397e-01,2.397500000000151732e-01,1.896000000000016561e+00,3.864750000000017671e+00,4.255375000000017671e+00,5.130375000000018559e+00,5.427250000000018559e+00,4.739750000000017671e+00,4.989750000000018559e+00,5.239750000000018559e+00,3.349125000000016783e+00,2.866250000000151732e-01,-4.633749999999853264e-01,-2.322749999999986326e+00,-3.228999999999986770e+00,-2.228999999999986326e+00,-2.650874999999986770e+00,-3.541499999999987214e+00,-2.791499999999986770e+00,-1.791499999999986104e+00,-3.244624999999986770e+00,-4.182124999999987658e+00,-6.916499999999988546e+00,-1.079149999999999210e+01,-1.291649999999999210e+01,-1.530712499999999565e+01,-1.771337499999999565e+01,-1.930712499999999920e+01,-1.929149999999999920e+01,-1.936962499999999920e+01,-1.726024999999999920e+01,-1.486962499999999565e+01,-1.404149999999999565e+01,-1.146337499999999210e+01,-1.038524999999999210e+01,-9.307124999999992099e+00,-7.978999999999990322e+00,-8.072749999999990322e+00,-1.033837499999999210e+01,-1.249462499999999388e+01,-1.315087499999999388e+01,-1.490087499999999565e+01,-1.530712499999999565e+01,-1.622899999999999565e+01,-1.818212499999999565e+01,-1.841649999999999565e+01,-1.754149999999999565e+01,-1.629149999999999565e+01,-1.711962499999999565e+01,-1.833837499999999565e+01,-1.933837499999999565e+01,-2.169774999999999920e+01,-2.365087500000000276e+01,-2.522900000000000631e+01,-2.632275000000000631e+01,-2.855712500000000631e+01,-2.871337500000000631e+01,-2.930712500000000631e+01,-3.119775000000000631e+01,-3.154150000000000631e+01,-3.140087500000000631e+01,-3.202587500000000631e+01,-3.341650000000000631e+01,-3.404150000000000631e+01,-3.554150000000000631e+01,-3.541650000000000631e+01,-3.441650000000000631e+01,-3.240087500000000631e+01,-3.124462500000000631e+01,-3.005712500000000631e+01,-2.802587500000000631e+01,-2.585400000000000276e+01,-2.355712499999999920e+01,-2.141649999999999920e+01,-1.924462499999999565e+01,-1.796337499999999565e+01,-1.640087499999999565e+01,-1.588524999999999565e+01,-1.474462499999999565e+01,-1.258837499999999388e+01,-1.029149999999999210e+01,-8.385249999999990322e+00,-7.088374999999989434e+00,-6.057124999999988546e+00,-4.400874999999987658e+00,-4.164999999999852154e-01,2.192875000000016783e+00,2.802250000000016783e+00,3.114750000000017227e+00,2.552250000000016783e+00,3.380375000000017227e+00,3.442875000000017227e+00,3.005375000000017227e+00,1.396000000000015895e+00,-5.414999999999854374e-01,-3.852499999999852154e-01,-7.274999999998504885e-02,8.335000000000155618e-01,3.647500000000152842e-01,1.864750000000016117e+00,3.161625000000017227e+00,3.458500000000017671e+00,5.005375000000018559e+00,5.614750000000018559e+00,5.599125000000018559e+00,5.458500000000018559e+00,6.114750000000018559e+00,4.192875000000018559e+00,2.880375000000016783e+00,2.239750000000016339e+00,1.630375000000015895e+00,-1.821249999999849933e-01,-5.727499999999849933e-01,-2.758749999999849933e-01,-1.196249999999849933e-01,2.146000000000016783e+00,4.786625000000018559e+00,7.411625000000019448e+00,7.442875000000019448e+00,8.161625000000020336e+00,6.474125000000018559e+00,5.208500000000018559e+00,3.786625000000018115e+00,1.411625000000016339e+00,-1.494624999999985437e+00,-3.916499999999987658e+00,-3.103999999999986770e+00,-6.039999999999852154e-01,4.302250000000018559e+00,8.442875000000022112e+00,1.322412500000002389e+01,1.936475000000002922e+01,2.517725000000002922e+01,3.188037500000003632e+01,3.692725000000003632e+01,4.089600000000004343e+01,4.598975000000005053e+01,4.970850000000005764e+01,5.084912500000005764e+01,4.914600000000005764e+01,4.567725000000004343e+01,3.995850000000003632e+01,3.455225000000003632e+01,2.638037500000002922e+01,1.175537500000002034e+01,-2.916499999999988102e+00,-1.627587499999999920e+01,-3.127587500000000631e+01,-4.704150000000001342e+01,-6.591650000000004184e+01,-8.935400000000005605e+01,-1.135102500000000703e+02,-1.364946250000000703e+02,-1.610727500000000987e+02,-1.882915000000001271e+02,-2.126352500000001555e+02,-2.340727500000001555e+02,-2.512290000000001555e+02,-2.621665000000001555e+02,-2.695102500000001555e+02,-2.709633750000001555e+02,-2.681508750000001555e+02,-2.618696250000001555e+02,-2.533383750000001555e+02,-2.451977500000001555e+02,-2.376352500000001555e+02,-2.334008750000001555e+02,-2.302915000000001555e+02,-2.316196250000001555e+02,-2.351352500000001555e+02,-2.377446250000001555e+02,-2.438696250000001555e+02,-2.524165000000001555e+02,-2.618227500000001555e+02,-2.698383750000001555e+02,-2.797758750000001555e+02,-2.909633750000001555e+02,-3.020571250000001555e+02,-3.148852500000001555e+02,-3.248071250000001555e+02,-3.300258750000001555e+02,-3.314008750000001555e+02,-3.320415000000001555e+02,-3.290727500000001555e+02,-3.222758750000001555e+02,-3.168071250000001555e+02,-3.143696250000001555e+02,-3.165258750000001555e+02,-3.236040000000001555e+02,-3.353227500000001555e+02,-3.485571250000001555e+02,-3.639633750000001555e+02,-3.795258750000002692e+02,-3.930571250000002692e+02,-4.024633750000002692e+02,-4.061352500000003261e+02,-4.079008750000003261e+02,-4.093696250000003261e+02,-4.105727500000003261e+02,-4.113696250000003261e+02,-4.142133750000003261e+02,-4.176352500000003261e+02,-4.234477500000003261e+02,-4.347133750000003261e+02,-4.451196250000003261e+02,-4.536665000000003261e+02,-4.621821250000003261e+02,-4.699321250000003261e+02,-4.751196250000003261e+02,-4.796040000000003261e+02,-4.822915000000003261e+02,-4.818227500000003261e+02,-4.813696250000003261e+02,-4.808696250000003261e+02,-4.794633750000003261e+02,-4.774008750000003261e+02,-4.766821250000003261e+02,-4.729946250000003261e+02,-4.672602500000003261e+02,-4.615258750000003261e+02,-4.557602500000003261e+02,-4.487133750000003261e+02,-4.403696250000003261e+02,-4.312290000000003261e+02,-4.205102500000003261e+02,-4.134633750000003261e+02,-4.085258750000003261e+02,-4.020258750000002692e+02,-3.952133750000002692e+02,-3.910102500000002692e+02,-3.896977500000002692e+02,-3.921352500000002692e+02,-3.982758750000002692e+02,-4.059165000000002692e+02,-4.135415000000002692e+02,-4.222915000000002692e+02,-4.316821250000003261e+02,-4.399477500000003261e+02,-4.467133750000003261e+02,-4.511352500000003261e+02,-4.513227500000003261e+02,-4.480571250000003261e+02,-4.466040000000003261e+02,-4.475883750000003261e+02,-4.482758750000003261e+02,-4.488071250000003261e+02,-4.493383750000003261e+02,-4.500571250000003261e+02,-4.545883750000003261e+02,-4.622602500000003261e+02,-4.680883750000003261e+02,-4.719165000000003261e+02,-4.757290000000003261e+02,-4.795727500000003261e+02,-4.834008750000003261e+02,-4.871508750000003261e+02,-4.889946250000003261e+02,-4.890258750000003261e+02,-4.890102500000003261e+02,-4.889946250000003261e+02,-4.889946250000003261e+02,-4.889633750000003261e+02,-4.889790000000003261e+02,-4.889477500000003261e+02,-4.889321250000003261e+02,-4.889477500000003261e+02,-4.889790000000003261e+02,-4.889946250000003261e+02,-4.889633750000003261e+02,-4.889633750000003261e+02,-4.889165000000003261e+02,-4.889165000000003261e+02,-4.888852500000003261e+02,-4.888383750000003261e+02,-4.887915000000003261e+02,-4.887915000000003261e+02,-4.888227500000003261e+02,-4.888383750000003261e+02,-4.877602500000003261e+02,-4.849165000000003261e+02,-4.811352500000003261e+02,-4.737446250000003261e+02,-4.631352500000003261e+02,-4.510571250000003261e+02,-4.364008750000002692e+02,-4.191040000000002692e+02,-4.010883750000002692e+02,-3.824165000000002692e+02,-3.619165000000001555e+02,-3.451040000000001555e+02,-3.315102500000001555e+02,-3.179477500000001555e+02,-3.046665000000001555e+02,-2.913852500000001555e+02,-2.790571250000001555e+02,-2.684321250000001555e+02,-2.593383750000001555e+02,-2.476196250000001555e+02,-2.342290000000001555e+02,-2.185415000000001555e+02,-2.036821250000001555e+02,-1.908696250000001555e+02,-1.755102500000000987e+02,-1.593540000000000703e+02,-1.414321250000000703e+02,-1.245102500000000703e+02,-1.062446250000000560e+02,-9.122900000000004184e+01,-7.613525000000004184e+01,-5.926025000000002763e+01,-4.497900000000001342e+01,-2.949462499999999920e+01,-1.638524999999999210e+01,-3.338374999999986326e+00,8.599125000000022112e+00,2.194287500000002922e+01,3.556787500000003632e+01,4.772412500000004343e+01,6.066162500000005764e+01,7.100537500000005764e+01,8.125537500000007185e+01,9.020850000000007185e+01,9.809912500000010027e+01,1.059428750000001003e+02,1.117085000000001003e+02,1.175053750000001003e+02,1.230053750000001003e+02,1.294897500000001003e+02,1.358960000000001003e+02,1.430835000000001003e+02,1.498491250000001003e+02,1.535053750000001003e+02,1.579428750000001003e+02,1.617397500000001003e+02,1.639897500000001003e+02,1.648022500000001003e+02,1.668803750000001003e+02,1.683178750000001003e+02,1.694585000000001003e+02,1.745522500000001003e+02,1.802710000000001287e+02,1.875835000000001571e+02,1.961928750000001855e+02,2.062553750000001855e+02,2.150053750000001855e+02,2.252085000000001855e+02,2.349741250000001855e+02,2.413960000000001855e+02,2.470053750000001855e+02,2.511928750000001855e+02,2.538022500000001855e+02,2.558960000000001855e+02,2.590522500000001855e+02,2.608022500000001855e+02,2.639897500000001855e+02,2.698803750000001855e+02,2.769272500000001855e+02,2.851616250000001855e+02,2.955053750000001855e+02,3.067866250000001855e+02,3.159585000000001855e+02,3.253803750000001855e+02,3.341303750000001855e+02,3.390835000000001855e+02,3.422085000000001855e+02,3.408022500000001855e+02,3.377397500000001855e+02,3.318178750000001855e+02,3.255678750000001855e+02,3.180835000000001855e+02,3.089585000000001855e+02,3.025366250000001855e+02,2.952866250000001855e+02,2.925366250000001855e+02,2.899741250000001855e+02,2.890053750000001855e+02,2.911928750000001855e+02,2.943335000000001855e+02,3.008335000000001855e+02,3.076616250000001855e+02,3.162397500000001855e+02,3.220678750000001855e+02,3.281616250000001855e+02,3.349585000000001855e+02,3.397710000000001855e+02,3.455053750000001855e+02,3.489428750000001855e+02,3.523647500000001855e+02,3.567710000000001855e+02,3.654585000000001855e+02,3.759741250000002424e+02,3.880991250000002992e+02,4.015210000000002992e+02,4.149585000000002992e+02,4.308335000000002992e+02,4.461772500000002992e+02,4.618960000000002992e+02,4.749272500000002992e+02,4.858491250000002992e+02,4.942085000000002992e+02,5.010678750000002992e+02,5.066616250000002992e+02,5.099741250000002992e+02,5.125835000000002992e+02,5.132397500000002992e+02,5.134428750000002992e+02,5.135210000000002992e+02,5.135678750000002992e+02,5.135991250000002992e+02,5.135991250000002992e+02,5.135522500000002992e+02,5.134897500000002992e+02,5.134116250000002992e+02,5.133022500000002992e+02,5.131928750000002992e+02,5.130991250000002992e+02,5.129897500000002992e+02,5.128960000000002992e+02,5.128178750000002992e+02,5.127553750000002992e+02,5.127085000000002992e+02,5.126460000000002992e+02,5.125835000000002992e+02,5.124897500000002992e+02,5.122241250000002992e+02,5.113803750000002992e+02,5.104116250000002992e+02,5.093178750000002992e+02,5.081928750000002992e+02,5.070991250000002992e+02,5.060522500000002992e+02,5.050835000000002992e+02,5.045053750000002992e+02,5.050678750000002992e+02,5.058803750000002992e+02,5.069428750000002992e+02,5.080835000000002992e+02,5.092241250000002992e+02,5.103178750000002992e+02,5.113335000000002992e+02,5.121303750000002992e+02,5.123647500000002992e+02,5.124428750000002992e+02,5.124116250000002992e+02,5.123491250000002992e+02,5.123178750000002992e+02,5.123335000000002992e+02,5.124116250000002992e+02,5.125053750000002992e+02,5.126147500000002992e+02,5.127553750000002992e+02,5.128491250000002992e+02,5.129116250000002992e+02,5.129272500000002992e+02,5.129116250000002992e+02,5.128803750000002992e+02,5.128647500000002992e+02,5.128491250000002992e+02,5.128803750000002992e+02,5.129741250000002992e+02,5.130991250000002992e+02,5.132710000000002992e+02,5.134272500000002992e+02,5.135366250000002992e+02,5.135835000000002992e+02,5.135991250000002992e+02,5.135053750000002992e+02,5.133335000000002992e+02,5.130835000000002992e+02,5.127710000000002992e+02,5.124741250000002992e+02,5.122241250000002992e+02,5.120678750000002992e+02,5.119585000000002992e+02,5.120053750000002992e+02,5.121616250000002992e+02,5.124585000000002992e+02,5.128335000000002992e+02,5.132397500000002992e+02,5.136460000000002992e+02,5.140053750000002992e+02,5.143178750000002992e+02,5.145053750000002992e+02,5.146147500000002992e+02,5.146303750000002992e+02,5.145991250000002992e+02,5.145366250000002992e+02,5.144741250000002992e+02,5.144116250000002992e+02,5.143803750000002992e+02,5.143960000000002992e+02,5.144428750000002992e+02,5.145210000000002992e+02,5.145991250000002992e+02,5.146616250000002992e+02,5.147085000000002992e+02,5.147710000000002992e+02,5.148335000000002992e+02,5.148803750000002992e+02,5.149116250000002992e+02,5.149272500000002992e+02,5.149428750000002992e+02,5.150053750000002992e+02,5.150678750000002992e+02,5.151460000000002992e+02,5.152085000000002992e+02,5.152710000000002992e+02,5.153335000000002992e+02,5.153803750000002992e+02,5.154272500000002992e+02,5.154272500000002992e+02,5.154272500000002992e+02,5.153647500000002992e+02,5.152866250000002992e+02,5.151928750000002992e+02,5.150835000000002992e+02,5.149897500000002992e+02,5.148803750000002992e+02,5.147710000000002992e+02,5.146303750000002992e+02,5.144897500000002992e+02,5.143491250000002992e+02,5.142085000000002992e+02,5.140678750000002992e+02,5.138960000000002992e+02,5.130522500000002992e+02,5.116303750000002992e+02,5.082397500000002992e+02,5.040053750000002992e+02,4.990678750000002992e+02,4.920678750000002992e+02,4.823022500000002992e+02,4.691772500000002992e+02,4.557241250000002992e+02,4.424272500000002992e+02,4.314897500000002992e+02,4.212553750000002992e+02,4.103960000000002992e+02,4.009428750000002992e+02,3.948022500000002992e+02,3.921616250000002992e+02,3.891147500000002992e+02,3.829585000000002992e+02,3.742085000000001855e+02,3.633647500000001855e+02,3.519897500000001855e+02,3.407085000000001855e+02,3.261616250000001855e+02,3.096147500000001855e+02,2.935835000000001855e+02,2.799897500000001855e+02,2.658491250000001855e+02,2.509428750000001855e+02,2.350210000000001855e+02,2.165991250000001855e+02,1.996616250000001855e+02,1.826772500000001287e+02,1.648960000000001287e+02,1.463803750000001003e+02,1.301460000000001003e+02,1.150991250000001003e+02,1.019428750000001003e+02,9.152100000000007185e+01,8.091162500000005764e+01,7.211475000000005764e+01,6.258350000000005764e+01,5.403662500000005764e+01,4.423975000000004343e+01,3.425537500000003632e+01,2.411475000000002922e+01,1.052100000000002211e+01,-3.322749999999986770e+00,-2.030712499999999920e+01,-3.655712500000000631e+01,-5.533837500000002052e+01,-7.458837500000004184e+01,-9.343212500000004184e+01,-1.131977500000000703e+02,-1.311352500000000703e+02,-1.509008750000000703e+02,-1.686821250000000987e+02,-1.864477500000001271e+02,-2.017915000000001555e+02,-2.160571250000001555e+02,-2.291977500000001555e+02,-2.407133750000001555e+02,-2.496977500000001555e+02,-2.551352500000001555e+02,-2.611040000000001555e+02,-2.666821250000001555e+02,-2.721352500000001555e+02,-2.776821250000001555e+02,-2.829633750000001555e+02,-2.883071250000001555e+02,-2.952602500000001555e+02,-3.029633750000001555e+02,-3.084790000000001555e+02,-3.138383750000001555e+02,-3.181040000000001555e+02,-3.219165000000001555e+02,-3.266196250000001555e+02,-3.333540000000001555e+02,-3.393071250000001555e+02,-3.450102500000001555e+02,-3.519008750000001555e+02,-3.588071250000001555e+02,-3.667602500000001555e+02,-3.735258750000001555e+02,-3.811196250000002124e+02,-3.868852500000002692e+02,-3.940571250000002692e+02,-4.020102500000002692e+02,-4.107446250000003261e+02,-4.188383750000003261e+02,-4.276508750000003261e+02,-4.386508750000003261e+02,-4.476821250000003261e+02,-4.563852500000003261e+02,-4.641352500000003261e+02,-4.710102500000003261e+02,-4.763071250000003261e+02,-4.810883750000003261e+02,-4.843696250000003261e+02,-4.858696250000003261e+02,-4.873852500000003261e+02,-4.884946250000003261e+02,-4.888696250000003261e+02,-4.888696250000003261e+02,-4.888540000000003261e+02,-4.888540000000003261e+02,-4.888383750000003261e+02,-4.888227500000003261e+02,-4.888383750000003261e+02,-4.888696250000003261e+02,-4.889321250000003261e+02,-4.889946250000003261e+02,-4.890415000000003261e+02,-4.890727500000003261e+02,-4.891040000000003261e+02,-4.891352500000003261e+02,-4.891196250000003261e+02,-4.890883750000003261e+02,-4.890415000000003261e+02,-4.890102500000003261e+02,-4.890258750000003261e+02,-4.890102500000003261e+02,-4.889946250000003261e+02,-4.889790000000003261e+02,-4.889946250000003261e+02,-4.890571250000003261e+02,-4.891196250000003261e+02,-4.891508750000003261e+02,-4.891352500000003261e+02,-4.891508750000003261e+02,-4.891508750000003261e+02,-4.891508750000003261e+02,-4.891040000000003261e+02,-4.890102500000003261e+02,-4.889165000000003261e+02,-4.888383750000003261e+02,-4.887758750000003261e+02,-4.887290000000003261e+02,-4.887133750000003261e+02,-4.886977500000003261e+02,-4.887446250000003261e+02,-4.887915000000003261e+02,-4.888383750000003261e+02,-4.888852500000003261e+02,-4.889321250000003261e+02,-4.889633750000003261e+02,-4.889790000000003261e+02,-4.889946250000003261e+02,-4.889633750000003261e+02,-4.889633750000003261e+02,-4.889633750000003261e+02,-4.889633750000003261e+02,-4.889633750000003261e+02,-4.889633750000003261e+02,-4.889633750000003261e+02,-4.889633750000003261e+02,-4.889946250000003261e+02,-4.885571250000003261e+02,-4.881196250000003261e+02,-4.870258750000003261e+02,-4.843383750000003261e+02,-4.815258750000003261e+02,-4.778227500000003261e+02,-4.733071250000003261e+02,-4.659321250000003261e+02,-4.576352500000003261e+02,-4.483540000000003261e+02,-4.389008750000003261e+02,-4.307758750000003261e+02,-4.213383750000003261e+02,-4.105571250000002692e+02,-3.980415000000002692e+02,-3.880571250000002692e+02,-3.790571250000002124e+02,-3.683227500000001555e+02,-3.564790000000001555e+02,-3.422290000000001555e+02,-3.270415000000001555e+02,-3.119321250000001555e+02,-2.979321250000001555e+02,-2.827758750000001555e+02,-2.651196250000001555e+02,-2.478540000000001555e+02,-2.301040000000001555e+02,-2.141665000000001555e+02,-1.979790000000001555e+02,-1.836821250000000987e+02,-1.691977500000000987e+02,-1.543696250000000703e+02,-1.418852500000000703e+02,-1.309790000000000703e+02,-1.218696250000000703e+02,-1.131665000000000703e+02,-1.068383750000000703e+02,-9.902587500000007026e+01,-9.294775000000004184e+01,-8.869775000000004184e+01,-8.330712500000002763e+01,-7.804150000000002763e+01,-7.307275000000002763e+01,-6.671337500000002763e+01,-5.955712500000002763e+01,-5.269775000000002763e+01,-4.288525000000001342e+01,-3.099462500000000276e+01,-1.869774999999999920e+01,-4.666499999999988546e+00,1.139600000000002211e+01,2.786475000000002922e+01,4.530225000000004343e+01,6.331787500000005764e+01,7.936475000000007185e+01,9.536475000000008606e+01,1.098022500000001003e+02,1.231928750000001003e+02,1.363491250000001003e+02,1.475991250000001003e+02,1.582241250000001003e+02,1.662710000000001003e+02,1.732397500000001003e+02,1.783647500000001003e+02,1.832866250000001003e+02,1.855991250000001003e+02,1.843491250000001003e+02,1.808803750000001003e+02,1.730053750000001003e+02,1.646616250000001003e+02,1.550210000000001003e+02,1.420678750000001003e+02,1.263178750000001003e+02,1.087085000000001003e+02,8.970850000000007185e+01,7.208350000000007185e+01,5.705225000000005764e+01,4.152100000000004343e+01,2.895850000000003632e+01,2.045850000000002922e+01,1.602100000000002566e+01,1.783350000000002922e+01,2.420850000000002922e+01,3.258350000000003632e+01,4.380225000000004343e+01,5.827100000000005764e+01,7.059912500000005764e+01,8.433350000000007185e+01,9.694287500000010027e+01,1.076460000000001003e+02,1.178178750000001003e+02,1.274116250000001003e+02,1.340678750000001003e+02,1.401147500000001003e+02,1.472397500000001003e+02,1.503178750000001003e+02,1.521616250000001003e+02,1.496772500000001003e+02,1.435210000000001003e+02,1.349116250000001003e+02,1.254116250000001003e+02,1.128335000000001003e+02,9.798975000000008606e+01,8.386475000000007185e+01,7.063037500000005764e+01,6.081787500000005764e+01,5.416162500000005764e+01,4.831787500000004343e+01,4.361475000000004343e+01,4.056787500000003632e+01,4.016162500000003632e+01,4.038037500000003632e+01,4.000537500000003632e+01
-3.125000000000002220e-01,-9.375000000000006661e-01,-4.328125000000002665e+00,-9.375000000000004441e-01,1.328125000000000888e+00,-5.625000000000003331e-01,3.750000000000003331e-01,-1.687500000000001110e+00,-5.718750000000004441e+00,-2.828125000000002665e+00,-1.031250000000001110e+00,-7.656250000000007772e-01,4.171875000000002665e+00,1.593750000000001110e+00,-5.000000000000004441e-01,8.125000000000005551e-01,-2.921875000000001332e+00,1.234375000000000888e+00,2.484375000000001776e+00,1.406250000000000666e+00,3.968750000000002665e+00,-1.750000000000001554e+00,-4.656250000000003553e+00,-7.265625000000005329e+00,-1.148437500000000711e+01,-7.500000000000003553e+00,-1.609375000000000888e+00,5.015625000000003553e+00,1.289062500000000711e+01,1.373437500000000888e+01,8.671875000000005329e+00,4.984375000000003553e+00,-1.468750000000001110e+00,-4.968750000000003553e+00,-3.328125000000002665e+00,-5.078125000000003553e+00,-5.843750000000003553e+00,-4.953125000000003553e+00,-4.328125000000002665e+00,-3.578125000000002665e+00,8.437500000000000000e-01,4.015625000000001776e+00,3.109375000000001776e+00,6.796875000000003553e+00,6.187500000000003553e+00,4.093750000000002665e+00,4.781250000000003553e+00,2.328125000000001332e+00,1.062500000000000666e+00,6.249999999999983347e-02,-3.125000000000027756e-02,-3.500000000000002665e+00,-7.062500000000005329e+00,-9.343750000000007105e+00,-1.153125000000000888e+01,-7.109375000000004441e+00,-2.156250000000001776e+00,5.015625000000002665e+00,9.015625000000005329e+00,9.078125000000005329e+00,9.984375000000005329e+00,3.968750000000002220e+00,8.593750000000005551e-01,-1.453125000000000666e+00,-5.015625000000003553e+00,-6.406250000000004441e-01,2.328125000000001332e+00,6.406250000000003553e+00,9.625000000000005329e+00,6.218750000000003553e+00,2.500000000000001332e+00,-5.718750000000003553e+00,-1.253125000000000711e+01,-1.404687500000000888e+01,-1.181250000000000711e+01,-1.796875000000001332e+00,7.421875000000003553e+00,1.407812500000000711e+01,1.587500000000001066e+01,9.390625000000005329e+00,3.156250000000001332e+00,-5.703125000000004441e+00,-1.442187500000001066e+01,-1.696875000000001066e+01,-1.664062500000001066e+01,-1.034375000000000711e+01,2.234375000000003109e+00,1.165625000000001066e+01,1.585937500000001243e+01,1.685937500000001421e+01,9.593750000000007105e+00,2.859375000000001776e+00,-1.984375000000001776e+00,-8.812500000000005329e+00,-1.110937500000000711e+01,-1.018750000000000711e+01,-6.906250000000004441e+00,7.968750000000008882e-01,8.984375000000005329e+00,1.034375000000000533e+01,1.040625000000000711e+01,4.953125000000003553e+00,-3.140625000000001776e+00,-5.500000000000003553e+00,-9.578125000000007105e+00,-6.906250000000005329e+00,-2.421875000000001776e+00,5.625000000000000000e-01,3.500000000000001776e+00,2.499999999999997780e-01,-2.625000000000002220e+00,-7.218750000000005329e+00,-7.109375000000005329e+00,-2.421875000000001776e+00,1.687500000000000222e+00,9.093750000000005329e+00,1.176562500000000711e+01,9.484375000000005329e+00,5.203125000000002665e+00,-1.656250000000001110e+00,-8.937500000000005329e+00,-9.078125000000005329e+00,-5.937500000000003553e+00,-2.156250000000001776e+00,6.796875000000003553e+00,6.890625000000003553e+00,5.421875000000003553e+00,4.937500000000002665e+00,-3.187500000000002665e+00,-2.265625000000001776e+00,-3.390625000000002665e+00,-7.265625000000005329e+00,-1.796875000000001332e+00,-3.828125000000003109e+00,-6.562500000000008882e-01,5.515625000000004441e+00,1.328125000000001332e+00,2.281250000000002220e+00,-1.296875000000000444e+00,-6.640625000000003553e+00,-1.734375000000001110e+00,-7.812500000000044409e-02,3.265625000000001776e+00,7.984375000000005329e+00,4.312500000000002665e+00,2.718750000000001776e+00,9.062500000000004441e-01,-1.484375000000000888e+00,-4.062500000000003331e-01,-1.078125000000000888e+00,-1.281250000000000888e+00,-2.859375000000002220e+00,-2.515625000000001776e+00,7.812500000000002220e-01,2.031250000000000888e+00,4.593750000000003553e+00,4.062500000000002665e+00,-2.140625000000001332e+00,-4.906250000000003553e+00,-6.656250000000003553e+00,-7.359375000000004441e+00,-1.093750000000000888e+00,1.593750000000000888e+00,1.843750000000000888e+00,2.828125000000001776e+00,-3.124999999999998890e-01,-1.796875000000000888e+00,-6.875000000000002220e-01,2.031250000000002776e-01,8.437500000000006661e-01,3.296875000000002220e+00,4.359375000000002665e+00,2.765625000000001776e+00,2.546875000000001776e+00,8.906250000000003331e-01,-2.609375000000001776e+00,-1.906250000000001110e+00,-2.656250000000003886e-01,-2.031250000000001776e+00,1.656250000000000888e+00,1.796875000000001110e+00,-7.031250000000005551e-01,1.812500000000001332e+00,-2.812500000000001776e+00,-3.453125000000001776e+00,-1.984375000000001110e+00,-8.437500000000002220e-01,4.781250000000002665e+00,5.031250000000003553e+00,3.281250000000001776e+00,-3.125000000000002220e+00,-8.625000000000005329e+00,-8.703125000000005329e+00,-5.156250000000002665e+00,2.453125000000002220e+00,8.109375000000005329e+00,9.890625000000007105e+00,6.312500000000005329e+00,2.640625000000001776e+00,-4.187500000000001776e+00,-8.140625000000003553e+00,-5.843750000000003553e+00,-5.875000000000003553e+00,2.093750000000001332e+00,5.375000000000002665e+00,2.609375000000001776e+00,3.609375000000002220e+00,-4.218750000000002665e+00,-5.375000000000003553e+00,-2.156250000000001776e+00,-3.609375000000002665e+00,2.203125000000001332e+00,3.406250000000002220e+00,3.968750000000002665e+00,6.593750000000004441e+00,4.593750000000003553e+00,4.171875000000002665e+00,-4.531250000000004441e-01,-3.390625000000002665e+00,-3.718750000000002665e+00,-7.250000000000005329e+00,-5.000000000000003553e+00,-3.078125000000002220e+00,-3.500000000000002665e+00,3.312500000000001776e+00,7.500000000000005329e+00,7.953125000000005329e+00,1.014062500000000711e+01,5.187500000000003553e+00,-5.625000000000003331e-01,-3.750000000000002665e+00,-6.296875000000004441e+00,-7.015625000000005329e+00,-6.859375000000004441e+00,-3.750000000000002665e+00,-4.609375000000003553e+00,-2.406250000000001776e+00,1.328125000000000888e+00,-3.750000000000002220e-01,3.546875000000002665e+00,5.406250000000003553e+00,3.078125000000001776e+00,3.687500000000002665e+00,2.031250000000001332e+00,-1.578125000000000888e+00,1.265625000000000444e+00,4.234375000000001776e+00,2.609375000000000888e+00,2.765625000000001332e+00,-5.062500000000004441e+00,-1.229687500000000711e+01,-1.056250000000000711e+01,-6.687500000000005329e+00,5.187500000000003553e+00,1.426562500000001066e+01,1.492187500000001066e+01,1.017187500000000711e+01,3.124999999999955591e-02,-8.640625000000007105e+00,-1.231250000000000888e+01,-8.468750000000005329e+00,-3.796875000000002220e+00,1.546875000000001332e+00,6.890625000000005329e+00,4.656250000000003553e+00,3.687500000000002220e+00,3.171875000000002220e+00,-2.828125000000002220e+00,-3.500000000000002665e+00,-4.062500000000002665e+00,-6.437500000000004441e+00,-5.625000000000004441e-01,1.125000000000000444e+00,2.968750000000000000e-01,1.265625000000000888e+00,-4.796875000000003553e+00,-6.140625000000004441e+00,-1.437500000000000888e+00,5.156250000000001110e-01,6.875000000000005329e+00,8.765625000000007105e+00,1.234375000000001110e+00,-1.765625000000000444e+00,-5.843750000000002665e+00,-7.109375000000003553e+00,1.484375000000000888e+00,4.062500000000002665e+00,2.843750000000001776e+00,2.296875000000001332e+00,-5.359375000000003553e+00,-6.140625000000003553e+00,-3.125000000000003886e-01,8.906250000000004441e-01,6.906250000000005329e+00,6.593750000000005329e+00,2.781250000000001776e+00,4.015625000000003553e+00,-2.343750000000000000e-01,5.781250000000000000e-01,-1.125000000000001332e+00,-3.812500000000003109e+00,-1.968750000000001554e+00,-4.781250000000003553e+00,-1.125000000000000888e+00,-1.218750000000000888e+00,-1.906250000000001332e+00,2.671875000000001776e+00,1.874999999999997780e-01,2.515625000000001332e+00,4.281250000000002665e+00,2.343749999999998335e-01,1.375000000000000888e+00,-2.812500000000000000e-01,-1.484375000000000888e+00,2.015625000000001332e+00,2.281250000000001776e+00,3.640625000000002220e+00,1.640625000000000888e+00,-3.531250000000002665e+00,-6.640625000000004441e+00,-9.734375000000007105e+00,-8.500000000000005329e+00,-3.765625000000001776e+00,7.968750000000009992e-01,6.515625000000004441e+00,1.167187500000000711e+01,1.473437500000001066e+01,1.493750000000001066e+01,7.921875000000004441e+00,-2.078125000000002665e+00,-1.604687500000001066e+01,-2.375000000000001421e+01,-1.912500000000001066e+01,-1.225000000000000711e+01,3.593750000000002665e+00,1.107812500000000711e+01,7.109375000000003553e+00,4.593750000000002665e+00,-6.218750000000005329e+00,-9.484375000000007105e+00,-2.468750000000001332e+00,1.500000000000001332e+00,8.906250000000007105e+00,1.350000000000001066e+01,7.609375000000006217e+00,5.687500000000003553e+00,9.531250000000007105e+00,1.006250000000000711e+01,1.746875000000001066e+01,1.814062500000001421e+01,5.640625000000002665e+00,-5.000000000000009992e-01,-8.015625000000005329e+00,-7.078125000000004441e+00,4.062500000000003553e+00,1.106250000000000888e+01,2.081250000000001421e+01,2.059375000000001421e+01,1.689062500000001066e+01,1.053125000000000533e+01,-7.750000000000005329e+00,-1.721875000000001066e+01,-2.971875000000001421e+01,-3.712500000000002132e+01,-3.037500000000002132e+01,-2.840625000000001776e+01,-1.814062500000001066e+01,-9.515625000000007105e+00,-5.671875000000003553e+00,9.843750000000005551e-01,3.343750000000001776e+00,8.718750000000007105e+00,1.354687500000001066e+01,1.956250000000001421e+01,2.364062500000001421e+01,2.009375000000001066e+01,1.139062500000000711e+01,-3.484375000000002220e+00,-1.625000000000000711e+01,-1.971875000000001421e+01,-8.578125000000005329e+00,9.734375000000005329e+00,2.660937500000001421e+01,3.289062500000002132e+01,1.871875000000001066e+01,-6.859375000000006217e+00,-3.645312500000002842e+01,-5.695312500000004263e+01,-5.675000000000004263e+01,-3.678125000000002842e+01,-5.156250000000017764e-01,3.707812500000002132e+01,5.995312500000003553e+01,6.360937500000004263e+01,4.656250000000002842e+01,1.590625000000001066e+01,-1.129687500000000711e+01,-3.045312500000001776e+01,-3.801562500000002132e+01,-2.967187500000001421e+01,-1.764062500000001066e+01,-7.968750000000006217e+00,1.921875000000001554e+00,2.015625000000001776e+00,7.812500000000006661e-01,9.453125000000007105e+00,1.210937500000000711e+01,1.759375000000001066e+01,2.084375000000001421e+01,7.171875000000004441e+00,-1.546875000000001332e+00,-9.437500000000005329e+00,-1.660937500000001066e+01,-1.192187500000000711e+01,-9.921875000000007105e+00,-8.812500000000005329e+00,-6.250000000000003553e+00,-6.656250000000004441e+00,-2.359375000000001776e+00,2.390625000000001332e+00,6.171875000000003553e+00,8.921875000000005329e+00,3.703125000000002220e+00,-5.109375000000003553e+00,-1.546875000000001066e+01,-2.264062500000001421e+01,-2.128125000000001066e+01,-8.578125000000003553e+00,1.007812500000000711e+01,2.193750000000001421e+01,2.453125000000001776e+01,1.129687500000000533e+01,-9.640625000000008882e+00,-2.014062500000001421e+01,-1.782812500000001421e+01,-1.218750000000002665e+00,2.221875000000001421e+01,3.765625000000002132e+01,3.948437500000002842e+01,2.850000000000002132e+01,7.875000000000005329e+00,-1.512500000000001066e+01,-3.079687500000002132e+01,-3.665625000000002132e+01,-2.864062500000001776e+01,-8.718750000000007105e+00,8.343750000000005329e+00,1.889062500000001421e+01,1.612500000000001066e+01,1.718750000000008882e-01,-8.578125000000005329e+00,-8.484375000000005329e+00,-7.656250000000000000e-01,1.439062500000001066e+01,1.817187500000001421e+01,1.078125000000000711e+01,1.421875000000001332e+00,-9.562500000000007105e+00,-1.293750000000000888e+01,-9.218750000000007105e+00,-5.515625000000003553e+00,-1.890625000000001332e+00,-1.718750000000001110e-01,-2.031250000000001665e-01,-9.375000000000008327e-02,-4.687500000000004163e-02,1.562500000000000000e-02,1.093750000000000833e-01,6.250000000000005551e-02,9.375000000000006939e-02,7.812500000000005551e-02,3.125000000000002082e-02,0.000000000000000000e+00,-4.687500000000002776e-02,-7.812500000000005551e-02,-1.406250000000000833e-01,-1.250000000000000833e-01,-1.250000000000000833e-01,-3.125000000000000694e-02,1.093750000000000833e-01,1.875000000000001110e-01,2.500000000000001665e-01,1.562500000000001110e-01,4.687500000000004163e-02,-1.156250000000000666e+00,-4.125000000000001776e+00,-7.906250000000003553e+00,-1.529687500000000711e+01,-2.146875000000001421e+01,-2.198437500000001421e+01,-2.139062500000001421e+01,-9.000000000000007105e+00,6.671875000000003553e+00,1.331250000000000711e+01,2.093750000000001421e+01,1.393750000000001243e+01,5.937500000000018874e-01,-4.687499999999987788e-01,-3.250000000000001332e+00,1.406250000000000888e+00,9.265625000000005329e+00,2.578125000000001332e+00,-2.515625000000002220e+00,-6.796875000000005329e+00,-1.150000000000000711e+01,-5.062500000000003553e+00,-2.046875000000001776e+00,-7.968750000000006661e-01,-1.562500000000002220e-01,-1.750000000000000888e+00,1.562499999999994449e-02,-1.218750000000000666e+00,1.265625000000000222e+00,-3.750000000000004441e-01,-1.031250000000000000e+00,4.343750000000002665e+00,5.625000000000003553e+00,8.890625000000005329e+00,7.593750000000003553e+00,1.859375000000001332e+00,-4.828125000000003553e+00,-7.109375000000005329e+00,-6.359375000000004441e+00,-3.203125000000002220e+00,5.546875000000003553e+00,7.703125000000005329e+00,1.139062500000000711e+01,1.312500000000000711e+01,8.359375000000005329e+00,5.828125000000003553e+00,-1.187500000000001332e+00,-7.859375000000005329e+00,-9.734375000000005329e+00,-7.968750000000004441e+00,-2.750000000000001776e+00,4.312500000000002665e+00,9.171875000000005329e+00,9.640625000000007105e+00,8.828125000000007105e+00,6.156250000000003553e+00,4.093750000000002665e+00,1.406250000000000888e+00,-1.796875000000000888e+00,-4.546875000000002665e+00,-8.687500000000005329e+00,-1.090625000000000711e+01,-9.687500000000007105e+00,-9.750000000000007105e+00,-7.984375000000005329e+00,-1.546875000000000222e+00,-1.718750000000000000e-01,5.687500000000004441e+00,1.260937500000000711e+01,1.056250000000000533e+01,1.276562500000000711e+01,1.001562500000000711e+01,2.718750000000001776e+00,1.062500000000000888e+00,-5.406250000000003553e+00,-9.343750000000007105e+00,-9.406250000000005329e+00,-1.217187500000000711e+01,-7.781250000000006217e+00,-6.078125000000004441e+00,-5.234375000000004441e+00,3.593749999999997780e-01,-1.875000000000004441e-01,5.640625000000003553e+00,1.276562500000000888e+01,1.606250000000001066e+01,2.093750000000001421e+01,1.959375000000001421e+01,1.471875000000001066e+01,7.078125000000006217e+00,1.203125000000000666e+00,-6.687500000000005329e+00,-9.812500000000007105e+00,-8.203125000000005329e+00,-9.703125000000005329e+00,-3.390625000000001776e+00,-4.890625000000002665e+00,-6.421875000000003553e+00,-7.984375000000005329e+00,-1.387500000000001066e+01,-1.025000000000000711e+01,-1.114062500000000711e+01,-3.468750000000002665e+00,5.203125000000002665e+00,8.921875000000005329e+00,2.006250000000001421e+01,1.643750000000001066e+01,7.765625000000005329e+00,-1.046875000000000000e+00,-1.909375000000001421e+01,-2.287500000000001421e+01,-1.725000000000001421e+01,-1.307812500000001066e+01,-2.031249999999964473e-01,1.562500000000008438e+00,-2.812499999999990674e+00,-6.249999999999861222e-01,-2.843749999999994671e+00,4.125000000000001776e+00,1.240625000000000000e+01,1.417187499999999467e+01,1.593750000000000000e+01,1.139062500000000000e+01,6.234375000000000000e+00,3.171875000000001776e+00,6.250000000000003331e-01,9.375000000000005551e-02,7.812500000000005551e-02,6.250000000000004163e-02,2.031250000000001388e-01,2.343750000000001665e-01,2.343750000000001665e-01,2.187500000000001665e-01,3.125000000000003469e-02,-1.562499999999999653e-02,-9.375000000000006939e-02,-1.093750000000000833e-01,4.687500000000002082e-02,3.125000000000001388e-02,6.250000000000002776e-02,1.562500000000000000e-02,-1.718750000000001110e-01,-1.875000000000001388e-01,-1.875000000000001388e-01,-6.250000000000005551e-02,2.187500000000001388e-01,5.468749999999966693e-01,1.328124999999993783e+00,2.046874999999990674e+00,2.640624999999987566e+00,2.640624999999994671e+00,5.468750000000003331e-01,-1.843749999999990674e+00,-4.437499999999982236e+00,-6.171874999999984013e+00,-4.671874999999982236e+00,-2.546874999999991562e+00,1.406249999999998890e-01,2.437499999999994227e+00,2.609374999999987121e+00,2.328124999999990674e+00,1.624999999999993783e+00,8.281249999999968914e-01,4.687500000000002220e-01,2.031250000000001110e-01,-7.812500000000005551e-02,-2.656250000000001665e-01,-3.593750000000002220e-01,-5.000000000000003331e-01,-3.906250000000002220e-01,-2.343750000000001665e-01,-9.375000000000005551e-02,2.656250000000002220e-01,4.218750000000003331e-01,4.843750000000003331e-01,5.312500000000004441e-01,2.343750000000001943e-01,-4.687500000000001388e-02,-2.812500000000002220e-01,-5.781250000000004441e-01,-5.468750000000003331e-01,-3.906250000000003331e-01,-2.031250000000001665e-01,1.250000000000000833e-01,2.812500000000001665e-01,3.593750000000002220e-01,4.375000000000003331e-01,4.218750000000003331e-01,4.531250000000003331e-01,4.375000000000003331e-01,3.125000000000002220e-01,1.875000000000001110e-01,-7.812500000000004163e-02,-3.281250000000002220e-01,-5.468750000000003331e-01,-8.125000000000005551e-01,-8.593750000000006661e-01,-8.281250000000006661e-01,-6.250000000000004441e-01,-2.500000000000002220e-01,9.375000000000006939e-02,4.375000000000003331e-01,6.406250000000004441e-01,7.031250000000005551e-01,6.406250000000004441e-01,4.687500000000003886e-01,2.656250000000002220e-01,4.687500000000004163e-02,-1.406250000000001110e-01,-2.656250000000002220e-01,-3.281250000000002220e-01,-2.968750000000002220e-01,-1.875000000000001110e-01,-4.687500000000002776e-02,6.250000000000005551e-02,1.093750000000000833e-01,1.093750000000000833e-01,6.250000000000005551e-02,6.250000000000004163e-02,6.250000000000004163e-02,1.562500000000001041e-02,-1.562500000000001041e-02,-9.375000000000006939e-02,-1.093750000000000833e-01,-4.687500000000004163e-02,1.562500000000000347e-02,6.250000000000004163e-02,0.000000000000000000e+00,-6.250000000000004163e-02,-1.250000000000000833e-01,-4.687500000000002776e-02,1.562500000000001110e-01,2.812500000000002220e-01,4.062500000000003331e-01,2.812500000000002220e-01,4.687500000000005551e-02,-1.093750000000000694e-01,-2.500000000000001665e-01,-1.562500000000000833e-01,1.562500000000000347e-02,1.250000000000000833e-01,2.031250000000001665e-01,1.562500000000001110e-01,4.687500000000004857e-02,6.938893903907229918e-18,-4.687500000000004163e-02,-6.250000000000005551e-02,6.562500000000003331e-01,1.890625000000000888e+00,5.156250000000003553e+00,9.265625000000001776e+00,1.132812500000000000e+01,1.320312500000000000e+01,9.843749999999992895e+00,6.468749999999997335e+00,6.046875000000003553e+00,1.781250000000007772e+00,3.125000000001343370e-02,-9.109374999999994671e+00,-2.143750000000000711e+01,-2.492187500000001421e+01,-2.403125000000001421e+01,-7.078125000000002665e+00,1.278125000000000711e+01,2.456250000000001421e+01,3.193750000000002132e+01,2.296875000000001421e+01,1.171875000000000888e+01,6.250000000000177636e-02,-1.239062500000000711e+01,-1.390625000000001066e+01,-1.493750000000001066e+01,-6.218750000000003553e+00,5.109375000000002665e+00,9.765625000000005329e+00,1.831250000000001066e+01,1.504687500000001066e+01,8.046875000000007105e+00,3.968750000000005329e+00,-1.012500000000000533e+01,-1.704687500000001066e+01,-1.787500000000001066e+01,-1.839062500000001066e+01,-5.234375000000003553e+00,3.687500000000001776e+00,7.421875000000004441e+00,8.218750000000005329e+00,-3.000000000000002220e+00,-7.703125000000005329e+00,-9.531250000000007105e+00,-3.171875000000001776e+00,1.034375000000000711e+01,1.775000000000001421e+01,2.253125000000001421e+01,1.482812500000001066e+01,4.515625000000003553e+00,-5.453125000000003553e+00,-1.182812500000000888e+01,-7.921875000000007105e+00,-3.406250000000003997e+00,3.093750000000000888e+00,6.171875000000003553e+00,3.140625000000001776e+00,-1.093750000000000444e+00,-5.875000000000003553e+00,-1.167187500000000711e+01,-1.309375000000000711e+01,-1.339062500000000711e+01,-1.409375000000001066e+01,-8.906250000000007105e+00,-5.562500000000003553e+00,-4.218750000000008882e-01,8.593750000000005329e+00,1.295312500000000711e+01,1.417187500000000888e+01,9.890625000000005329e+00,-2.406250000000002220e+00,-1.426562500000000888e+01,-1.912500000000001421e+01,-1.545312500000001066e+01,-4.062500000000001776e+00,9.250000000000007105e+00,1.670312500000001066e+01,1.500000000000001066e+01,8.890625000000007105e+00,-9.375000000000044409e-02,-7.140625000000004441e+00,-8.609375000000005329e+00,-7.468750000000005329e+00,-3.640625000000002665e+00,1.515625000000001110e+00,4.843750000000003553e+00,5.890625000000003553e+00,7.343750000000004441e+00,4.515625000000002665e+00,2.796875000000001332e+00,1.984375000000001110e+00,-2.890625000000001776e+00,-3.234375000000002665e+00,-4.843750000000003553e+00,-6.968750000000004441e+00,-5.843750000000003553e+00,-6.359375000000003553e+00,-5.953125000000003553e+00,-4.296875000000002665e+00,-2.921875000000001776e+00,-1.593750000000001110e+00,-5.468750000000004441e-01,-1.718750000000001110e-01,-1.718750000000001110e-01,-6.250000000000004163e-02,0.000000000000000000e+00,1.093750000000000833e-01,2.187500000000001665e-01,2.343750000000001665e-01,2.031250000000001388e-01,7.812500000000005551e-02,-4.687500000000004163e-02,-1.875000000000001665e-01,-2.187500000000001665e-01,-1.875000000000001388e-01,-1.562500000000001110e-01,1.562500000000000694e-02,4.687500000000002776e-02,6.250000000000004163e-02,9.375000000000006939e-02,-1.562500000000001041e-02,3.125000000000002082e-02,7.812500000000005551e-02,6.250000000000005551e-02,7.812500000000006939e-02,1.562500000000001735e-02,-4.687500000000002776e-02,-1.562500000000001041e-02,3.125000000000002082e-02,-1.562500000000001041e-02,-7.812500000000005551e-02,-2.031250000000001388e-01,-3.125000000000002220e-01,-2.187500000000001110e-01,-6.250000000000004163e-02,1.093750000000000833e-01,2.968750000000002220e-01,3.125000000000002220e-01,2.343750000000001665e-01,1.562500000000001110e-01,1.562500000000001388e-02,-6.250000000000005551e-02,-7.812500000000005551e-02,-9.375000000000008327e-02,-1.093750000000000833e-01,-7.812500000000005551e-02,-6.250000000000005551e-02,-4.687500000000004163e-02,4.687500000000004163e-02,4.687500000000004163e-02,4.687500000000004163e-02,4.687500000000004163e-02,-1.562500000000001041e-02,-1.562500000000001041e-02,-1.562500000000001041e-02,-1.562500000000001041e-02,1.562500000000001041e-02,-4.218750000000003331e-01,-8.593750000000006661e-01,-1.953125000000001332e+00,-4.703125000000002665e+00,-5.765625000000003553e+00,-7.718750000000004441e+00,-7.859375000000004441e+00,-4.359375000000002665e+00,-4.906250000000003553e+00,-2.875000000000002220e+00,-3.015625000000002665e+00,-3.328125000000003109e+00,3.171875000000001332e+00,5.140625000000003553e+00,7.437500000000005329e+00,3.453125000000002665e+00,-7.421875000000003553e+00,-1.184375000000000711e+01,-1.256250000000000711e+01,-6.687500000000004441e+00,1.937500000000000888e+00,4.390625000000001776e+00,7.031249999999993339e-01,-3.703125000000003553e+00,-6.359375000000004441e+00,-4.625000000000003553e+00,1.875000000000001332e+00,4.937500000000003553e+00,5.562500000000003553e+00,4.765625000000003553e+00,2.468750000000002220e+00,2.640625000000002665e+00,6.281250000000005329e+00,6.562500000000005329e+00,6.765625000000003553e+00,8.375000000000003553e+00,2.921875000000001332e+00,2.859375000000001776e+00,2.406250000000000888e+00,-2.656250000000001776e+00,-6.093750000000000000e-01,-1.312500000000000666e+00,-2.531250000000001332e+00,-5.781250000000002220e-01,-1.921875000000001332e+00,-4.593750000000003553e+00,-7.656250000000004441e+00,-9.921875000000005329e+00,-1.265625000000000711e+01,-1.218750000000000711e+01,-6.250000000000005329e+00,-2.718750000000002665e+00,4.093750000000003553e+00,9.015625000000005329e+00,6.468750000000004441e+00,6.718750000000005329e+00,3.968750000000002665e+00,2.265625000000001332e+00,4.296875000000002665e+00,4.546875000000002665e+00,4.046875000000002665e+00,3.250000000000002220e+00,5.031250000000003553e+00,5.656250000000003553e+00,1.129687500000000711e+01,1.498437500000001066e+01,1.142187500000000711e+01,1.239062500000000711e+01,8.703125000000007105e+00,7.046875000000005329e+00,1.256250000000000888e+01,1.089062500000000711e+01,7.703125000000005329e+00,5.937500000000004441e+00,-5.625000000000008882e-01,-3.000000000000001776e+00,-1.531250000000001554e+00,-7.687500000000005329e+00,-1.600000000000000711e+01,-2.325000000000001421e+01,-3.287500000000002132e+01,-3.406250000000002132e+01,-2.343750000000001421e+01,-1.425000000000001066e+01,-1.531250000000001776e+00,1.168750000000000711e+01,1.173437500000000711e+01,1.212500000000000888e+01,1.057812500000000711e+01,1.750000000000001332e+00,-8.593750000000004441e-01,-1.328125000000001110e+00,-3.609375000000002665e+00,1.718750000000000444e+00,7.781250000000004441e+00,1.070312500000000711e+01,1.567187500000001066e+01,1.771875000000001066e+01,1.843750000000001066e+01,1.823437500000001066e+01,1.710937500000001066e+01,9.250000000000005329e+00,-2.843750000000002665e+00,-1.153125000000000888e+01,-2.185937500000001421e+01,-2.104687500000001421e+01,-1.445312500000000888e+01,-1.067187500000000711e+01,-1.156250000000001332e+00,1.078125000000000666e+00,1.921875000000001110e+00,5.265625000000003553e+00,7.656250000000004441e-01
-8.687500000000003553e+00,-7.500000000000002665e+00,-1.312500000000000000e+00,5.250000000000002665e+00,-7.500000000000000000e-01,-2.937500000000000888e+00,9.437500000000003553e+00,0.000000000000000000e+00,-1.400000000000000711e+01,1.875000000000000000e+00,5.187500000000002665e+00,-7.750000000000002665e+00,3.375000000000001776e+00,1.137500000000000533e+01,-2.187500000000000888e+00,-9.562500000000003553e+00,-1.562500000000000444e+00,5.500000000000002665e+00,-1.312500000000000444e+00,8.750000000000000000e-01,8.312500000000003553e+00,-4.687500000000001776e+00,-7.000000000000002665e+00,6.687500000000003553e+00,8.125000000000000000e-01,-1.462500000000000711e+01,-1.181250000000000355e+01,7.187500000000003553e+00,1.612500000000000711e+01,6.937500000000003553e+00,3.687500000000001332e+00,1.000000000000000444e+00,-1.350000000000000355e+01,-4.812500000000000888e+00,1.387500000000000711e+01,-1.750000000000000000e+00,-1.125000000000000355e+01,5.062500000000002665e+00,-1.250000000000000000e+00,-1.181250000000000533e+01,7.125000000000003553e+00,8.875000000000003553e+00,-7.187500000000002665e+00,2.562500000000001776e+00,5.625000000000001776e+00,-5.250000000000003553e+00,5.812500000000001776e+00,9.125000000000003553e+00,-1.062500000000000355e+01,-7.750000000000001776e+00,1.143750000000000533e+01,4.000000000000001776e+00,-6.625000000000002665e+00,-5.000000000000002220e-01,-5.562500000000002665e+00,-1.412500000000000711e+01,-1.375000000000001776e+00,1.387500000000000533e+01,7.812500000000003553e+00,-1.187500000000000444e+00,-2.750000000000001332e+00,-1.437500000000000444e+00,1.125000000000000355e+01,7.812500000000001776e+00,-1.843750000000000711e+01,-1.587500000000000711e+01,1.287500000000000711e+01,1.775000000000001066e+01,-3.187500000000000888e+00,-8.125000000000003553e+00,7.312500000000002665e+00,7.312500000000003553e+00,-4.687500000000001776e+00,-1.075000000000000533e+01,-1.525000000000000711e+01,-9.000000000000003553e+00,1.293750000000000711e+01,2.318750000000001421e+01,3.937500000000002665e+00,-1.025000000000000533e+01,2.000000000000000000e+00,4.937500000000001776e+00,-4.625000000000001776e+00,-4.437500000000001776e+00,-9.562500000000003553e+00,-1.687500000000000711e+01,-3.625000000000000888e+00,1.675000000000001066e+01,2.181250000000001066e+01,5.687500000000001776e+00,-1.368750000000000533e+01,-4.687500000000001776e+00,1.137500000000000533e+01,1.937500000000001776e+00,-8.625000000000003553e+00,-7.687500000000003553e+00,-8.750000000000003553e+00,-3.062500000000000444e+00,1.050000000000000533e+01,1.456250000000000711e+01,6.000000000000002665e+00,-7.875000000000003553e+00,-7.437500000000003553e+00,5.437500000000002665e+00,2.125000000000001332e+00,-9.875000000000005329e+00,-1.093750000000000533e+01,1.812500000000001776e+00,1.643750000000000711e+01,1.050000000000000355e+01,-1.087500000000000355e+01,-1.656250000000000711e+01,5.000000000000000000e-01,6.875000000000003553e+00,-2.062500000000000888e+00,-8.125000000000004441e-01,3.875000000000001776e+00,8.062500000000003553e+00,1.250000000000000711e+01,-1.937500000000000000e+00,-1.843750000000000711e+01,-6.312500000000003553e+00,6.125000000000002665e+00,-1.187500000000000888e+00,-3.500000000000001776e+00,6.000000000000003553e+00,1.475000000000000711e+01,1.687500000000000000e+00,-1.687500000000000711e+01,-4.125000000000000888e+00,8.562500000000003553e+00,3.312500000000001332e+00,-1.250000000000000444e+00,-1.031250000000000355e+01,-7.187500000000002665e+00,7.125000000000002665e+00,1.168750000000000355e+01,8.937500000000003553e+00,-9.812500000000005329e+00,-1.850000000000001066e+01,4.437500000000000888e+00,1.131250000000000355e+01,-3.625000000000001332e+00,-3.687500000000001332e+00,8.500000000000003553e+00,1.162500000000000533e+01,-7.125000000000001776e+00,-1.918750000000000711e+01,4.812500000000003553e+00,2.131250000000001066e+01,-3.250000000000001776e+00,-1.887500000000000711e+01,2.500000000000000000e+00,8.437500000000003553e+00,-7.750000000000003553e+00,2.000000000000000000e+00,1.412500000000000533e+01,-1.312500000000000888e+00,-8.625000000000003553e+00,-3.250000000000000888e+00,-5.500000000000001776e+00,-4.125000000000001776e+00,5.375000000000002665e+00,1.262500000000000711e+01,2.437500000000001776e+00,-1.581250000000000533e+01,-5.000000000000000888e+00,1.462500000000000711e+01,6.875000000000000000e-01,-1.125000000000000533e+01,4.937500000000001776e+00,5.125000000000001776e+00,-5.500000000000003553e+00,7.687500000000003553e+00,7.812500000000004441e+00,-1.368750000000000711e+01,-7.625000000000003553e+00,9.562500000000003553e+00,4.250000000000000888e+00,-2.437500000000000888e+00,-4.625000000000001776e+00,-1.625000000000000888e+00,7.562500000000003553e+00,3.187500000000001776e+00,-4.687500000000001776e+00,-5.625000000000001776e+00,-5.125000000000001776e+00,1.062500000000000444e+00,9.187500000000005329e+00,1.043750000000000533e+01,1.812500000000000888e+00,-9.687500000000003553e+00,-1.706250000000000711e+01,-9.375000000000003553e+00,1.325000000000000711e+01,1.831250000000001066e+01,-1.875000000000000888e+00,-9.312500000000005329e+00,4.250000000000002665e+00,7.000000000000003553e+00,-2.125000000000000888e+00,-1.075000000000000533e+01,-1.218750000000000533e+01,3.187500000000001776e+00,1.381250000000000711e+01,9.687500000000005329e+00,-1.375000000000000444e+00,-1.350000000000000533e+01,-5.000000000000001776e+00,4.312500000000001776e+00,-3.750000000000001110e-01,4.937500000000002665e+00,1.687500000000000888e+00,-9.937500000000003553e+00,2.437500000000001776e+00,1.518750000000000711e+01,2.500000000000000000e-01,-9.312500000000003553e+00,4.375000000000002665e+00,-6.875000000000000000e-01,-1.375000000000000711e+01,6.000000000000003553e+00,1.175000000000000711e+01,-1.268750000000000711e+01,-1.125000000000000711e+01,6.812500000000001776e+00,1.281250000000000355e+01,1.156250000000000355e+01,-3.750000000000001776e+00,-1.237500000000000533e+01,3.187500000000001776e+00,6.125000000000003553e+00,-9.500000000000003553e+00,-5.562500000000002665e+00,6.062500000000002665e+00,-1.750000000000000000e+00,-4.312500000000001776e+00,8.125000000000003331e-01,6.875000000000003331e-01,4.937500000000001776e+00,-1.250000000000000000e+00,-6.750000000000002665e+00,1.056250000000000533e+01,1.006250000000000355e+01,-1.156250000000000711e+01,-8.000000000000003553e+00,1.937500000000000888e+00,1.812500000000000666e+00,1.431250000000000711e+01,1.231250000000000711e+01,-1.625000000000000711e+01,-2.775000000000001066e+01,-6.000000000000000888e+00,1.762500000000000711e+01,1.312500000000000355e+01,2.687500000000001332e+00,7.437500000000003553e+00,2.937500000000000888e+00,-1.118750000000000533e+01,-1.093750000000000533e+01,-5.687500000000001776e+00,-2.125000000000000444e+00,1.243750000000000533e+01,1.043750000000000533e+01,-1.218750000000000533e+01,-3.375000000000001776e+00,1.425000000000000711e+01,-2.125000000000000000e+00,-9.312500000000003553e+00,3.875000000000001776e+00,7.500000000000000000e-01,-1.100000000000000355e+01,-5.937500000000001776e+00,1.637500000000000711e+01,1.650000000000000711e+01,-1.512500000000000711e+01,-1.956250000000000711e+01,3.562500000000002220e+00,7.312500000000003553e+00,2.812500000000001332e+00,3.500000000000001776e+00,5.750000000000002665e+00,5.937500000000002665e+00,-1.150000000000000711e+01,-1.937500000000001066e+01,1.625000000000000000e+00,1.350000000000000711e+01,1.331250000000000711e+01,6.562500000000002665e+00,-1.681250000000000711e+01,-1.943750000000000711e+01,3.750000000000001776e+00,1.293750000000000711e+01,9.562500000000003553e+00,5.625000000000000000e-01,-8.062500000000003553e+00,-5.125000000000001776e+00,4.312500000000001776e+00,1.118750000000000533e+01,2.500000000000000000e-01,-1.312500000000000711e+01,-5.125000000000002665e+00,7.625000000000003553e+00,5.312500000000002665e+00,-6.625000000000003553e+00,-3.687500000000002220e+00,2.937500000000001776e+00,-1.375000000000000444e+00,5.750000000000002665e+00,3.875000000000001776e+00,-1.106250000000000533e+01,2.937500000000001776e+00,1.468750000000000711e+01,-8.687500000000005329e+00,-1.737500000000000711e+01,8.500000000000005329e+00,1.875000000000001066e+01,-3.437500000000000888e+00,-1.037500000000000355e+01,3.687500000000000888e+00,-1.625000000000001776e+00,-1.287500000000000711e+01,-3.000000000000001776e+00,8.062500000000003553e+00,5.562500000000001776e+00,-3.125000000000000000e-01,-2.437500000000000888e+00,3.875000000000001332e+00,1.606250000000000711e+01,1.368750000000000533e+01,-9.937500000000003553e+00,-2.506250000000001421e+01,-2.075000000000001066e+01,-5.375000000000001776e+00,1.662500000000000711e+01,1.825000000000000711e+01,5.187500000000001776e+00,-3.187500000000001776e+00,-1.318750000000000533e+01,-5.875000000000001776e+00,4.312500000000001776e+00,-6.625000000000003553e+00,-3.750000000000000000e-01,1.831250000000000711e+01,1.331250000000000711e+01,-8.125000000000000000e-01,-1.943750000000000711e+01,-2.025000000000000711e+01,2.550000000000001421e+01,4.200000000000002132e+01,-1.250000000000017764e-01,-2.131250000000001066e+01,-1.818750000000000711e+01,-1.237500000000000355e+01,1.350000000000000711e+01,2.762500000000001066e+01,-1.937500000000001776e+00,-2.131250000000000711e+01,1.587500000000000355e+01,3.456250000000001421e+01,-4.437500000000001776e+00,-2.612500000000001421e+01,-1.568750000000000711e+01,-3.125000000000001332e+00,-3.187500000000001332e+00,-1.656250000000000711e+01,-1.012500000000000355e+01,6.437500000000003553e+00,5.312500000000002665e+00,-1.375000000000000888e+00,-4.625000000000001776e+00,-1.812500000000000222e+00,7.625000000000004441e+00,1.025000000000000533e+01,-5.000000000000004441e-01,3.812500000000001776e+00,2.362500000000001066e+01,1.012500000000000533e+01,-2.281250000000000711e+01,-2.218750000000001066e+01,-1.056250000000000355e+01,-1.143750000000000355e+01,2.012500000000001066e+01,5.568750000000002842e+01,1.618750000000000711e+01,-3.656250000000001421e+01,-1.400000000000000178e+01,1.162500000000000711e+01,-3.618750000000002132e+01,-6.587500000000002842e+01,-1.937500000000000000e+00,5.650000000000002842e+01,3.768750000000001421e+01,1.218750000000000355e+01,1.756250000000000711e+01,1.243750000000000711e+01,-1.262500000000000533e+01,-2.856250000000001421e+01,-1.743750000000000711e+01,-2.000000000000001332e+00,-7.625000000000003553e+00,-4.375000000000001776e+00,1.600000000000000711e+01,1.262500000000000711e+01,-6.437500000000002665e+00,-1.956250000000000711e+01,-1.462500000000000533e+01,3.006250000000001421e+01,4.387500000000002132e+01,-1.118750000000000178e+01,-2.956250000000001066e+01,3.750000000000008882e-01,3.312500000000001776e+00,-6.375000000000003553e+00,-2.937500000000001776e+00,1.875000000000001110e-01,-1.875000000000001110e-01,-5.000000000000002220e-01,-5.000000000000001776e+00,-9.250000000000003553e+00,4.562500000000001776e+00,1.900000000000000711e+01,6.000000000000001776e+00,-9.125000000000003553e+00,-6.500000000000002665e+00,-4.312500000000002665e+00,-8.437500000000003553e+00,-1.518750000000000711e+01,-1.768750000000000711e+01,1.356250000000000711e+01,5.625000000000002842e+01,2.893750000000001066e+01,-3.831250000000001421e+01,-4.431250000000001421e+01,-6.937500000000002665e+00,9.750000000000003553e+00,1.175000000000000533e+01,1.700000000000000711e+01,2.031250000000000711e+01,1.693750000000000711e+01,3.187500000000003553e+00,-1.381250000000000711e+01,-1.675000000000000711e+01,-1.012500000000000533e+01,-1.362500000000000533e+01,-2.187500000000000711e+01,-1.250000000000001776e+00,3.993750000000001421e+01,3.600000000000001421e+01,-9.062500000000003553e+00,-3.187500000000001421e+01,-3.018750000000001421e+01,-5.375000000000003553e+00,3.793750000000001421e+01,3.568750000000001421e+01,-8.250000000000003553e+00,-2.206250000000001066e+01,-7.250000000000003553e+00,1.875000000000000833e-01,6.250000000000002776e-02,-6.250000000000002776e-02,6.250000000000002776e-02,-6.250000000000002776e-02,-2.500000000000001110e-01,-1.250000000000000555e-01,6.250000000000002776e-02,2.500000000000001110e-01,1.250000000000000833e-01,-3.125000000000001110e-01,-1.250000000000000555e-01,3.750000000000001665e-01,1.875000000000000833e-01,-2.500000000000001110e-01,-1.875000000000001110e-01,6.250000000000002776e-02,1.250000000000000555e-01,6.250000000000002776e-02,-1.875000000000001110e-01,-3.125000000000001665e-01,0.000000000000000000e+00,3.750000000000001665e-01,3.125000000000001110e-01,-6.250000000000002776e-02,-1.875000000000000833e-01,-6.250000000000002776e-02,6.250000000000002776e-02,6.250000000000002776e-02,-1.875000000000001110e-01,-4.625000000000001776e+00,-1.568750000000000533e+01,-1.318750000000000533e+01,2.624999999999999556e+00,-5.562500000000002665e+00,-3.625000000000000000e+00,3.425000000000001421e+01,2.568750000000001421e+01,-1.956250000000000711e+01,-2.256250000000001066e+01,-8.062500000000003553e+00,3.750000000000002665e+00,2.056250000000001066e+01,1.937500000000000711e+01,-2.875000000000001776e+00,-2.981250000000001066e+01,-2.300000000000000711e+01,2.087500000000001066e+01,2.500000000000001066e+01,-1.306250000000000711e+01,-1.706250000000000711e+01,6.625000000000003553e+00,4.937500000000001776e+00,-5.000000000000002665e+00,5.000000000000002665e+00,4.625000000000003553e+00,-6.312500000000001776e+00,-6.812500000000003553e+00,-2.375000000000001332e+00,1.137500000000000355e+01,1.831250000000000711e+01,-7.500000000000000000e-01,-1.625000000000000711e+01,-7.062500000000003553e+00,1.312500000000000222e+00,1.500000000000000666e+00,2.062500000000000888e+00,-4.375000000000005551e-01,5.125000000000001776e+00,8.937500000000003553e+00,3.125000000000004441e-01,-1.250000000000000444e+00,4.000000000000001776e+00,4.125000000000001776e+00,-7.000000000000003553e+00,-2.100000000000000711e+01,-7.125000000000002665e+00,2.387500000000001066e+01,1.525000000000000533e+01,-1.662500000000000711e+01,-5.250000000000003553e+00,2.037500000000001066e+01,1.687500000000003553e+00,-1.768750000000000711e+01,6.187500000000003553e+00,1.575000000000000711e+01,-1.275000000000000711e+01,-1.612500000000000711e+01,5.187500000000003553e+00,2.187500000000001776e+00,-5.437500000000002665e+00,-9.375000000000006661e-01,-3.312500000000001332e+00,3.750000000000004441e-01,5.937500000000001776e+00,5.312500000000001776e+00,1.200000000000000533e+01,8.125000000000000000e-01,-1.450000000000000711e+01,6.562500000000003553e+00,1.662500000000000711e+01,-1.268750000000000533e+01,-2.256250000000001066e+01,7.062500000000003553e+00,1.487500000000000711e+01,-1.656250000000000711e+01,-1.375000000000000533e+01,1.937500000000000711e+01,8.250000000000003553e+00,-1.800000000000000711e+01,-8.375000000000001776e+00,1.637500000000000711e+01,2.337500000000001066e+01,4.125000000000001776e+00,-1.143750000000000355e+01,2.125000000000001776e+00,1.450000000000000711e+01,-2.375000000000000000e+00,-1.562500000000000711e+01,-7.812500000000003553e+00,2.687500000000001332e+00,6.125000000000002665e+00,-2.812500000000001776e+00,-3.062500000000001776e+00,4.312500000000001776e+00,-4.437500000000002665e+00,-1.506250000000000711e+01,-6.250000000000001776e+00,1.100000000000000533e+01,2.250000000000000000e+00,-9.062500000000003553e+00,4.750000000000002665e+00,1.231250000000000533e+01,1.775000000000000711e+01,1.187500000000000711e+01,-2.200000000000001066e+01,-3.037500000000001421e+01,-8.687500000000003553e+00,5.875000000000002665e+00,1.462500000000000711e+01,7.437500000000002665e+00,-5.125000000000002665e+00,-7.687500000000003553e+00,-1.131249999999999822e+01,-7.499999999999857891e-01,1.493750000000000711e+01,1.099999999999998934e+01,2.624999999999993783e+00,3.125000000000001665e-01,-1.250000000000000555e-01,1.250000000000000555e-01,6.250000000000002776e-02,-6.250000000000002776e-02,0.000000000000000000e+00,-6.250000000000002776e-02,0.000000000000000000e+00,1.875000000000000833e-01,1.875000000000000833e-01,0.000000000000000000e+00,0.000000000000000000e+00,1.250000000000000555e-01,-1.875000000000000833e-01,-3.125000000000001110e-01,1.250000000000000833e-01,2.500000000000001110e-01,6.250000000000002776e-02,-6.250000000000002776e-02,-6.250000000000002776e-02,0.000000000000000000e+00,-1.875000000000001110e-01,-2.500000000000001110e-01,6.250000000000002776e-02,2.500000000000001110e-01,3.125000000000001665e-01,3.124999999999930611e-01,6.249999999998578915e-02,4.375000000000001665e-01,3.125000000000015099e+00,3.812500000000008882e+00,-3.625000000000000888e+00,-8.812500000000003553e+00,-2.625000000000000888e+00,2.937500000000008882e+00,1.937500000000015321e+00,7.500000000000002220e-01,6.874999999999860112e-01,6.249999999999931166e-01,3.125000000000001665e-01,-1.875000000000001110e-01,-6.250000000000005551e-02,3.750000000000001665e-01,1.875000000000000833e-01,-3.125000000000001110e-01,-4.375000000000002220e-01,-6.250000000000005551e-02,2.500000000000001110e-01,-2.500000000000001110e-01,-5.000000000000002220e-01,2.500000000000001110e-01,5.000000000000002220e-01,1.250000000000000555e-01,6.250000000000002776e-02,1.250000000000000555e-01,1.875000000000001110e-01,-6.250000000000002776e-02,-5.000000000000002220e-01,-3.125000000000001665e-01,-6.250000000000004163e-02,-1.250000000000000555e-01,1.250000000000000833e-01,3.125000000000001665e-01,1.250000000000000555e-01,0.000000000000000000e+00,0.000000000000000000e+00,6.250000000000002776e-02,2.500000000000001110e-01,3.750000000000002220e-01,6.250000000000002776e-02,-3.750000000000002220e-01,-1.250000000000071609e-01,2.499999999999859002e-01,-1.249999999999929501e-01,-6.249999999999718003e-01,-5.624999999999931166e-01,-6.250000000001426637e-02,1.874999999999929501e-01,-6.250000000000004163e-02,-6.250000000000001388e-02,3.750000000000001665e-01,5.000000000000002220e-01,1.250000000000000833e-01,-6.250000000000002776e-02,1.250000000000000555e-01,1.250000000000000555e-01,-1.250000000000000555e-01,-1.875000000000000833e-01,-6.250000000000002776e-02,-6.250000000000002776e-02,-1.875000000000000833e-01,-1.250000000000000555e-01,1.875000000000001110e-01,3.125000000000001665e-01,0.000000000000000000e+00,-2.500000000000001110e-01,-6.250000000000002776e-02,1.250000000000000555e-01,1.250000000000000555e-01,1.250000000000000555e-01,-6.250000000000002776e-02,-3.125000000000001665e-01,-1.875000000000001110e-01,1.875000000000001110e-01,3.125000000000001665e-01,6.250000000000002776e-02,-1.875000000000000833e-01,-1.875000000000000833e-01,-6.250000000000002776e-02,-6.250000000000002776e-02,6.250000000000002776e-02,4.375000000000002220e-01,3.750000000000002220e-01,-6.250000000000005551e-02,-3.125000000000002220e-01,-3.125000000000001665e-01,-6.250000000000002776e-02,1.250000000000000555e-01,1.250000000000000555e-01,1.875000000000000833e-01,1.250000000000000555e-01,-1.250000000000000555e-01,-1.875000000000000833e-01,0.000000000000000000e+00,1.875000000000000833e-01,6.250000000000002776e-02,-2.500000000000001110e-01,-1.250000000000000833e-01,2.500000000000001110e-01,2.875000000000000888e+00,7.499999999999995559e+00,9.624999999999989342e+00,6.375000000000003553e+00,-9.999999999999989342e+00,-1.843750000000000000e+01,1.025000000000000355e+01,3.112500000000001421e+01,1.812500000000000000e+00,-3.975000000000002132e+01,-3.825000000000001421e+01,3.187500000000003553e+00,2.537500000000001066e+01,2.000000000000000711e+01,1.437500000000000711e+01,4.375000000000008882e-01,-7.437500000000003553e+00,3.500000000000000444e+00,8.000000000000003553e+00,-7.937500000000001776e+00,-2.337500000000001066e+01,-1.075000000000000711e+01,1.131250000000000355e+01,2.056250000000000711e+01,1.068750000000000355e+01,-1.437500000000000533e+01,-4.687500000000000000e+00,2.412500000000001421e+01,6.000000000000001776e+00,-2.156250000000001421e+01,-1.775000000000001066e+01,-5.687500000000002665e+00,2.562500000000001332e+00,1.812500000000000888e+00,5.437500000000003553e+00,1.543750000000000711e+01,6.937500000000001776e+00,-1.356250000000000711e+01,-2.318750000000001066e+01,-7.062500000000003553e+00,1.481250000000000711e+01,1.525000000000000711e+01,8.562500000000003553e+00,7.500000000000002665e+00,4.062500000000000888e+00,-8.687500000000003553e+00,-1.356250000000000711e+01,-4.875000000000002665e+00,-1.125000000000000444e+00,4.562500000000002665e+00,1.375000000000000711e+01,6.562500000000001776e+00,-1.168750000000000533e+01,-1.306250000000000533e+01,7.000000000000001776e+00,1.206250000000000355e+01,-1.612500000000000711e+01,-2.418750000000001066e+01,8.812500000000003553e+00,1.768750000000000711e+01,-8.375000000000003553e+00,-1.718750000000000711e+01,2.500000000000001776e+00,2.506250000000001066e+01,1.943750000000000711e+01,-9.312500000000005329e+00,-1.625000000000001066e+01,-5.375000000000003553e+00,-1.368750000000000533e+01,-1.531250000000000711e+01,1.493750000000000533e+01,2.918750000000001421e+01,6.125000000000002665e+00,-1.031250000000000533e+01,-6.125000000000002665e+00,-4.375000000000001110e-01,1.687500000000000444e+00,-2.250000000000000888e+00,-9.812500000000005329e+00,-4.875000000000002665e+00,1.306250000000000711e+01,1.518750000000000711e+01,-8.562500000000005329e+00,-1.600000000000000711e+01,1.281250000000000533e+01,1.818750000000000711e+01,-1.293750000000000533e+01,-1.456250000000000533e+01,7.250000000000003553e+00,5.875000000000003553e+00,-5.625000000000001776e+00,-5.812500000000002665e+00,-1.437500000000000888e+00,1.875000000000000833e-01,6.250000000000002776e-02,-2.500000000000001110e-01,-1.875000000000001110e-01,6.250000000000002776e-02,6.250000000000002776e-02,-6.250000000000002776e-02,-1.250000000000000555e-01,0.000000000000000000e+00,1.250000000000000555e-01,1.250000000000000555e-01,1.875000000000000833e-01,1.250000000000000555e-01,-1.875000000000001110e-01,-2.500000000000001110e-01,6.250000000000002776e-02,6.250000000000002776e-02,-1.875000000000000833e-01,-1.250000000000000555e-01,6.250000000000002776e-02,2.500000000000001110e-01,1.875000000000001110e-01,-1.875000000000001110e-01,-2.500000000000001110e-01,-6.250000000000002776e-02,1.875000000000001110e-01,4.375000000000002220e-01,6.250000000000000000e-02,-5.625000000000003331e-01,-3.125000000000002220e-01,3.750000000000002220e-01,4.375000000000002220e-01,0.000000000000000000e+00,-3.750000000000001665e-01,-3.125000000000001110e-01,0.000000000000000000e+00,0.000000000000000000e+00,0.000000000000000000e+00,2.500000000000001110e-01,1.875000000000001110e-01,0.000000000000000000e+00,6.250000000000002776e-02,0.000000000000000000e+00,-1.250000000000000555e-01,-6.250000000000002776e-02,0.000000000000000000e+00,6.250000000000002776e-02,6.250000000000002776e-02,-1.875000000000001110e-01,-1.875000000000001110e-01,1.875000000000001110e-01,1.875000000000001110e-01,-6.250000000000002776e-02,-6.250000000000002776e-02,0.000000000000000000e+00,0.000000000000000000e+00,0.000000000000000000e+00,0.000000000000000000e+00,0.000000000000000000e+00,0.000000000000000000e+00,0.000000000000000000e+00,0.000000000000000000e+00,6.250000000000002776e-02,-1.687500000000000888e+00,-3.687500000000001776e+00,-1.062500000000000444e+00,-4.437500000000001776e+00,-8.687500000000003553e+00,8.750000000000005329e+00,1.643750000000000711e+01,-1.112500000000000533e+01,-2.731250000000001066e+01,1.937500000000003553e+00,3.437500000000001421e+01,1.512500000000000355e+01,-1.800000000000001066e+01,-1.581250000000000888e+01,-1.168750000000000711e+01,-1.031250000000000711e+01,1.487500000000000533e+01,2.631250000000001066e+01,-2.000000000000001776e+00,-2.200000000000000711e+01,-8.750000000000001776e+00,4.750000000000003553e+00,2.000000000000000888e+00,3.250000000000000888e+00,1.218750000000000533e+01,1.687500000000000000e+00,-1.625000000000000711e+01,-3.500000000000000000e+00,1.487500000000000711e+01,5.187500000000001776e+00,-2.875000000000001776e+00,8.125000000000006661e-01,1.875000000000003331e-01,4.187500000000001776e+00,3.125000000000000000e-01,-5.375000000000002665e+00,5.937500000000002665e+00,-6.250000000000000000e-01,-1.387500000000000711e+01,6.562500000000003553e+00,1.600000000000000711e+01,-1.043750000000000533e+01,-1.493750000000000711e+01,7.937500000000002665e+00,5.625000000000001776e+00,-1.312500000000000533e+01,-1.362500000000000533e+01,3.750000000000000000e-01,1.387500000000000533e+01,7.187500000000001776e+00,-6.312500000000003553e+00,2.687500000000001776e+00,7.250000000000003553e+00,-6.187500000000003553e+00,-7.125000000000003553e+00,6.375000000000003553e+00,1.225000000000000533e+01,2.750000000000000888e+00,-1.175000000000000355e+01,-9.000000000000003553e+00,1.093750000000000533e+01,1.318750000000000711e+01,5.000000000000001776e+00,6.500000000000001776e+00,-5.687500000000001776e+00,-1.193750000000000355e+01,6.437500000000002665e+00,1.456250000000000711e+01,1.225000000000000533e+01,2.375000000000000888e+00,-1.962500000000000711e+01,-1.206250000000000533e+01,1.575000000000000888e+01,1.143750000000000533e+01,-2.937500000000001776e+00,-9.437500000000003553e+00,-2.262500000000001066e+01,-1.575000000000000711e+01,7.500000000000001110e-01,-7.062500000000003553e+00,-2.750000000000000888e+00,1.281250000000000533e+01,6.187500000000001776e+00,6.562500000000003553e+00,5.250000000000002665e+00,-1.237500000000000711e+01,-9.375000000000017764e-01,1.443750000000000711e+01,-7.437500000000004441e+00,-1.556250000000000888e+01,4.750000000000001776e+00,1.325000000000000711e+01,9.687500000000003553e+00,1.875000000000000888e+00,-5.437500000000002665e+00,3.625000000000001776e+00,1.475000000000000711e+01,7.687500000000003553e+00,3.875000000000000888e+00,-3.125000000000017764e-01,-2.350000000000001066e+01,-2.425000000000000711e+01,5.812500000000003553e+00,1.837500000000000711e+01,6.250000000000000000e-02,-1.862500000000000711e+01,-2.812500000000001776e+00,1.887500000000000711e+01,6.500000000000003553e+00
3.500000000000000888e+00,-1.250000000000000444e+00,-4.250000000000000888e+00,1.750000000000000444e+00,1.475000000000000355e+01,-3.025000000000000711e+01,2.675000000000000711e+01,2.000000000000000000e+00,-2.450000000000000711e+01,9.250000000000003553e+00,1.925000000000000355e+01,-2.900000000000000711e+01,8.750000000000003553e+00,2.175000000000000355e+01,-2.925000000000000711e+01,2.600000000000000711e+01,-3.300000000000000711e+01,3.300000000000000711e+01,-1.500000000000000355e+01,-1.000000000000000178e+01,2.575000000000000711e+01,-1.250000000000000355e+01,-1.625000000000000355e+01,2.825000000000000711e+01,-1.925000000000000355e+01,1.175000000000000355e+01,-2.500000000000000711e+01,1.975000000000000355e+01,-4.000000000000000888e+00,1.450000000000000355e+01,-2.350000000000000711e+01,3.100000000000000711e+01,-2.225000000000000355e+01,-1.350000000000000355e+01,3.300000000000000711e+01,-1.225000000000000355e+01,-1.725000000000000355e+01,1.700000000000000355e+01,6.500000000000000888e+00,-2.650000000000000711e+01,1.125000000000000355e+01,2.375000000000000355e+01,-3.450000000000000711e+01,1.250000000000000355e+01,2.200000000000000355e+01,-3.850000000000000711e+01,2.900000000000000711e+01,-6.500000000000001776e+00,7.250000000000001776e+00,-3.100000000000000711e+01,3.500000000000000711e+01,-7.500000000000001776e+00,-1.750000000000000355e+01,2.200000000000000355e+01,-1.450000000000000355e+01,1.500000000000000444e+00,-1.175000000000000355e+01,1.750000000000000355e+01,3.500000000000000888e+00,-1.800000000000000355e+01,2.400000000000000711e+01,-2.425000000000000711e+01,1.050000000000000178e+01,1.975000000000000355e+01,-2.400000000000000355e+01,-9.000000000000003553e+00,1.675000000000000355e+01,-2.500000000000000000e-01,1.200000000000000355e+01,-3.350000000000000711e+01,3.350000000000000711e+01,-1.325000000000000355e+01,3.250000000000000888e+00,-4.750000000000000888e+00,2.500000000000000555e-01,-1.525000000000000355e+01,1.425000000000000355e+01,2.250000000000000444e+00,1.800000000000000355e+01,-3.450000000000000711e+01,2.250000000000000711e+01,1.750000000000000000e+00,-1.400000000000000355e+01,9.750000000000001776e+00,-3.000000000000000444e+00,-1.000000000000000178e+01,-5.250000000000001776e+00,1.575000000000000355e+01,-3.000000000000000888e+00,1.550000000000000355e+01,-1.450000000000000355e+01,-1.600000000000000355e+01,3.725000000000000711e+01,-2.925000000000000711e+01,1.750000000000000355e+01,-1.975000000000000355e+01,1.925000000000000355e+01,-3.000000000000000711e+01,3.100000000000000711e+01,-1.350000000000000355e+01,1.075000000000000355e+01,2.250000000000000000e+00,-2.650000000000000711e+01,3.150000000000000711e+01,-1.650000000000000355e+01,2.500000000000000888e+00,-2.000000000000000444e+00,-1.200000000000000355e+01,2.275000000000000711e+01,-6.250000000000000888e+00,4.250000000000000888e+00,-1.650000000000000355e+01,-7.500000000000000000e-01,2.500000000000000711e+01,-3.175000000000000711e+01,2.400000000000000711e+01,-1.300000000000000355e+01,6.750000000000000888e+00,2.250000000000000888e+00,1.075000000000000355e+01,-2.050000000000000711e+01,-6.000000000000001776e+00,2.800000000000000711e+01,-3.000000000000000711e+01,2.100000000000000711e+01,-1.475000000000000355e+01,1.100000000000000355e+01,1.450000000000000355e+01,-2.700000000000000711e+01,-1.500000000000000000e+00,3.150000000000000711e+01,-4.000000000000000711e+01,3.825000000000000711e+01,-2.425000000000000355e+01,-9.000000000000003553e+00,2.725000000000000711e+01,-2.500000000000000711e+01,2.525000000000000711e+01,-4.250000000000001776e+00,-2.600000000000000711e+01,1.425000000000000355e+01,1.675000000000000355e+01,-2.650000000000000711e+01,1.975000000000000711e+01,-1.575000000000000355e+01,1.900000000000000355e+01,0.000000000000000000e+00,-2.425000000000000711e+01,8.250000000000003553e+00,1.675000000000000355e+01,-2.500000000000000000e-01,-2.300000000000000711e+01,5.250000000000001776e+00,2.575000000000000711e+01,-3.225000000000000711e+01,1.025000000000000355e+01,1.325000000000000355e+01,-3.250000000000000000e+00,-1.875000000000000711e+01,2.600000000000000711e+01,-2.625000000000000711e+01,1.425000000000000355e+01,-6.750000000000001776e+00,4.000000000000000888e+00,1.525000000000000355e+01,-2.175000000000000711e+01,-4.000000000000000000e+00,1.825000000000000355e+01,2.750000000000000000e+00,-2.425000000000000711e+01,1.425000000000000355e+01,1.425000000000000355e+01,-2.850000000000000711e+01,1.625000000000000355e+01,1.275000000000000355e+01,-1.800000000000000355e+01,-9.750000000000003553e+00,2.500000000000000711e+01,-1.275000000000000178e+01,-3.750000000000000888e+00,1.825000000000000355e+01,-3.425000000000000711e+01,3.675000000000000711e+01,-1.725000000000000355e+01,-2.500000000000000888e+00,1.350000000000000355e+01,-2.550000000000000711e+01,2.575000000000000711e+01,-2.200000000000000711e+01,2.625000000000000711e+01,-1.375000000000000355e+01,1.500000000000000444e+00,7.500000000000000000e-01,-2.200000000000000355e+01,2.300000000000000355e+01,-2.000000000000000444e+00,1.025000000000000355e+01,-2.575000000000000711e+01,1.900000000000000355e+01,2.250000000000000888e+00,-1.325000000000000355e+01,1.725000000000000355e+01,-2.600000000000000711e+01,8.250000000000001776e+00,1.850000000000000711e+01,-2.400000000000000711e+01,3.325000000000000711e+01,-3.250000000000000711e+01,2.500000000000000000e+00,2.200000000000000711e+01,-2.625000000000000711e+01,1.275000000000000355e+01,1.450000000000000355e+01,-3.175000000000000711e+01,2.200000000000000355e+01,-8.000000000000001776e+00,2.225000000000000355e+01,-3.650000000000000711e+01,2.350000000000000711e+01,6.750000000000001776e+00,-2.675000000000000711e+01,6.250000000000001776e+00,3.000000000000000711e+01,-3.325000000000000711e+01,1.750000000000000000e+00,1.550000000000000355e+01,-1.450000000000000355e+01,1.850000000000000355e+01,5.000000000000000000e-01,-2.425000000000000711e+01,1.950000000000000711e+01,-2.500000000000000888e+00,2.250000000000000000e+00,-2.325000000000000355e+01,3.200000000000000711e+01,-1.725000000000000355e+01,-8.000000000000001776e+00,2.375000000000000711e+01,-2.725000000000000711e+01,1.900000000000000355e+01,3.250000000000000888e+00,-2.200000000000000711e+01,1.475000000000000355e+01,1.400000000000000355e+01,-1.750000000000000355e+01,-1.075000000000000355e+01,3.100000000000000711e+01,-3.550000000000000711e+01,2.425000000000000711e+01,1.000000000000000178e+01,-1.725000000000000355e+01,-3.250000000000000888e+00,-1.275000000000000355e+01,1.850000000000000355e+01,8.750000000000001776e+00,-2.125000000000000355e+01,2.375000000000000711e+01,-1.025000000000000355e+01,4.500000000000001776e+00,-1.850000000000000355e+01,1.950000000000000355e+01,-1.850000000000000355e+01,3.750000000000000000e+00,2.800000000000000711e+01,-3.025000000000000711e+01,-1.750000000000000000e+00,2.400000000000000711e+01,-6.000000000000001776e+00,-2.575000000000000711e+01,3.625000000000000711e+01,-2.775000000000000711e+01,1.800000000000000355e+01,-2.175000000000000711e+01,9.750000000000003553e+00,2.350000000000000355e+01,-1.800000000000000355e+01,-2.025000000000000355e+01,2.475000000000000711e+01,-7.250000000000001776e+00,-6.250000000000001776e+00,1.900000000000000355e+01,-2.300000000000000355e+01,2.425000000000000711e+01,-5.750000000000001776e+00,-2.575000000000000711e+01,1.750000000000000355e+01,5.750000000000000888e+00,-1.275000000000000355e+01,2.625000000000000711e+01,-1.575000000000000355e+01,-2.300000000000000355e+01,2.700000000000000711e+01,-1.100000000000000355e+01,4.750000000000000888e+00,1.375000000000000355e+01,-2.825000000000000711e+01,2.475000000000000711e+01,-2.150000000000000355e+01,1.625000000000000355e+01,1.050000000000000355e+01,-3.350000000000000711e+01,2.850000000000000711e+01,-2.375000000000000711e+01,2.700000000000000711e+01,-1.550000000000000355e+01,-1.225000000000000355e+01,3.125000000000000711e+01,-3.125000000000000711e+01,1.375000000000000355e+01,1.425000000000000355e+01,-2.275000000000000711e+01,-2.750000000000000000e+00,3.250000000000000711e+01,-2.500000000000000355e+01,-2.500000000000000888e+00,-2.000000000000000000e+00,2.100000000000000711e+01,-3.000000000000001776e+00,-2.850000000000000711e+01,3.625000000000000711e+01,-2.450000000000000711e+01,1.225000000000000355e+01,-2.500000000000000355e+01,3.675000000000000711e+01,-3.350000000000000711e+01,3.350000000000000711e+01,-3.275000000000000711e+01,2.600000000000000711e+01,-1.775000000000000355e+01,2.800000000000000711e+01,-1.250000000000000178e+01,-1.825000000000000355e+01,1.400000000000000355e+01,-2.475000000000000355e+01,1.750000000000000355e+01,1.925000000000000355e+01,-3.050000000000000711e+01,3.425000000000000711e+01,-2.775000000000000711e+01,-4.500000000000001776e+00,2.525000000000000711e+01,-2.075000000000000711e+01,-5.500000000000001776e+00,2.350000000000000711e+01,-4.750000000000000888e+00,-6.000000000000000888e+00,1.725000000000000355e+01,-4.075000000000001421e+01,1.050000000000000355e+01,5.850000000000001421e+01,-4.925000000000000711e+01,1.275000000000000355e+01,-5.000000000000000000e-01,-2.125000000000000711e+01,1.350000000000000355e+01,1.325000000000000355e+01,5.500000000000000000e+00,-2.375000000000000355e+01,-1.225000000000000355e+01,7.100000000000001421e+01,-5.750000000000001421e+01,1.500000000000000355e+01,-4.500000000000000000e+00,-1.750000000000000355e+01,3.175000000000000711e+01,-3.150000000000000711e+01,-2.750000000000001776e+00,2.425000000000000711e+01,-2.675000000000000711e+01,2.975000000000000711e+01,-3.150000000000000711e+01,2.475000000000000711e+01,-2.075000000000000711e+01,2.350000000000000711e+01,-6.500000000000000888e+00,-1.575000000000000355e+01,2.675000000000000711e+01,5.250000000000000000e+00,-1.750000000000000355e+01,-1.225000000000000178e+01,1.500000000000000355e+01,-1.050000000000000355e+01,-2.375000000000000711e+01,6.450000000000001421e+01,-8.000000000000000000e+00,-2.675000000000000711e+01,-1.450000000000000355e+01,3.975000000000001421e+01,-1.300000000000000355e+01,-5.525000000000001421e+01,9.750000000000000000e+00,4.125000000000000711e+01,2.750000000000000000e+00,-1.625000000000000355e+01,2.450000000000000355e+01,-4.000000000000000000e+00,1.500000000000000000e+00,-1.400000000000000355e+01,-1.200000000000000178e+01,1.575000000000000355e+01,-6.250000000000001776e+00,-1.550000000000000355e+01,1.800000000000000355e+01,1.275000000000000355e+01,-2.675000000000000711e+01,2.450000000000000711e+01,-3.225000000000000711e+01,-2.000000000000000000e+00,7.175000000000001421e+01,-5.025000000000001421e+01,-1.375000000000000355e+01,2.675000000000000711e+01,-1.350000000000000355e+01,2.500000000000000555e-01,0.000000000000000000e+00,2.500000000000000555e-01,-2.500000000000000555e-01,0.000000000000000000e+00,-2.500000000000000555e-01,-2.500000000000000555e-01,-1.725000000000000355e+01,3.450000000000000711e+01,-1.500000000000000355e+01,-1.750000000000000444e+00,2.500000000000000555e-01,-1.500000000000000222e+00,5.000000000000000000e-01,-9.500000000000001776e+00,7.000000000000000888e+00,-3.225000000000000711e+01,5.375000000000001421e+01,1.425000000000000355e+01,-3.250000000000000711e+01,-2.250000000000000355e+01,2.100000000000000355e+01,-1.050000000000000355e+01,1.075000000000000355e+01,-2.500000000000000888e+00,1.350000000000000355e+01,-3.500000000000000000e+00,1.350000000000000178e+01,-1.675000000000000355e+01,-7.500000000000004441e-01,-2.250000000000000444e+00,0.000000000000000000e+00,-7.250000000000001776e+00,-1.575000000000000178e+01,2.125000000000000355e+01,3.350000000000000711e+01,-3.150000000000000711e+01,-2.500000000000000555e-01,-1.500000000000000444e+00,-2.750000000000000711e+01,3.075000000000000711e+01,2.675000000000000711e+01,-2.825000000000000711e+01,-2.500000000000000555e-01,-2.500000000000000555e-01,5.000000000000001110e-01,-2.500000000000000555e-01,0.000000000000000000e+00,0.000000000000000000e+00,2.500000000000000555e-01,-5.000000000000001110e-01,2.500000000000000555e-01,0.000000000000000000e+00,-2.500000000000000555e-01,7.500000000000002220e-01,-7.500000000000002220e-01,0.000000000000000000e+00,5.000000000000001110e-01,-2.500000000000000555e-01,2.500000000000000555e-01,-7.500000000000002220e-01,1.000000000000000222e+00,-1.000000000000000222e+00,1.000000000000000222e+00,-7.500000000000002220e-01,2.500000000000000555e-01,-2.500000000000000555e-01,2.500000000000000555e-01,2.500000000000000555e-01,-2.500000000000000555e-01,0.000000000000000000e+00,0.000000000000000000e+00,0.000000000000000000e+00,0.000000000000000000e+00,2.500000000000000555e-01,-7.500000000000002220e-01,7.500000000000002220e-01,-1.800000000000000355e+01,7.500000000000001776e+00,2.300000000000000711e+01,-5.525000000000001421e+01,4.875000000000000711e+01,2.250000000000000711e+01,-4.750000000000001421e+01,1.800000000000000355e+01,-4.000000000000000888e+00,-1.475000000000000355e+01,2.625000000000000711e+01,-3.500000000000000888e+00,1.750000000000000000e+00,1.250000000000000888e+00,-3.925000000000000711e+01,2.675000000000000711e+01,2.975000000000000711e+01,-4.025000000000000711e+01,1.475000000000000355e+01,-1.550000000000000355e+01,3.650000000000000711e+01,-4.525000000000001421e+01,2.900000000000000711e+01,5.000000000000001776e+00,-2.950000000000000711e+01,3.575000000000000711e+01,-4.025000000000001421e+01,3.225000000000000711e+01,-1.050000000000000355e+01,1.925000000000000355e+01,-2.950000000000000711e+01,9.250000000000003553e+00,8.500000000000001776e+00,-1.900000000000000355e+01,2.275000000000000711e+01,-1.425000000000000355e+01,-3.750000000000000000e+00,2.675000000000000711e+01,-2.975000000000000711e+01,2.350000000000000711e+01,-1.750000000000000355e+01,1.625000000000000355e+01,-8.250000000000001776e+00,-1.500000000000000444e+00,-2.000000000000000355e+01,2.175000000000000355e+01,1.875000000000000355e+01,-2.850000000000000711e+01,-4.500000000000001776e+00,2.575000000000000711e+01,-1.750000000000000000e+00,-1.950000000000000355e+01,-3.250000000000001776e+00,4.050000000000001421e+01,-3.800000000000000711e+01,4.500000000000000000e+00,2.500000000000008882e-01,1.900000000000000355e+01,-3.675000000000000711e+01,3.625000000000000711e+01,-2.250000000000000711e+01,-3.250000000000001776e+00,2.650000000000000711e+01,-3.125000000000000711e+01,2.525000000000000711e+01,5.000000000000001776e+00,-2.500000000000000711e+01,3.500000000000001776e+00,3.275000000000000711e+01,-3.075000000000000711e+01,4.000000000000000888e+00,-1.675000000000000355e+01,4.300000000000000711e+01,-2.850000000000000355e+01,-2.150000000000000711e+01,3.550000000000000711e+01,3.000000000000000000e+00,-3.300000000000000711e+01,2.650000000000000355e+01,-2.750000000000000355e+01,4.650000000000001421e+01,-2.850000000000000711e+01,1.200000000000000355e+01,-1.900000000000000355e+01,2.575000000000000711e+01,0.000000000000000000e+00,-3.250000000000000711e+01,3.650000000000000711e+01,-3.925000000000000711e+01,3.675000000000000711e+01,-1.425000000000000355e+01,-1.850000000000000355e+01,4.050000000000000711e+01,-4.300000000000000711e+01,3.450000000000000711e+01,-4.125000000000001421e+01,2.925000000000000711e+01,1.050000000000000355e+01,-4.300000000000001421e+01,4.225000000000001421e+01,-1.850000000000000355e+01,1.000000000000000000e+00,3.025000000000000711e+01,-2.425000000000000711e+01,-2.250000000000000355e+01,2.550000000000000355e+01,-2.175000000000000355e+01,1.350000000000000355e+01,2.050000000000000355e+01,-4.300000000000001421e+01,4.650000000000001421e+01,-4.400000000000000711e+01,1.775000000000000000e+01,4.750000000000015987e+00,9.999999999999860112e-01,2.500000000000000555e-01,2.500000000000000555e-01,-7.500000000000002220e-01,7.500000000000002220e-01,-2.500000000000000555e-01,-2.500000000000000555e-01,5.000000000000001110e-01,-5.000000000000001110e-01,2.500000000000000555e-01,0.000000000000000000e+00,0.000000000000000000e+00,2.500000000000000555e-01,-5.000000000000001110e-01,5.000000000000001110e-01,0.000000000000000000e+00,-7.500000000000002220e-01,7.500000000000002220e-01,-2.500000000000000555e-01,0.000000000000000000e+00,2.500000000000000555e-01,-5.000000000000001110e-01,5.000000000000001110e-01,-2.500000000000000555e-01,-2.500000000000000555e-01,2.500000000000000555e-01,0.000000000000000000e+00,0.000000000000000000e+00,2.500000000000000555e-01,-1.421085471520200372e-14,-2.499999999999858447e-01,2.500000000000000555e-01,2.000000000000000444e+00,4.000000000000001776e+00,-1.350000000000000355e+01,7.250000000000001776e+00,-1.250000000000000222e+00,1.000000000000000222e+00,-2.499999999999858447e-01,4.999999999999859002e-01,-2.500000000000000555e-01,7.500000000000002220e-01,-7.500000000000002220e-01,2.500000000000000555e-01,0.000000000000000000e+00,4.999999999999859002e-01,-7.499999999999718003e-01,4.999999999999716893e-01,-7.499999999999718003e-01,7.499999999999860112e-01,-1.421085471520200372e-14,-9.999999999999718003e-01,7.499999999999859002e-01,2.500000000000000555e-01,-5.000000000000001110e-01,5.000000000000001110e-01,-2.500000000000000555e-01,0.000000000000000000e+00,4.999999999999859002e-01,-7.499999999999718003e-01,-1.421085471520200372e-14,5.000000000000001110e-01,-7.500000000000002220e-01,5.000000000000001110e-01,0.000000000000000000e+00,0.000000000000000000e+00,0.000000000000000000e+00,0.000000000000000000e+00,0.000000000000000000e+00,0.000000000000000000e+00,2.500000000000000555e-01,0.000000000000000000e+00,-1.421085471520200372e-14,-7.499999999999718003e-01,1.249999999999971800e+00,-9.999999999999860112e-01,5.000000000000001110e-01,-7.499999999999860112e-01,2.499999999999858447e-01,2.500000000000000555e-01,-2.500000000000000555e-01,0.000000000000000000e+00,0.000000000000000000e+00,5.000000000000001110e-01,-2.500000000000000555e-01,0.000000000000000000e+00,0.000000000000000000e+00,2.500000000000000555e-01,-2.500000000000000555e-01,0.000000000000000000e+00,0.000000000000000000e+00,0.000000000000000000e+00,0.000000000000000000e+00,-2.500000000000000555e-01,2.500000000000000555e-01,0.000000000000000000e+00,2.500000000000000555e-01,-5.000000000000001110e-01,2.500000000000000555e-01,0.000000000000000000e+00,0.000000000000000000e+00,0.000000000000000000e+00,2.500000000000000555e-01,-5.000000000000001110e-01,2.500000000000000555e-01,-2.500000000000000555e-01,5.000000000000001110e-01,-2.500000000000000555e-01,0.000000000000000000e+00,0.000000000000000000e+00,-2.500000000000000555e-01,5.000000000000001110e-01,-7.500000000000002220e-01,7.500000000000002220e-01,0.000000000000000000e+00,-2.500000000000000555e-01,2.500000000000000555e-01,-5.000000000000001110e-01,2.500000000000000555e-01,0.000000000000000000e+00,0.000000000000000000e+00,0.000000000000000000e+00,2.500000000000000555e-01,-2.500000000000000555e-01,0.000000000000000000e+00,0.000000000000000000e+00,0.000000000000000000e+00,2.500000000000000555e-01,-2.500000000000000555e-01,-2.500000000000000555e-01,5.000000000000001110e-01,-2.500000000000000555e-01,2.500000000000000555e-01,1.024999999999998757e+01,-1.199999999999998757e+01,2.425000000000000355e+01,-4.075000000000000711e+01,1.525000000000000355e+01,2.475000000000000355e+01,-1.075000000000000178e+01,-1.250000000000000000e+00,-3.750000000000000711e+01,1.675000000000000711e+01,2.075000000000000355e+01,-1.950000000000000355e+01,2.550000000000000711e+01,-4.750000000000001776e+00,-1.925000000000000355e+01,2.475000000000000711e+01,-1.975000000000000355e+01,2.625000000000000355e+01,-3.425000000000000711e+01,2.000000000000000000e+00,1.875000000000000355e+01,-1.925000000000000355e+01,3.600000000000000711e+01,-2.325000000000000711e+01,-2.200000000000000355e+01,4.525000000000001421e+01,-1.075000000000000355e+01,-2.075000000000000355e+01,1.250000000000000355e+01,-1.400000000000000355e+01,3.750000000000001332e+00,1.700000000000000355e+01,-3.675000000000000711e+01,5.125000000000001421e+01,-3.450000000000000711e+01,2.225000000000000355e+01,-2.250000000000000711e+01,-1.100000000000000178e+01,3.175000000000000711e+01,-2.150000000000000711e+01,2.125000000000000711e+01,-1.100000000000000355e+01,5.000000000000000888e+00,1.250000000000000178e+01,-4.100000000000000711e+01,4.525000000000001421e+01,-4.425000000000001421e+01,3.750000000000000711e+01,-2.900000000000000711e+01,4.100000000000000711e+01,-4.075000000000000711e+01,2.175000000000000355e+01,-2.425000000000000711e+01,3.625000000000000711e+01,-1.775000000000000355e+01,-2.300000000000000355e+01,1.325000000000000355e+01,2.300000000000000355e+01,-2.650000000000000711e+01,8.750000000000001776e+00,-1.475000000000000355e+01,2.075000000000000711e+01,7.000000000000001776e+00,-2.000000000000000000e+00,-2.450000000000000711e+01,2.400000000000000711e+01,-1.300000000000000178e+01,-1.350000000000000355e+01,5.750000000000001776e+00,2.475000000000000711e+01,-6.750000000000001776e+00,-1.425000000000000355e+01,1.725000000000000355e+01,-2.250000000000000711e+01,2.575000000000000711e+01,-2.450000000000000711e+01,2.300000000000000711e+01,-3.450000000000000711e+01,3.300000000000000711e+01,-1.200000000000000355e+01,1.725000000000000355e+01,-3.375000000000000711e+01,1.225000000000000355e+01,3.250000000000000711e+01,-3.450000000000000711e+01,5.000000000000008882e-01,1.100000000000000178e+01,2.500000000000000000e-01,-5.500000000000000888e+00,-5.000000000000001110e-01,5.000000000000001110e-01,-5.000000000000001110e-01,7.500000000000002220e-01,-7.500000000000002220e-01,2.500000000000000555e-01,0.000000000000000000e+00,0.000000000000000000e+00,0.000000000000000000e+00,0.000000000000000000e+00,-2.500000000000000555e-01,5.000000000000001110e-01,-5.000000000000001110e-01,5.000000000000001110e-01,-2.500000000000000555e-01,2.500000000000000555e-01,-5.000000000000001110e-01,2.500000000000000555e-01,2.500000000000000555e-01,-5.000000000000001110e-01,2.500000000000000555e-01,0.000000000000000000e+00,-2.500000000000000555e-01,7.500000000000002220e-01,-7.500000000000002220e-01,2.500000000000000555e-01,0.000000000000000000e+00,-2.500000000000000555e-01,5.000000000000001110e-01,0.000000000000000000e+00,-2.500000000000000555e-01,-5.000000000000001110e-01,7.500000000000002220e-01,-2.500000000000000555e-01,2.500000000000000555e-01,-2.500000000000000555e-01,-2.500000000000000555e-01,2.500000000000000555e-01,0.000000000000000000e+00,-2.500000000000000555e-01,2.500000000000000555e-01,2.500000000000000555e-01,-5.000000000000001110e-01,5.000000000000001110e-01,-2.500000000000000555e-01,0.000000000000000000e+00,0.000000000000000000e+00,0.000000000000000000e+00,0.000000000000000000e+00,0.000000000000000000e+00,2.500000000000000555e-01,-7.500000000000002220e-01,7.500000000000002220e-01,-2.500000000000000555e-01,0.000000000000000000e+00,0.000000000000000000e+00,0.000000000000000000e+00,0.000000000000000000e+00,0.000000000000000000e+00,0.000000000000000000e+00,0.000000000000000000e+00,0.000000000000000000e+00,0.000000000000000000e+00,0.000000000000000000e+00,0.000000000000000000e+00,0.000000000000000000e+00,2.500000000000000555e-01,-7.750000000000001776e+00,1.475000000000000355e+01,-1.775000000000000355e+01,-4.500000000000001776e+00,3.850000000000000711e+01,-3.575000000000000711e+01,1.350000000000000355e+01,-3.350000000000000711e+01,4.825000000000001421e+01,-2.500000000000000000e+00,-2.150000000000000711e+01,2.000000000000000000e+00,1.075000000000000355e+01,-2.975000000000000711e+01,2.125000000000000711e+01,7.250000000000001776e+00,1.125000000000000355e+01,-3.850000000000000711e+01,2.825000000000000355e+01,-2.225000000000000355e+01,2.725000000000000711e+01,-3.100000000000000711e+01,2.925000000000000711e+01,-4.750000000000000888e+00,-1.100000000000000355e+01,-6.750000000000001776e+00,1.775000000000000355e+01,4.250000000000000888e+00,-2.600000000000000711e+01,3.500000000000000711e+01,-3.025000000000000711e+01,1.400000000000000355e+01,1.225000000000000355e+01,-3.025000000000000711e+01,2.300000000000000355e+01,5.000000000000000888e+00,-2.550000000000000711e+01,7.750000000000001776e+00,2.350000000000000711e+01,-1.725000000000000355e+01,-1.350000000000000355e+01,1.400000000000000355e+01,1.075000000000000178e+01,-2.400000000000000711e+01,1.150000000000000355e+01,-1.150000000000000355e+01,7.750000000000001776e+00,1.750000000000000355e+01,-2.650000000000000711e+01,1.025000000000000355e+01,1.500000000000000355e+01,-2.225000000000000711e+01,1.350000000000000355e+01,-1.550000000000000355e+01,2.650000000000000711e+01,-1.925000000000000711e+01,1.550000000000000355e+01,-2.600000000000000711e+01,1.450000000000000355e+01,1.925000000000000355e+01,-3.175000000000000711e+01,3.225000000000000711e+01,-1.000000000000000178e+01,-1.975000000000000711e+01,1.900000000000000355e+01,2.500000000000000888e+00,-9.250000000000001776e+00,2.400000000000000355e+01,-2.050000000000000355e+01,-1.800000000000000355e+01,2.975000000000000711e+01,-1.250000000000000000e+00,-1.800000000000000355e+01,2.425000000000000355e+01,-2.550000000000000711e+01,-8.000000000000001776e+00,1.550000000000000355e+01,7.500000000000002220e-01,-3.550000000000000711e+01,5.525000000000001421e+01,-3.750000000000000711e+01,1.100000000000000355e+01,2.025000000000000355e+01,-2.600000000000000711e+01,-3.000000000000001776e+00,2.650000000000000711e+01,-8.000000000000003553e+00,-3.125000000000000711e+01,4.025000000000001421e+01,-3.025000000000000711e+01,3.150000000000000711e+01,-2.125000000000000711e+01,1.550000000000000355e+01,-2.275000000000000711e+01,2.975000000000000711e+01,-8.750000000000001776e+00,-9.000000000000001776e+00,2.300000000000000355e+01,-1.725000000000000355e+01,-2.550000000000000355e+01,2.850000000000000711e+01,-1.200000000000000355e+01,1.950000000000000355e+01,-2.100000000000000711e+01,-1.325000000000000178e+01,3.850000000000000711e+01,-2.125000000000000355e+01
