-3.710737500000007572e+01,-4.318550000000007572e+01,-4.727925000000008993e+01,-4.981050000000008993e+01,-5.277925000000008993e+01,-5.446675000000008993e+01,-5.551362500000008993e+01,-5.579487500000008993e+01,-5.366987500000008993e+01,-5.290425000000008993e+01,-5.313862500000008993e+01,-5.273237500000008993e+01,-5.081050000000008993e+01,-4.807612500000008282e+01,-4.629487500000007572e+01,-4.316987500000007572e+01,-4.099800000000007572e+01,-3.810737500000006861e+01,-3.445112500000006861e+01,-3.132612500000006861e+01,-2.976362500000006861e+01,-2.979487500000006861e+01,-2.823237500000006861e+01,-2.782612500000006861e+01,-2.735737500000006861e+01,-2.748237500000006861e+01,-2.732612500000006861e+01,-2.746675000000006861e+01,-2.654487500000006861e+01,-2.410737500000006861e+01,-2.293550000000006150e+01,-2.087300000000006150e+01,-1.885737500000005795e+01,-1.641987500000005795e+01,-1.440425000000005795e+01,-1.220112500000005440e+01,-1.066987500000005440e+01,-1.012300000000005440e+01,-9.748000000000052623e+00,-1.065425000000005440e+01,-1.240425000000005618e+01,-1.388862500000005795e+01,-1.538862500000005795e+01,-1.702925000000005795e+01,-1.799800000000005795e+01,-1.959175000000005795e+01,-2.052925000000005795e+01,-2.018550000000005795e+01,-1.849800000000005795e+01,-1.829487500000005795e+01,-1.776362500000005795e+01,-1.829487500000005795e+01,-1.948237500000005795e+01,-1.927925000000005795e+01,-1.931050000000005795e+01,-1.995112500000005795e+01,-2.168550000000006150e+01,-2.165425000000006150e+01,-2.252925000000006150e+01,-2.163862500000006150e+01,-2.079487500000005795e+01,-2.135737500000005795e+01,-2.141987500000005795e+01,-2.181050000000006150e+01,-2.170112500000006150e+01,-2.329487500000006150e+01,-2.471675000000006861e+01,-2.784175000000006861e+01,-3.048237500000006861e+01,-3.260737500000006861e+01,-3.534175000000006861e+01,-3.824800000000006861e+01,-4.132612500000006861e+01,-4.302925000000006861e+01,-4.370112500000006861e+01,-4.282612500000006861e+01,-4.276362500000006861e+01,-4.220112500000006861e+01,-4.218550000000006861e+01,-4.134175000000006861e+01,-4.037300000000006861e+01,-3.959175000000006861e+01,-3.934175000000006861e+01,-3.957612500000006861e+01,-3.843550000000006861e+01,-3.693550000000006861e+01,-3.457612500000006861e+01,-3.198237500000006861e+01,-2.895112500000006861e+01,-2.641987500000006861e+01,-2.484175000000006861e+01,-2.313862500000006150e+01,-2.249800000000006150e+01,-2.331050000000006150e+01,-2.388862500000006506e+01,-2.554487500000006861e+01,-2.804487500000006861e+01,-2.991987500000006861e+01,-3.006050000000006861e+01,-3.101362500000006861e+01,-3.199800000000006861e+01,-3.207612500000006861e+01,-3.281050000000006861e+01,-3.257612500000006861e+01,-3.120112500000006861e+01,-3.041987500000006861e+01,-3.138862500000006861e+01,-3.181050000000006861e+01,-3.148237500000006861e+01,-3.126362500000006861e+01,-3.015425000000006861e+01,-2.971675000000006861e+01,-3.063862500000006861e+01,-3.113862500000006861e+01,-3.059175000000006861e+01,-2.949800000000006861e+01,-2.854487500000006861e+01,-2.740425000000006861e+01,-2.760737500000006861e+01,-2.743550000000006861e+01,-2.674800000000006861e+01,-2.665425000000006861e+01,-2.618550000000006861e+01,-2.627925000000006861e+01,-2.716987500000006861e+01,-2.854487500000006861e+01,-2.881050000000006861e+01,-2.999800000000006861e+01,-3.032612500000006861e+01,-3.066987500000006861e+01,-3.262300000000006861e+01,-3.510737500000006861e+01,-3.720112500000006861e+01,-3.906050000000006861e+01,-4.187300000000006861e+01,-4.307612500000006861e+01,-4.515425000000006861e+01,-4.704487500000007572e+01,-4.735737500000007572e+01,-4.749800000000007572e+01,-4.701362500000007572e+01,-4.629487500000007572e+01,-4.491987500000006861e+01,-4.421675000000006861e+01,-4.368550000000006861e+01,-4.179487500000006861e+01,-4.012300000000006861e+01,-3.718550000000006861e+01,-3.521675000000006861e+01,-3.254487500000006861e+01,-2.877925000000006861e+01,-2.546675000000006150e+01,-2.134175000000006150e+01,-1.851362500000005795e+01,-1.634175000000005795e+01,-1.584175000000005795e+01,-1.463862500000005795e+01,-1.551362500000005795e+01,-1.860737500000006150e+01,-2.157612500000006150e+01,-2.582612500000006506e+01,-3.096675000000006861e+01,-3.571675000000006861e+01,-3.966987500000007572e+01,-4.485737500000007572e+01,-4.820112500000008993e+01,-5.066987500000008993e+01,-5.365425000000008993e+01,-5.549800000000008993e+01,-5.571675000000008993e+01,-5.640425000000008993e+01,-5.718550000000008993e+01,-5.612300000000008993e+01,-5.577925000000008993e+01,-5.568550000000008993e+01,-5.479487500000008993e+01,-5.393550000000008993e+01,-5.371675000000008993e+01,-5.331050000000008993e+01,-5.209175000000008993e+01,-5.206050000000008993e+01,-5.256050000000008993e+01,-5.168550000000008993e+01,-5.071675000000008993e+01,-5.071675000000008993e+01,-5.051362500000008993e+01,-4.949800000000008282e+01,-4.990425000000008993e+01,-4.952925000000008993e+01,-4.782612500000008282e+01,-4.731050000000007572e+01,-4.581050000000007572e+01,-4.304487500000007572e+01,-4.052925000000006861e+01,-3.776362500000006861e+01,-3.371675000000006861e+01,-3.034175000000006861e+01,-2.698237500000006861e+01,-2.246675000000006506e+01,-1.973237500000006150e+01,-1.738862500000005795e+01,-1.410737500000005795e+01,-1.223237500000005440e+01,-1.095112500000005440e+01,-8.498000000000052623e+00,-6.935500000000052623e+00,-6.826125000000052623e+00,-5.935500000000050846e+00,-5.669875000000050846e+00,-7.560500000000052623e+00,-9.482375000000052623e+00,-1.235737500000005440e+01,-1.732612500000005795e+01,-2.254487500000006150e+01,-2.806050000000006861e+01,-3.445112500000006861e+01,-4.134175000000007572e+01,-4.670112500000008282e+01,-5.212300000000008993e+01,-5.652925000000008993e+01,-6.023237500000008993e+01,-6.465425000000008993e+01,-6.816987500000008993e+01,-7.143550000000008993e+01,-7.365425000000008993e+01,-7.643550000000008993e+01,-7.826362500000008993e+01,-8.021675000000008993e+01,-8.107612500000008993e+01,-8.056050000000008993e+01,-8.048237500000008993e+01,-7.921675000000008993e+01,-7.749800000000008993e+01,-7.593550000000008993e+01,-7.488862500000008993e+01,-7.301362500000008993e+01,-7.184175000000008993e+01,-7.093550000000008993e+01,-6.916987500000008993e+01,-6.931050000000008993e+01,-7.024800000000008993e+01,-6.963862500000008993e+01,-6.893550000000008993e+01,-6.931050000000008993e+01,-6.952925000000008993e+01,-6.959175000000008993e+01,-7.041987500000008993e+01,-6.896675000000008993e+01,-6.741987500000008993e+01,-6.671675000000008993e+01,-6.562300000000008993e+01,-6.404487500000008993e+01,-6.234175000000008993e+01,-5.970112500000008993e+01,-5.615425000000008993e+01,-5.385737500000008993e+01,-5.074800000000008993e+01,-4.885737500000008993e+01,-4.727925000000007572e+01,-4.629487500000006861e+01,-4.659175000000007572e+01,-4.787300000000008282e+01,-5.095112500000008993e+01,-5.454487500000008993e+01,-5.856050000000008993e+01,-6.146675000000008993e+01,-6.438862500000008993e+01,-6.596675000000008993e+01,-6.573237500000008993e+01,-6.634175000000008993e+01,-6.571675000000008993e+01,-6.421675000000008993e+01,-6.396675000000008993e+01,-6.327925000000008993e+01,-6.187300000000008993e+01,-6.138862500000008993e+01,-6.231050000000008993e+01,-6.224800000000008993e+01,-6.124800000000008993e+01,-6.054487500000008993e+01,-5.831050000000008993e+01,-5.588862500000008993e+01,-5.435737500000008993e+01,-5.271675000000008993e+01,-4.923237500000008993e+01,-4.593550000000007572e+01,-4.404487500000007572e+01,-4.210737500000006861e+01,-4.049800000000006861e+01,-3.999800000000006861e+01,-3.931050000000006861e+01,-3.885737500000006861e+01,-4.040425000000006861e+01,-4.188862500000006861e+01,-4.238862500000006861e+01,-4.220112500000006861e+01,-4.179487500000006861e+01,-4.073237500000006861e+01,-3.937300000000006861e+01,-3.795112500000006861e+01,-3.582612500000006861e+01,-3.273237500000006861e+01,-3.007612500000006861e+01,-2.770112500000006861e+01,-2.541987500000006861e+01,-2.307612500000006506e+01,-1.984175000000006150e+01,-1.649800000000005795e+01,-1.257612500000005440e+01,-9.810500000000052623e+00,-7.919875000000052623e+00,-6.216750000000051735e+00,-4.654250000000050846e+00,-3.935500000000049958e+00,-4.638625000000049958e+00,-4.388625000000049958e+00,-4.013625000000049958e+00,-3.623000000000049958e+00,-1.794875000000048626e+00,-8.417500000000478488e-01,-4.980000000000476268e-01,1.762499999995276179e-02,6.113749999999531504e-01,2.988749999999529838e-01,-1.029250000000047960e+00,-2.513625000000049070e+00,-4.357375000000049958e+00,-5.357375000000050846e+00,-5.513625000000050846e+00,-5.091750000000049958e+00,-3.326125000000049070e+00,-1.685500000000048404e+00,1.033249999999953594e+00,5.095749999999956259e+00,8.501999999999958035e+00,1.309574999999995981e+01,1.733012499999996336e+01,2.095512499999996692e+01,2.187699999999996692e+01,2.228324999999996692e+01,2.070512499999996692e+01,1.659574999999996336e+01,1.076762499999995981e+01,5.019999999999522622e-01,-1.268550000000005440e+01,-2.726362500000006150e+01,-4.185737500000007572e+01,-5.857612500000008993e+01,-7.641987500000010414e+01,-9.482612500000011835e+01,-1.134042500000001326e+02,-1.298573750000001326e+02,-1.448730000000001326e+02,-1.610761250000001326e+02,-1.786073750000001610e+02,-1.952011250000002178e+02,-2.109980000000002178e+02,-2.261230000000002178e+02,-2.390136250000002178e+02,-2.548886250000002178e+02,-2.710292500000002178e+02,-2.847480000000002178e+02,-2.962323750000002178e+02,-3.079980000000002178e+02,-3.188886250000002178e+02,-3.305761250000002178e+02,-3.445136250000002178e+02,-3.524667500000002178e+02,-3.588573750000002178e+02,-3.637480000000002178e+02,-3.677792500000002178e+02,-3.698886250000002178e+02,-3.710761250000002178e+02,-3.698261250000002178e+02,-3.659667500000002178e+02,-3.651698750000002178e+02,-3.650292500000002178e+02,-3.669511250000002178e+02,-3.700761250000002178e+02,-3.724823750000002178e+02,-3.746855000000002178e+02,-3.771386250000002178e+02,-3.786855000000002178e+02,-3.771855000000002178e+02,-3.746230000000002178e+02,-3.698730000000002178e+02,-3.628105000000002178e+02,-3.548573750000002178e+02,-3.463261250000002178e+02,-3.365136250000002178e+02,-3.276542500000002178e+02,-3.214823750000002178e+02,-3.129511250000002178e+02,-3.034198750000002178e+02,-2.942011250000002178e+02,-2.859355000000002178e+02,-2.782948750000002178e+02,-2.698261250000002178e+02,-2.601230000000002178e+02,-2.479511250000002178e+02,-2.372948750000002178e+02,-2.273105000000002178e+02,-2.153105000000002178e+02,-2.007948750000002178e+02,-1.845292500000002178e+02,-1.700292500000001610e+02,-1.554823750000001326e+02,-1.406386250000001326e+02,-1.250448750000001326e+02,-1.102948750000001326e+02,-9.843550000000013256e+01,-8.798237500000010414e+01,-7.784175000000008993e+01,-6.527925000000008993e+01,-5.215425000000007572e+01,-3.912300000000007572e+01,-2.677925000000006150e+01,-1.366987500000005440e+01,2.251999999999954927e+00,1.748637499999996336e+01,3.195512499999997402e+01,4.397074999999998113e+01,5.406449999999999534e+01,6.242387499999999534e+01,7.098637499999999534e+01,7.951762499999999534e+01,8.512699999999999534e+01,8.959575000000000955e+01,9.465825000000002376e+01,1.013301250000000380e+02,1.085332500000000380e+02,1.170801250000000380e+02,1.248926250000000380e+02,1.336113750000000380e+02,1.442051250000000380e+02,1.563457500000000380e+02,1.681113750000000380e+02,1.781738750000000664e+02,1.872988750000000948e+02,1.947832500000001232e+02,2.027051250000001232e+02,2.082363750000001232e+02,2.120020000000001232e+02,2.152051250000001232e+02,2.174395000000001232e+02,2.198926250000001232e+02,2.245488750000001232e+02,2.295488750000001232e+02,2.332051250000001232e+02,2.375332500000001232e+02,2.423457500000001232e+02,2.468145000000001232e+02,2.506270000000001232e+02,2.530488750000001232e+02,2.515645000000001232e+02,2.486738750000001232e+02,2.453926250000001232e+02,2.410801250000001232e+02,2.350332500000001232e+02,2.277051250000001232e+02,2.212988750000001232e+02,2.164551250000001232e+02,2.130020000000001232e+02,2.106582500000001232e+02,2.100332500000001232e+02,2.104238750000001232e+02,2.113770000000001232e+02,2.130801250000001232e+02,2.136270000000001232e+02,2.127207500000001232e+02,2.131426250000001232e+02,2.142051250000001232e+02,2.127832500000001232e+02,2.091113750000001232e+02,2.064551250000001232e+02,2.037051250000001232e+02,2.007207500000001232e+02,1.984707500000001232e+02,1.943613750000000948e+02,1.892207500000000664e+02,1.862520000000000380e+02,1.856582500000000380e+02,1.845020000000000380e+02,1.836582500000000380e+02,1.838613750000000380e+02,1.839395000000000380e+02,1.848457500000000380e+02,1.863926250000000380e+02,1.869238750000000380e+02,1.866582500000000380e+02,1.867988750000000380e+02,1.859238750000000380e+02,1.859238750000000380e+02,1.871895000000000380e+02,1.886582500000000664e+02,1.888926250000000664e+02,1.893145000000000664e+02,1.891426250000000664e+02,1.885332500000000380e+02,1.891426250000000380e+02,1.874238750000000380e+02,1.839395000000000380e+02,1.812051250000000380e+02,1.799082500000000380e+02,1.779238750000000380e+02,1.769395000000000380e+02,1.757363750000000380e+02,1.747832500000000380e+02,1.746426250000000380e+02,1.749707500000000380e+02,1.745488750000000380e+02,1.742988750000000380e+02,1.759082500000000380e+02,1.778457500000000380e+02,1.797676250000000380e+02,1.807832500000000380e+02,1.831113750000000380e+02,1.854395000000000380e+02,1.881270000000000664e+02,1.900176250000000664e+02,1.899551250000000664e+02,1.901895000000000664e+02,1.914082500000000948e+02,1.935020000000001232e+02,1.948457500000001232e+02,1.971738750000001232e+02,1.995957500000001232e+02,2.017988750000001232e+02,2.042363750000001232e+02,2.051582500000001232e+02,2.061895000000001232e+02,2.070332500000001232e+02,2.083145000000001232e+02,2.095488750000001232e+02,2.105176250000001232e+02,2.126426250000001232e+02,2.167363750000001232e+02,2.218145000000001232e+02,2.261270000000001232e+02,2.292363750000001232e+02,2.321426250000001232e+02,2.344863750000001232e+02,2.360488750000001232e+02,2.365645000000001232e+02,2.355957500000001232e+02,2.349863750000001232e+02,2.345801250000001232e+02,2.355957500000001232e+02,2.358145000000001232e+02,2.355645000000001232e+02,2.360645000000001232e+02,2.363145000000001232e+02,2.359551250000001232e+02,2.339395000000001232e+02,2.319863750000001232e+02,2.286738750000001232e+02,2.263613750000001232e+02,2.234551250000001232e+02,2.191113750000001232e+02,2.158457500000001232e+02,2.140176250000001232e+02,2.136895000000001232e+02,2.123301250000001232e+02,2.119238750000001232e+02,2.110645000000001232e+02,2.114238750000001232e+02,2.130957500000001232e+02,2.146113750000001232e+02,2.157207500000001232e+02,2.152988750000001232e+02,2.161113750000001232e+02,2.167520000000001232e+02,2.168145000000001232e+02,2.157676250000001232e+02,2.142520000000001232e+02,2.116738750000001232e+02,2.074082500000001232e+02,2.044707500000001232e+02,2.014551250000001232e+02,1.961582500000001232e+02,1.909082500000000948e+02,1.870645000000000664e+02,1.823613750000000380e+02,1.774863750000000380e+02,1.733926250000000380e+02,1.683145000000000380e+02,1.604863750000000380e+02,1.550645000000000380e+02,1.497363750000000380e+02,1.434395000000000380e+02,1.382988750000000380e+02,1.337363750000000380e+02,1.280488750000000380e+02,1.226113750000000380e+02,1.190332500000000380e+02,1.159707500000000380e+02,1.122676250000000380e+02,1.089082500000000380e+02,1.046270000000000380e+02,9.831450000000003797e+01,9.417387500000003797e+01,8.881450000000000955e+01,8.418950000000000955e+01,7.729887499999999534e+01,7.018949999999999534e+01,6.087699999999999534e+01,5.122074999999999534e+01,4.406449999999998113e+01,3.556449999999997402e+01,2.806449999999997047e+01,1.997074999999996692e+01,1.303324999999996159e+01,7.376999999999958035e+00,3.095749999999954483e+00,1.064499999999953594e+00,-1.951125000000048404e+00,-3.904250000000049958e+00,-4.201125000000049958e+00,-4.232375000000049958e+00,-4.451125000000050846e+00,-4.388625000000049958e+00,-2.544875000000049070e+00,-2.216750000000049070e+00,-5.605000000000476268e-01,4.551249999999529283e-01,-4.980000000000476268e-01,-2.951125000000049070e+00,-5.576125000000050846e+00,-9.466750000000054399e+00,-1.485737500000005795e+01,-2.027925000000006150e+01,-2.809175000000006506e+01,-3.629487500000007572e+01,-4.360737500000007572e+01,-4.926362500000008993e+01,-5.457612500000008993e+01,-5.987300000000008993e+01,-6.515425000000008993e+01,-7.037300000000008993e+01,-7.493550000000008993e+01,-7.949800000000008993e+01,-8.656050000000010414e+01,-9.574800000000011835e+01,-1.049042500000001326e+02,-1.151386250000001326e+02,-1.264511250000001326e+02,-1.379355000000001326e+02,-1.489980000000001326e+02,-1.597167500000001326e+02,-1.684511250000001326e+02,-1.743573750000001326e+02,-1.798105000000001326e+02,-1.829823750000001326e+02,-1.843105000000001326e+02,-1.851698750000001326e+02,-1.834355000000001326e+02,-1.794667500000001326e+02,-1.728417500000001326e+02,-1.651542500000001326e+02,-1.568417500000001326e+02,-1.468573750000001326e+02,-1.367792500000001326e+02,-1.246542500000001326e+02,-1.138417500000001326e+02,-1.061230000000001326e+02,-1.007323750000001326e+02,-9.907612500000013256e+01,-1.004980000000001326e+02,-1.057323750000001326e+02,-1.136542500000001326e+02,-1.269667500000001326e+02,-1.427011250000001326e+02,-1.586698750000001610e+02,-1.757011250000001610e+02,-1.900761250000002178e+02,-2.011542500000002178e+02,-2.102636250000002178e+02,-2.148105000000002178e+02,-2.143886250000002178e+02,-2.123417500000002178e+02,-2.071386250000002178e+02,-2.008417500000002178e+02,-1.960761250000002178e+02,-1.914511250000001610e+02,-1.888261250000001326e+02,-1.937792500000001610e+02,-2.040605000000002178e+02,-2.166542500000002178e+02,-2.344980000000002178e+02,-2.553730000000002178e+02,-2.798261250000002178e+02,-3.087948750000002178e+02,-3.391855000000002178e+02,-3.650448750000002747e+02,-3.879198750000003884e+02,-4.104042500000003884e+02,-4.311542500000003884e+02,-4.501386250000003884e+02,-4.653886250000003884e+02,-4.786698750000003884e+02,-4.886386250000003884e+02,-4.977323750000003884e+02,-5.058417500000003884e+02,-5.117636250000003884e+02,-5.157167500000003884e+02,-5.181855000000003884e+02,-5.199667500000003884e+02,-5.199511250000003884e+02,-5.199198750000003884e+02,-5.199042500000003884e+02,-5.198886250000003884e+02,-5.198886250000003884e+02,-5.198886250000003884e+02,-5.198886250000003884e+02,-5.198886250000003884e+02,-5.198573750000003884e+02,-5.198417500000003884e+02,-5.198261250000003884e+02,-5.197948750000003884e+02,-5.197636250000003884e+02,-5.197011250000003884e+02,-5.196542500000003884e+02,-5.196073750000003884e+02,-5.195761250000003884e+02,-5.195761250000003884e+02,-5.195761250000003884e+02,-5.196230000000003884e+02,-5.196698750000003884e+02,-5.197636250000003884e+02,-5.198261250000003884e+02,-5.198886250000003884e+02,-5.199511250000003884e+02,-5.199667500000003884e+02,-5.199667500000003884e+02,-5.199198750000003884e+02,-5.198730000000003884e+02,-5.198261250000003884e+02,-5.197948750000003884e+02,-5.197792500000003884e+02,-5.197636250000003884e+02,-5.197636250000003884e+02,-5.197948750000003884e+02,-5.198105000000003884e+02,-5.198105000000003884e+02,-5.197792500000003884e+02,-5.197323750000003884e+02,-5.196698750000003884e+02,-5.196073750000003884e+02,-5.195448750000003884e+02,-5.194667500000003884e+02,-5.194511250000003884e+02,-5.194667500000003884e+02,-5.195136250000003884e+02,-5.195917500000003884e+02,-5.196542500000003884e+02,-5.197167500000003884e+02,-5.197792500000003884e+02,-5.198417500000003884e+02,-5.198573750000003884e+02,-5.198730000000003884e+02,-5.198573750000003884e+02,-5.195605000000003884e+02,-5.178886250000003884e+02,-5.150761250000003884e+02,-5.100761250000003884e+02,-5.031698750000003884e+02,-4.935136250000003884e+02,-4.810448750000003884e+02,-4.640448750000003884e+02,-4.435605000000003884e+02,-4.222948750000003884e+02,-3.982792500000003884e+02,-3.727323750000003315e+02,-3.455292500000002747e+02,-3.190136250000002178e+02,-2.917948750000002178e+02,-2.683730000000002178e+02,-2.465917500000002178e+02,-2.248886250000002178e+02,-2.044042500000002178e+02,-1.850448750000002178e+02,-1.664511250000001610e+02,-1.464042500000001326e+02,-1.271855000000001326e+02,-1.059355000000001183e+02,-8.327925000000010414e+01,-5.913862500000007572e+01,-3.649800000000006861e+01,-1.452925000000005973e+01,6.595749999999957147e+00,2.662699999999996692e+01,4.551762499999998113e+01,6.379887499999999534e+01,7.865824999999999534e+01,9.131450000000000955e+01,1.049707500000000380e+02,1.167676250000000380e+02,1.266426250000000380e+02,1.348457500000000380e+02,1.426738750000000380e+02,1.500957500000000380e+02,1.609551250000000380e+02,1.728301250000000380e+02,1.857676250000000664e+02,2.037363750000001232e+02,2.270332500000001232e+02,2.536426250000001232e+02,2.831270000000001232e+02,3.145020000000001232e+02,3.447520000000001801e+02,3.752988750000002938e+02,4.040020000000002938e+02,4.277051250000002938e+02,4.461113750000002938e+02,4.603926250000002938e+02,4.705645000000002938e+02,4.770020000000002938e+02,4.808926250000002938e+02,4.819551250000002938e+02,4.815801250000002938e+02,4.810801250000002938e+02,4.804863750000002938e+02,4.799551250000002938e+02,4.795488750000002938e+02,4.792520000000002938e+02,4.792051250000002938e+02,4.794082500000002938e+02,4.796738750000002938e+02,4.799707500000002938e+02,4.803145000000002938e+02,4.806582500000002938e+02,4.809551250000002938e+02,4.812363750000002938e+02,4.814238750000002938e+02,4.814707500000002938e+02,4.814863750000002938e+02,4.814707500000002938e+02,4.814082500000002938e+02,4.812676250000002938e+02,4.810645000000002938e+02,4.806738750000002938e+02,4.801426250000002938e+02,4.789082500000002938e+02,4.768145000000002938e+02,4.743613750000002938e+02,4.705332500000002938e+02,4.664395000000002938e+02,4.619238750000002938e+02,4.572832500000002938e+02,4.523926250000002938e+02,4.474707500000002938e+02,4.431895000000002938e+02,4.393613750000002938e+02,4.371426250000002938e+02,4.354082500000002938e+02,4.342520000000002938e+02,4.326270000000002938e+02,4.314082500000002938e+02,4.319863750000002938e+02,4.332988750000002938e+02,4.342520000000002938e+02,4.359238750000002938e+02,4.365801250000002938e+02,4.360020000000002938e+02,4.357988750000002938e+02,4.336895000000002938e+02,4.293770000000002938e+02,4.228301250000002938e+02,4.155020000000002938e+02,4.051270000000002938e+02,3.949707500000002938e+02,3.856738750000002938e+02,3.767832500000001801e+02,3.691113750000001232e+02,3.620957500000001232e+02,3.561582500000001232e+02,3.495645000000001232e+02,3.444551250000001232e+02,3.378770000000001232e+02,3.304238750000001232e+02,3.207207500000001232e+02,3.110020000000001232e+02,3.010332500000001232e+02,2.912520000000001232e+02,2.834863750000001232e+02,2.755020000000001232e+02,2.701426250000001232e+02,2.654082500000001232e+02,2.628301250000001232e+02,2.610645000000001232e+02,2.598301250000001232e+02,2.595176250000001232e+02,2.587832500000001232e+02,2.588770000000001232e+02,2.585176250000001232e+02,2.585801250000001232e+02,2.593301250000001232e+02,2.609863750000001232e+02,2.631895000000001232e+02,2.638770000000001232e+02,2.644395000000001232e+02,2.655488750000001232e+02,2.657832500000001232e+02,2.662988750000001232e+02,2.648770000000001232e+02,2.599551250000001232e+02,2.533770000000001232e+02,2.476270000000001232e+02,2.407207500000001232e+02,2.304863750000001232e+02,2.198145000000001232e+02,2.072676250000001232e+02,1.943457500000001232e+02,1.835176250000000664e+02,1.718613750000000380e+02,1.595488750000000380e+02,1.483301250000000380e+02,1.400020000000000380e+02,1.322051250000000380e+02,1.247988750000000380e+02,1.199395000000000380e+02,1.143145000000000380e+02,1.115332500000000380e+02,1.096270000000000380e+02,1.074863750000000380e+02,1.058926250000000380e+02,1.050488750000000380e+02,1.059551250000000380e+02,1.052520000000000380e+02,1.068457500000000380e+02,1.072676250000000380e+02,1.070176250000000380e+02,1.082988750000000380e+02,1.090176250000000380e+02,1.105020000000000380e+02,1.111270000000000380e+02,1.127207500000000380e+02,1.127832500000000380e+02,1.130332500000000380e+02,1.137832500000000380e+02,1.113457500000000380e+02,1.067363750000000380e+02,9.986137500000003797e+01,9.340825000000002376e+01,8.603325000000000955e+01,7.750199999999999534e+01,6.865824999999999534e+01,5.911137499999999534e+01,5.251762499999999534e+01,4.847074999999998823e+01,4.622074999999998113e+01,4.400199999999998113e+01,4.209574999999997402e+01,4.264262499999997402e+01,4.475199999999998113e+01,4.742387499999998823e+01,4.890824999999999534e+01,5.064262499999999534e+01,5.159574999999999534e+01,5.236137499999999534e+01,5.315824999999999534e+01,5.200199999999999534e+01,4.850199999999999534e+01,4.576762499999998823e+01,4.312699999999998113e+01,3.928324999999998113e+01,3.464262499999997402e+01,2.967387499999997402e+01,2.461137499999996692e+01,2.033012499999996336e+01,1.684574999999996336e+01,1.143949999999995981e+01,6.298874999999956259e+00,2.363749999999531504e-01,-4.419875000000049070e+00,-8.763625000000052623e+00,-1.232612500000005618e+01,-1.540425000000005795e+01,-1.760737500000005795e+01,-1.726362500000005795e+01,-1.690425000000005795e+01,-1.374800000000005618e+01,-1.079487500000005440e+01,-7.591750000000052623e+00,-4.216750000000049958e+00,-1.341750000000048182e+00,2.376999999999954483e+00,4.720749999999956259e+00,6.673874999999957147e+00,6.673874999999957147e+00,6.814499999999957147e+00,7.220749999999958035e+00,6.970749999999958035e+00,5.345749999999956259e+00,1.048874999999953594e+00,-4.294875000000050846e+00,-9.310500000000054399e+00,-1.485737500000005618e+01,-2.081050000000006150e+01,-2.835737500000006506e+01
-6.265625000000003553e+00,-1.237500000000000711e+01,-1.721875000000001066e+01,-1.162500000000000711e+01,-6.093750000000003553e+00,2.187500000000000000e-01,5.578125000000003553e+00,3.984375000000002665e+00,3.671875000000002665e+00,-9.062500000000004441e-01,-4.546875000000003553e+00,-5.390625000000003553e+00,-5.000000000000003553e+00,-1.671875000000001110e+00,-9.531250000000004441e-01,2.968750000000002220e-01,-6.250000000000005551e-01,-8.906250000000009992e-01,1.453125000000000888e+00,2.515625000000001776e+00,4.828125000000003553e+00,5.109375000000003553e+00,3.671875000000002665e+00,3.015625000000002220e+00,-2.031250000000004441e-01,-3.328125000000002665e+00,-3.484375000000002665e+00,-5.406250000000003553e+00,-2.828125000000001776e+00,4.843750000000001110e-01,-1.875000000000004996e-01,1.562500000000000666e+00,-1.015625000000000666e+00,-1.953125000000000888e+00,-2.812500000000000000e-01,2.031250000000003331e-01,4.359375000000002665e+00,4.812500000000002665e+00,4.625000000000002665e+00,5.156250000000002665e+00,2.218750000000001332e+00,2.390625000000001776e+00,1.328125000000000888e+00,-2.593750000000001332e+00,-4.937500000000003553e+00,-7.656250000000005329e+00,-7.781250000000005329e+00,-3.187500000000002665e+00,2.562500000000002220e+00,5.921875000000005329e+00,6.328125000000005329e+00,3.921875000000002665e+00,2.968750000000003331e-01,-1.906250000000001332e+00,-5.625000000000005551e-01,-1.109375000000000888e+00,-1.937500000000001554e+00,-7.187500000000005551e-01,-3.531250000000002665e+00,-1.671875000000001332e+00,4.843750000000002220e-01,6.718750000000002220e-01,3.296875000000002220e+00,2.937500000000001776e+00,2.765625000000001776e+00,1.609375000000000888e+00,1.343750000000000444e+00,1.656250000000001110e+00,1.859375000000001554e+00,3.484375000000002665e+00,1.343750000000001110e+00,-1.875000000000001332e+00,-4.421875000000002665e+00,-7.468750000000004441e+00,-6.296875000000003553e+00,-3.734375000000002220e+00,-2.421875000000001776e+00,2.031250000000002220e-01,1.375000000000000888e+00,3.281250000000002220e+00,5.437500000000003553e+00,5.281250000000003553e+00,2.218750000000001332e+00,-3.109375000000002220e+00,-8.000000000000005329e+00,-1.081250000000000711e+01,-7.734375000000005329e+00,-2.890625000000001776e+00,3.015625000000002220e+00,8.484375000000005329e+00,8.281250000000005329e+00,7.640625000000005329e+00,5.000000000000003553e+00,1.250000000000000888e+00,-4.687500000000005551e-02,-1.140625000000000888e+00,-1.015625000000000444e+00,-1.265625000000000888e+00,-1.062500000000000666e+00,-2.296875000000001332e+00,-4.562500000000002665e+00,-3.171875000000001776e+00,-1.250000000000000888e+00,1.828125000000000888e+00,5.390625000000003553e+00,3.796875000000002665e+00,-6.093749999999998890e-01,-3.687500000000001776e+00,-5.140625000000002665e+00,-1.921875000000000888e+00,2.656250000000001776e+00,4.218750000000002665e+00,3.765625000000002220e+00,-9.218750000000004441e-01,-3.031250000000001776e+00,-2.875000000000001776e+00,-3.640625000000002220e+00,1.562500000000000000e-01,-1.562500000000022204e-02,-3.125000000000004441e-01,3.812500000000001776e+00,3.593750000000001776e+00,4.625000000000003553e+00,4.406250000000003553e+00,-1.765625000000001332e+00,-4.703125000000003553e+00,-5.187500000000003553e+00,-3.625000000000003109e+00,2.453125000000000888e+00,6.046875000000003553e+00,6.937500000000004441e+00,4.234375000000002665e+00,5.781250000000006661e-01,-1.125000000000000444e+00,-3.250000000000001776e+00,-1.984375000000001332e+00,-2.531250000000001332e+00,-4.203125000000002665e+00,-4.203125000000002665e+00,-3.812500000000002665e+00,-1.609375000000001110e+00,7.968750000000006661e-01,3.734375000000002665e+00,1.906250000000001332e+00,5.625000000000005551e-01,-1.140625000000000444e+00,-5.625000000000003553e+00,-3.750000000000002220e+00,-4.656250000000003553e+00,-3.265625000000002220e+00,9.687500000000007772e-01,9.062500000000008882e-01,3.343750000000002665e+00,2.890625000000002665e+00,2.593750000000001776e+00,4.031250000000003553e+00,5.140625000000003553e+00,8.515625000000005329e+00,8.546875000000005329e+00,6.390625000000003553e+00,4.265625000000002665e+00,-1.468750000000000666e+00,-4.843750000000002665e+00,-4.453125000000002665e+00,-5.828125000000003553e+00,-3.796875000000002665e+00,-1.015625000000000666e+00,-1.593750000000001332e+00,-1.000000000000000888e+00,-6.562500000000005551e-01,-2.343750000000001776e+00,-2.812500000000001776e+00,-2.187500000000001332e+00,-2.343750000000001332e+00,-7.500000000000003331e-01,1.296875000000000888e+00,2.562500000000001776e+00,3.218750000000001776e+00,2.187500000000001332e+00,-9.375000000000011102e-02,-2.625000000000001776e+00,-3.187500000000001776e+00,-2.875000000000001776e+00,2.187500000000002220e-01,3.218750000000002665e+00,2.265625000000001776e+00,3.000000000000001776e+00,2.187500000000000000e-01,-3.656250000000002665e+00,-1.984375000000001332e+00,-3.125000000000001332e+00,-3.937500000000001776e+00,-1.203125000000000888e+00,-2.906250000000001776e+00,-4.109375000000002665e+00,-3.437500000000004441e-01,-1.562500000000000000e-01,1.546875000000000666e+00,5.593750000000003553e+00,2.734375000000001332e+00,1.265625000000000666e+00,4.843750000000000000e-01,-2.015625000000001776e+00,7.812500000000000000e-02,1.687500000000001110e+00,3.187500000000002220e+00,3.265625000000002220e+00,8.750000000000006661e-01,1.421875000000000666e+00,9.375000000000002220e-01,3.546875000000001776e+00,9.609375000000005329e+00,9.953125000000005329e+00,9.296875000000005329e+00,5.562500000000002665e+00,-4.421875000000002665e+00,-8.968750000000005329e+00,-1.035937500000000711e+01,-9.187500000000005329e+00,-7.812500000000000000e-01,2.859375000000001776e+00,5.218750000000004441e+00,4.796875000000003553e+00,-1.187500000000000222e+00,-2.218750000000000888e+00,-6.250000000000003553e+00,-6.359375000000003553e+00,-2.968750000000001776e+00,-4.421875000000002665e+00,-3.750000000000002220e-01,4.687499999999977796e-02,-2.656250000000001776e+00,6.249999999999988898e-02,-1.750000000000000888e+00,-1.546875000000000666e+00,3.078125000000001776e+00,2.218750000000001332e+00,3.500000000000002665e+00,2.921875000000002220e+00,-1.000000000000000666e+00,-4.375000000000003331e-01,-1.546875000000001110e+00,1.187500000000000666e+00,2.625000000000001776e+00,-4.687500000000007216e-01,8.437500000000002220e-01,-3.578125000000001776e+00,-4.593750000000002665e+00,-1.562500000000000347e-02,-2.968750000000001776e+00,-3.125000000000004441e-01,1.984375000000000888e+00,-2.468750000000001332e+00,9.531250000000006661e-01,-4.687500000000008882e-01,-4.640625000000003553e+00,-1.562500000000000666e+00,-2.765625000000001332e+00,1.843750000000002220e+00,9.921875000000007105e+00,1.303125000000000888e+01,1.443750000000001066e+01,9.328125000000007105e+00,6.093750000000000000e-01,-8.375000000000007105e+00,-1.153125000000000888e+01,-1.073437500000000711e+01,-7.968750000000005329e+00,-1.078125000000001110e+00,-9.375000000000000000e-02,3.125000000000000000e-02,2.156250000000001776e+00,1.593750000000001110e+00,3.781250000000002665e+00,5.500000000000003553e+00,2.578125000000001776e+00,-2.000000000000001332e+00,-5.437500000000004441e+00,-7.812500000000005329e+00,-5.328125000000003553e+00,6.250000000000000000e-02,1.765625000000001332e+00,3.859375000000002665e+00,1.093750000000000666e+00,-3.203125000000001776e+00,-1.687500000000000888e+00,-3.328125000000002220e+00,3.593750000000004441e-01,6.687500000000004441e+00,5.625000000000003553e+00,8.375000000000005329e+00,5.546875000000004441e+00,-1.531250000000000888e+00,-1.734375000000001332e+00,-5.609375000000003553e+00,-4.859375000000002665e+00,-2.140625000000001332e+00,-5.203125000000003553e+00,-3.250000000000001776e+00,-3.421875000000001776e+00,-1.546875000000000444e+00,5.296875000000003553e+00,5.828125000000004441e+00,5.703125000000004441e+00,7.968750000000013323e-01,-7.046875000000003553e+00,-9.343750000000005329e+00,-8.937500000000005329e+00,-2.484375000000001776e+00,5.187500000000003553e+00,1.117187500000000711e+01,1.309375000000000888e+01,9.093750000000005329e+00,4.062500000000002665e+00,-4.359375000000001776e+00,-8.796875000000005329e+00,-8.421875000000005329e+00,-7.750000000000005329e+00,-2.015625000000001332e+00,2.781250000000001776e+00,4.875000000000003553e+00,8.109375000000005329e+00,8.828125000000005329e+00,5.640625000000003553e+00,2.718750000000001776e+00,-2.296875000000001776e+00,-8.265625000000005329e+00,-7.265625000000004441e+00,-6.359375000000004441e+00,-3.468750000000002220e+00,1.703125000000000888e+00,-4.375000000000004441e-01,-1.031250000000000666e+00,-3.531250000000002220e+00,-5.937500000000003553e+00,-2.968750000000001776e+00,-1.328125000000001110e+00,4.859375000000002665e+00,8.625000000000005329e+00,1.196875000000000711e+01,1.660937500000001066e+01,1.403125000000000888e+01,1.317187500000000711e+01,1.000000000000000533e+01,4.875000000000002665e+00,6.578125000000003553e+00,6.546875000000003553e+00,5.328125000000003553e+00,3.984375000000003109e+00,-3.484375000000003109e+00,-7.343750000000005329e+00,-8.453125000000005329e+00,-8.125000000000005329e+00,-9.218750000000002220e-01,1.796875000000000666e+00,5.640625000000002665e+00,9.937500000000007105e+00,4.125000000000002665e+00,-1.046875000000000222e+00,-8.484375000000003553e+00,-1.784375000000001066e+01,-1.375000000000000711e+01,-2.890625000000000888e+00,4.750000000000003553e+00,1.357812500000001066e+01,1.057812500000000711e+01,-2.109375000000002665e+00,-9.656250000000007105e+00,-1.720312500000001066e+01,-2.006250000000001421e+01,-1.790625000000001066e+01,-1.248437500000000711e+01,-6.921875000000004441e+00,2.453125000000000444e+00,1.284375000000000711e+01,1.248437500000000711e+01,1.278125000000000711e+01,6.203125000000004441e+00,-1.859375000000001332e+00,-4.531250000000003331e-01,-2.937500000000001332e+00,-1.796875000000000444e+00,-4.625000000000001776e+00,-1.418750000000000711e+01,-1.662500000000001066e+01,-2.006250000000001421e+01,-1.337500000000000711e+01,1.796875000000001998e+00,7.953125000000006217e+00,1.582812500000001066e+01,1.209375000000000711e+01,-4.531250000000002220e-01,-4.359375000000002665e+00,-1.132812500000000711e+01,-9.109375000000005329e+00,-3.062500000000001776e+00,-5.156250000000004441e-01,6.328125000000004441e+00,5.500000000000004441e+00,4.140625000000002665e+00,-9.531250000000004441e-01,-1.025000000000000711e+01,-1.262500000000000888e+01,-1.439062500000000711e+01,-9.343750000000003553e+00,-5.937499999999997780e-01,4.734375000000002665e+00,1.164062500000000711e+01,1.292187500000000711e+01,8.984375000000003553e+00,5.937500000000003553e+00,-1.390625000000001332e+00,-4.218750000000002665e+00,-2.656250000000001776e+00,-5.843750000000003553e+00,-5.062500000000002665e+00,-8.343750000000005329e+00,-1.026562500000000711e+01,-2.375000000000002220e+00,3.765625000000001332e+00,1.323437500000000711e+01,1.715625000000001066e+01,1.318750000000000888e+01,9.203125000000005329e+00,1.578125000000001554e+00,-1.953125000000001332e+00,-3.250000000000002220e+00,-4.406250000000003553e+00,-1.031250000000000888e+00,4.843750000000004441e-01,9.687500000000009992e-01,-7.031249999999997780e-01,-6.078125000000003553e+00,-9.484375000000005329e+00,-1.095312500000000711e+01,-5.968750000000004441e+00,2.031249999999996114e-01,6.203125000000003553e+00,1.351562500000000711e+01,1.346875000000000711e+01,1.429687500000000888e+01,1.157812500000000711e+01,2.312500000000001332e+00,-2.953125000000001332e+00,-8.937500000000007105e+00,-1.095312500000000711e+01,-5.984375000000003553e+00,-1.484375000000001332e+00,2.546875000000001332e+00,4.343750000000002665e+00,4.406250000000002665e+00,3.000000000000001776e+00,2.187500000000001776e+00,4.390625000000002665e+00,5.750000000000002665e+00,1.089062500000000533e+01,1.573437500000000888e+01,1.435937500000000711e+01,9.843750000000005329e+00,-1.953125000000002665e+00,-1.479687500000001066e+01,-2.045312500000001421e+01,-1.993750000000001421e+01,-1.090625000000000711e+01,1.031250000000000888e+00,7.953125000000004441e+00,9.625000000000005329e+00,4.296875000000001776e+00,-2.125000000000001776e+00,-3.781250000000002665e+00,-2.703125000000001776e+00,3.609375000000002220e+00,7.656250000000005329e+00,5.515625000000004441e+00,4.234375000000003553e+00,1.093750000000000000e-01,-1.968750000000001332e+00,-2.187500000000001665e-01,-3.593750000000002220e-01,1.562500000000002220e-01,-1.312500000000000888e+00,-2.906250000000001776e+00,-5.750000000000003553e+00,-9.343750000000005329e+00,-7.484375000000004441e+00,-5.062500000000003553e+00,1.656250000000000888e+00,1.023437500000000711e+01,1.082812500000000711e+01,8.593750000000005329e+00,8.281250000000000000e-01,-7.921875000000005329e+00,-1.010937500000000711e+01,-9.937500000000007105e+00,-3.218750000000002220e+00,2.171875000000000888e+00,5.000000000000003553e+00,9.859375000000007105e+00,7.593750000000005329e+00,6.296875000000003553e+00,5.390625000000003553e+00,-2.625000000000001776e+00,-4.765625000000003553e+00,-5.281250000000003553e+00,-8.171875000000005329e+00,-2.812500000000001776e+00,7.812500000000022204e-02,1.562500000000002220e-01,4.734375000000003553e+00,3.218750000000002665e+00,3.281249999999999445e-01,3.281249999999999445e-01,-5.843750000000003553e+00,-8.468750000000005329e+00,-7.140625000000003553e+00,-7.781250000000005329e+00,1.015625000000000444e+00,9.000000000000005329e+00,1.081250000000000711e+01,1.248437500000000711e+01,4.171875000000001776e+00,-6.687500000000003553e+00,-9.406250000000007105e+00,-1.143750000000000711e+01,-7.406250000000004441e+00,2.140625000000000888e+00,3.093750000000001776e+00,5.578125000000002665e+00,6.140625000000003553e+00,1.406250000000000888e+00,4.812500000000003553e+00,3.343750000000002665e+00,4.375000000000004441e-01,-1.359375000000000222e+00,-1.045312500000000711e+01,-1.264062500000000711e+01,-1.135937500000000711e+01,-6.562500000000004441e+00,4.812500000000003553e+00,1.095312500000000711e+01,1.529687500000001066e+01,1.407812500000000711e+01,6.515625000000003553e+00,0.000000000000000000e+00,-7.281250000000005329e+00,-9.421875000000007105e+00,-6.453125000000004441e+00,-2.656250000000001776e+00,2.500000000000001776e+00,4.687500000000003553e+00,3.437500000000002220e+00,3.625000000000002220e+00,2.359375000000001332e+00,2.250000000000001332e+00,5.140625000000002665e+00,3.765625000000001776e+00,2.515625000000001332e+00,-3.281250000000004441e-01,-4.921875000000003553e+00,-5.968750000000003553e+00,-4.640625000000003553e+00,-2.312500000000001776e+00,-1.390625000000000888e+00,-7.343750000000003331e-01,-2.625000000000001332e+00,-2.546875000000001332e+00,1.562500000000004718e-01,8.281250000000008882e-01,2.281250000000001776e+00,1.265625000000001110e+00,-1.171875000000000888e+00,-3.750000000000003331e-01,1.625000000000000888e+00,3.421875000000001776e+00,7.062500000000003553e+00,7.140625000000003553e+00,4.968750000000002665e+00,3.656250000000002220e+00,-2.015625000000001332e+00,-3.468750000000002665e+00,-4.468750000000003553e+00,-4.625000000000003553e+00,3.265625000000001332e+00,2.953125000000001332e+00,4.984375000000003553e+00,6.937500000000004441e+00,-1.734375000000001110e+00,1.312500000000000888e+00,6.406250000000000000e-01,-3.125000000000002665e+00,5.156250000000001110e-01,-6.671875000000004441e+00,-8.234375000000005329e+00,-4.734375000000002665e+00,-2.218750000000001332e+00,8.468750000000005329e+00,9.921875000000007105e+00,5.468750000000003553e+00,-9.375000000000008882e-01,-1.037500000000000711e+01,-9.296875000000007105e+00,1.874999999999995559e-01,1.012500000000000533e+01,1.564062500000000888e+01,1.456250000000000888e+01,2.000000000000000888e+00,-6.781250000000003553e+00,-8.687500000000005329e+00,-9.187500000000007105e+00,6.875000000000008882e-01,1.718750000000001332e+00,-4.687500000000000000e-01,-2.625000000000001332e+00,-1.121875000000000711e+01,-9.000000000000007105e+00,-6.421875000000005329e+00,-2.468750000000001776e+00,4.078125000000002665e+00,2.671875000000001776e+00,8.281250000000008882e-01,-3.234375000000002220e+00,-5.890625000000003553e+00,-3.656250000000002665e+00,-1.625000000000001332e+00,3.609375000000002665e+00,7.312500000000005329e+00,7.390625000000005329e+00,1.132812500000000711e+01,1.078125000000000711e+01,7.671875000000005329e+00,5.468750000000003553e+00,-3.531250000000001776e+00,-8.265625000000005329e+00,-8.265625000000005329e+00,-6.671875000000003553e+00,-2.968750000000000000e-01,2.500000000000001776e+00,1.656250000000001110e+00,0.000000000000000000e+00,-2.000000000000001332e+00,-6.875000000000005551e-01,4.812500000000002665e+00,1.093750000000000711e+01,1.390625000000000888e+01,1.489062500000000888e+01,7.203125000000003553e+00,-5.062500000000003553e+00,-1.168750000000000711e+01,-2.015625000000001421e+01,-1.710937500000001066e+01,-6.578125000000003553e+00,-3.812500000000000888e+00,4.109375000000002665e+00,8.750000000000008882e-01,-7.390625000000003553e+00,-7.875000000000005329e+00,-1.484375000000000888e+01,-1.196875000000000711e+01,-9.468750000000007105e+00,-1.065625000000000711e+01,-3.515625000000002220e+00,-1.531250000000000444e+00,5.843750000000003553e+00,1.278125000000000711e+01,1.375000000000000888e+01,1.504687500000001066e+01,1.270312500000000888e+01,1.475000000000001066e+01,1.635937500000001066e+01,2.040625000000001421e+01,2.221875000000001421e+01,1.326562500000000711e+01,6.859375000000005329e+00,-6.734375000000004441e+00,-2.192187500000001421e+01,-2.503125000000002132e+01,-3.142187500000002132e+01,-2.987500000000001421e+01,-1.717187500000000711e+01,-1.046875000000000711e+01,1.265625000000001776e+00,1.340625000000001066e+01,1.364062500000000888e+01,1.389062500000000888e+01,1.370312500000000711e+01,9.968750000000005329e+00,1.618750000000001066e+01,2.878125000000001776e+01,3.531250000000002132e+01,3.531250000000002132e+01,2.176562500000001421e+01,-4.515625000000002665e+00,-2.531250000000001776e+01,-3.251562500000002132e+01,-2.739062500000001776e+01,-1.028125000000000711e+01,2.593750000000001332e+00,5.140625000000003553e+00,2.390625000000001776e+00,-8.265625000000005329e+00,-1.435937500000001066e+01,-1.526562500000001066e+01,-1.440625000000000888e+01,-8.359375000000005329e+00,-4.281250000000002665e+00,-1.750000000000001332e+00,9.375000000000006939e-02,7.812500000000005551e-02,4.687500000000002776e-02,3.125000000000002082e-02,1.562500000000001041e-02,-4.687500000000004163e-02,-4.687500000000004163e-02,-4.687500000000004163e-02,-4.687500000000004163e-02,4.687500000000004163e-02,3.125000000000002776e-02,1.562500000000001735e-02,-1.562500000000000694e-02,-1.093750000000000833e-01,-1.093750000000000833e-01,-9.375000000000008327e-02,-1.562500000000001388e-02,7.812500000000006939e-02,2.031250000000001665e-01,2.656250000000002220e-01,2.500000000000002220e-01,2.343750000000001943e-01,1.562500000000004163e-02,-1.093750000000000555e-01,-2.343750000000001665e-01,-3.593750000000002776e-01,-2.187500000000001665e-01,-1.562500000000001388e-01,-1.562500000000002776e-02,1.250000000000001110e-01,7.812500000000006939e-02,1.093750000000000833e-01,9.375000000000006939e-02,7.812500000000005551e-02,1.406250000000001110e-01,1.093750000000000833e-01,0.000000000000000000e+00,-1.250000000000001110e-01,-2.812500000000002220e-01,-3.906250000000003331e-01,-2.656250000000002220e-01,-7.812500000000004163e-02,1.718750000000001388e-01,4.687500000000003331e-01,4.531250000000003331e-01,3.437500000000002220e-01,1.406250000000001110e-01,-1.562500000000001110e-01,-2.187500000000001665e-01,-2.187500000000001665e-01,-1.562500000000001110e-01,-3.125000000000002082e-02,-1.562500000000001041e-02,0.000000000000000000e+00,-1.562500000000001041e-02,-3.125000000000001665e-01,-1.921875000000001554e+00,-4.734375000000003553e+00,-9.671875000000007105e+00,-1.545312500000001066e+01,-1.854687500000001066e+01,-1.976562500000001421e+01,-1.689062500000001421e+01,-1.200000000000000888e+01,-7.828125000000005329e+00,-4.468750000000002665e+00,-1.828125000000000888e+00,1.031250000000001554e+00,2.140625000000001776e+00,4.984375000000003553e+00,7.500000000000006217e+00,9.031250000000007105e+00,1.270312500000001066e+01,1.359375000000001066e+01,7.859375000000006217e+00,-2.968750000000000000e-01,-1.190625000000000888e+01,-2.200000000000001421e+01,-1.900000000000001421e+01,-1.146875000000000711e+01,2.328125000000002665e+00,1.693750000000001421e+01,1.784375000000001066e+01,1.653125000000001066e+01,8.750000000000005329e+00,-3.203125000000003553e+00,-3.609375000000003553e+00,-3.781250000000002665e+00,1.250000000000000000e+00,1.203125000000000888e+01,1.473437500000001066e+01,1.510937500000001066e+01,9.906250000000007105e+00,8.906250000000006661e-01,-6.218750000000004441e+00,-1.276562500000000888e+01,-1.551562500000001066e+01,-1.920312500000001421e+01,-2.260937500000001421e+01,-2.134375000000001421e+01,-2.170312500000001066e+01,-1.675000000000000711e+01,-5.687500000000001776e+00,3.812500000000002665e+00,1.807812500000001066e+01,2.918750000000001421e+01,3.154687500000002132e+01,3.007812500000002132e+01,2.210937500000001421e+01,1.268750000000000711e+01,6.500000000000003553e+00,2.609375000000001776e+00,1.234375000000000666e+00,9.843750000000006661e-01,6.718750000000004441e-01,-1.093750000000001110e-01,-1.015625000000000444e+00,-1.609375000000000888e+00,-1.937500000000001332e+00,-1.515625000000000888e+00,-6.562500000000004441e-01,7.812500000000002776e-02,6.562500000000004441e-01,7.500000000000005551e-01,5.312500000000004441e-01,2.968750000000002220e-01,7.812500000000005551e-02,1.562500000000001041e-02,3.125000000000002082e-02,7.812500000000005551e-02,2.187500000000001110e-01,3.437500000000002220e-01,4.218750000000003331e-01,5.000000000000003331e-01,5.156250000000003331e-01,5.468750000000003331e-01,1.281250000000000888e+00,2.750000000000001776e+00,4.265625000000003553e+00,6.906250000000004441e+00,7.125000000000004441e+00,4.640625000000003553e+00,1.718750000000001110e+00,-5.828125000000004441e+00,-9.031250000000007105e+00,-8.187500000000007105e+00,-6.859375000000005329e+00,1.859375000000001332e+00,4.031250000000002665e+00,1.937500000000001332e+00,8.125000000000006661e-01,-7.406250000000005329e+00,-7.671875000000005329e+00,-3.671875000000001776e+00,-3.125000000000001776e+00,2.703125000000002220e+00,3.296875000000002665e+00,1.750000000000001332e+00,5.515625000000004441e+00,8.750000000000005329e+00,1.287500000000000711e+01,1.604687500000001066e+01,1.393750000000000888e+01,6.125000000000004441e+00,-1.843750000000000444e+00,-9.859375000000005329e+00,-1.496875000000001066e+01,-1.354687500000001066e+01,-1.071875000000000711e+01,-3.968750000000002665e+00,4.500000000000002665e+00,9.609375000000007105e+00,1.462500000000000888e+01,1.401562500000000888e+01,7.593750000000005329e+00,3.125000000000001776e+00,-5.906250000000004441e+00,-1.062500000000000711e+01,-1.129687500000000711e+01,-1.381250000000001066e+01,-8.765625000000007105e+00,-6.093750000000003553e+00,-1.578125000000001332e+00,3.437500000000002220e+00,2.859375000000002220e+00,2.859375000000002220e+00,-2.156250000000001776e+00,-5.312500000000003553e+00,-5.953125000000004441e+00,-4.578125000000003553e+00,1.296875000000000888e+00,2.890625000000001776e+00,3.062500000000001776e+00,6.250000000000000000e-02,-5.000000000000002665e+00,-2.921875000000001332e+00,1.906250000000001332e+00,7.328125000000005329e+00,1.337500000000000888e+01,1.310937500000000888e+01,8.125000000000005329e+00,6.375000000000005329e+00,2.843750000000002220e+00,5.781250000000003331e-01,3.000000000000001776e+00,1.609375000000000888e+00,3.156250000000002220e+00,3.234375000000002665e+00,2.656250000000003331e-01,-2.234375000000001332e+00,-9.515625000000007105e+00,-1.050000000000000711e+01,-1.182812500000000711e+01,-1.010937500000000711e+01,-1.750000000000000444e+00,-6.249999999999963918e-02,4.406250000000002665e+00,2.875000000000001332e+00,-2.921875000000001776e+00,-6.640625000000004441e+00,-1.117187500000000711e+01,-7.140625000000003553e+00,-2.625000000000001332e+00,3.968750000000003553e+00,9.234375000000007105e+00,6.671875000000005329e+00,2.890625000000002220e+00,-2.515625000000001332e+00,-8.312500000000005329e+00,-9.250000000000007105e+00,-4.531250000000003553e+00,-5.312500000000004441e-01,8.093750000000005329e+00,1.328125000000000888e+01,1.196875000000000888e+01,1.339062500000001066e+01,7.828125000000005329e+00,5.718750000000003553e+00,4.531250000000002665e+00,-3.062500000000001776e+00,-5.718750000000002665e+00,-1.079687500000000711e+01,-1.282812500000000711e+01,-7.468750000000004441e+00,-5.156250000000003553e+00,-3.312500000000001776e+00,-1.968750000000001332e+00,-5.203125000000003553e+00,-4.937500000000003553e+00,-1.109375000000000666e+00,-4.687500000000002220e-01,4.046875000000002665e+00,6.718750000000003553e+00,4.015625000000002665e+00,5.468750000000003553e+00,3.750000000000002665e+00,1.437500000000001110e+00,4.609375000000002665e+00,3.812500000000002220e+00,2.531250000000001776e+00,1.171875000000000444e+00,-3.734375000000002665e+00,-4.609375000000002665e+00,-2.578125000000001776e+00,1.562500000000004441e-01,5.000000000000003553e+00,5.203125000000003553e+00,3.765625000000002220e+00,1.984375000000000888e+00,-4.296875000000002665e+00,-5.484375000000003553e+00,-9.406250000000007105e+00,-1.220312500000000711e+01,-8.109375000000005329e+00,-8.281250000000005329e+00,-2.250000000000001332e+00,2.421875000000001776e+00,2.343750000000001776e+00,4.781250000000002665e+00,3.156250000000001776e+00,1.000000000000000444e+00,7.812500000000003331e-01,5.156250000000004441e-01,3.281250000000003886e-01,4.312500000000002665e+00,5.906250000000003553e+00,4.781250000000003553e+00,5.531250000000003553e+00,5.781250000000004441e-01,1.421875000000001332e+00,6.500000000000004441e+00,7.484375000000005329e+00,1.062500000000000711e+01,3.796875000000003109e+00
-1.775000000000000711e+01,-2.081250000000001066e+01,-4.625000000000002665e+00,1.812500000000000888e+00,2.500000000000000555e-01,4.125000000000001776e+00,8.125000000000000000e-01,-5.312500000000002665e+00,7.125000000000002665e+00,1.093750000000000355e+01,-7.437500000000002665e+00,-1.425000000000000711e+01,-1.812500000000000888e+00,4.875000000000002665e+00,4.375000000000001776e+00,6.000000000000002665e+00,-4.000000000000001776e+00,-1.387500000000000711e+01,6.250000000000000000e-01,1.543750000000000711e+01,3.312500000000001776e+00,-1.093750000000000533e+01,4.375000000000000000e-01,1.068750000000000533e+01,-8.125000000000008882e-01,-4.562500000000002665e+00,1.437500000000000666e+00,-5.500000000000002665e+00,-6.750000000000003553e+00,4.250000000000001776e+00,7.250000000000003553e+00,1.937500000000000888e+00,-4.750000000000001776e+00,-4.750000000000001776e+00,3.125000000000001110e-01,2.125000000000000888e+00,9.375000000000004441e-01,1.875000000000000833e-01,5.000000000000001776e+00,4.375000000000001776e+00,-4.687500000000001776e+00,-3.125000000000001332e+00,3.187500000000001332e+00,4.000000000000001776e+00,3.312500000000001776e+00,-5.375000000000003553e+00,-1.331250000000000711e+01,-4.750000000000002665e+00,5.562500000000002665e+00,7.750000000000003553e+00,1.006250000000000355e+01,2.250000000000000000e+00,-1.343750000000000533e+01,-7.437500000000002665e+00,9.750000000000003553e+00,5.687500000000002665e+00,-3.000000000000000888e+00,-2.500000000000000888e+00,-5.062500000000002665e+00,-1.062500000000000444e+00,4.937500000000001776e+00,1.062500000000000444e+00,-1.250000000000000444e+00,-2.500000000000001665e-01,5.625000000000002220e-01,4.062500000000001776e+00,3.750000000000001776e+00,-6.187500000000003553e+00,-7.250000000000003553e+00,6.750000000000003553e+00,1.087500000000000533e+01,7.500000000000004441e-01,-8.125000000000003553e+00,-8.875000000000003553e+00,-2.125000000000000888e+00,2.687500000000001332e+00,3.312500000000001776e+00,2.875000000000001332e+00,-4.062500000000001776e+00,-7.812500000000002665e+00,3.312500000000002665e+00,1.293750000000000711e+01,5.500000000000003553e+00,-5.937500000000001776e+00,-7.187500000000002665e+00,-4.375000000000001776e+00,-4.562500000000001776e+00,-3.250000000000001332e+00,4.062500000000001776e+00,6.812500000000002665e+00,3.437500000000001776e+00,4.125000000000001776e+00,-6.250000000000008882e-01,-6.062500000000002665e+00,3.312500000000001776e+00,6.062500000000002665e+00,-7.312500000000003553e+00,-6.187500000000002665e+00,8.250000000000003553e+00,3.937500000000002220e+00,-5.812500000000002665e+00,-1.875000000000000888e+00,-4.562500000000001776e+00,-6.625000000000001776e+00,9.187500000000003553e+00,1.550000000000000533e+01,6.250000000000000000e-01,-1.137500000000000533e+01,-1.200000000000000533e+01,-3.937500000000001776e+00,9.625000000000003553e+00,1.387500000000000711e+01,1.250000000000000888e+00,-9.562500000000003553e+00,-4.750000000000001776e+00,-1.000000000000000444e+00,6.250000000000000000e-02,6.125000000000002665e+00,1.500000000000000000e+00,-5.625000000000003553e+00,-3.187500000000001332e+00,-6.249999999999977796e-02,8.187500000000003553e+00,9.250000000000003553e+00,-4.437500000000001776e+00,-5.875000000000002665e+00,-1.625000000000000444e+00,-8.500000000000003553e+00,-3.500000000000002220e+00,1.350000000000000533e+01,1.256250000000000355e+01,-3.250000000000000888e+00,-8.500000000000003553e+00,-3.937500000000001776e+00,2.000000000000000444e+00,6.687500000000002665e+00,-1.437500000000000000e+00,-8.125000000000003553e+00,2.187500000000000888e+00,3.437500000000000888e+00,-9.750000000000003553e+00,-4.625000000000001776e+00,1.281250000000000533e+01,8.437500000000003553e+00,-6.500000000000002665e+00,-8.437500000000003553e+00,8.750000000000008882e-01,5.812500000000002665e+00,-3.750000000000001776e+00,-6.312500000000002665e+00,4.375000000000004441e-01,6.875000000000006661e-01,5.125000000000001776e+00,7.250000000000002665e+00,-5.125000000000002665e+00,-1.006250000000000533e+01,5.125000000000001776e+00,1.187500000000000533e+01,-3.125000000000000000e-01,-6.875000000000000000e-01,6.437500000000003553e+00,-1.437500000000000444e+00,-5.062500000000001776e+00,-2.000000000000000888e+00,-5.187500000000002665e+00,1.625000000000000000e+00,6.312500000000001776e+00,-5.875000000000003553e+00,-3.625000000000001776e+00,8.000000000000003553e+00,-1.625000000000001776e+00,-7.625000000000004441e+00,4.187500000000001776e+00,1.750000000000000888e+00,-8.187500000000003553e+00,1.375000000000000888e+00,9.000000000000003553e+00,-2.875000000000002220e+00,-5.000000000000002665e+00,9.062500000000003553e+00,4.812500000000001776e+00,-1.337500000000000533e+01,-8.312500000000003553e+00,8.875000000000003553e+00,4.875000000000002665e+00,-1.375000000000000666e+00,4.625000000000001776e+00,-2.437500000000001776e+00,-6.437500000000003553e+00,4.937500000000001776e+00,-1.187500000000001776e+00,-7.625000000000003553e+00,5.375000000000003553e+00,4.062500000000002665e+00,-5.750000000000002665e+00,-3.562500000000001776e+00,-2.875000000000001332e+00,3.812500000000002220e+00,9.250000000000005329e+00,-3.875000000000001776e+00,-2.750000000000001776e+00,9.000000000000003553e+00,-4.875000000000003553e+00,-1.350000000000000711e+01,6.937500000000003553e+00,1.362500000000000711e+01,-4.812500000000002665e+00,-5.312500000000002665e+00,6.625000000000002665e+00,-2.750000000000001776e+00,-7.437500000000003553e+00,5.375000000000002665e+00,8.000000000000003553e+00,6.375000000000003553e+00,5.125000000000003553e+00,-3.000000000000001776e+00,-5.562500000000003553e+00,-7.812500000000004441e+00,-1.081250000000000533e+01,6.875000000000008882e-01,1.225000000000000711e+01,8.312500000000003553e+00,-3.750000000000001776e+00,-6.250000000000001776e+00,1.750000000000001110e+00,1.062500000000000444e+00,-3.500000000000001776e+00,-5.437500000000002665e+00,-2.625000000000001332e+00,7.062500000000003553e+00,2.812500000000001776e+00,-5.500000000000002665e+00,-9.375000000000004441e-01,-1.187500000000000444e+00,1.062500000000000888e+00,4.312500000000001776e+00,-7.000000000000003553e+00,-2.187500000000000888e+00,1.637500000000000711e+01,5.437500000000000888e+00,-1.793750000000001066e+01,-1.068750000000000711e+01,1.212500000000000711e+01,1.056250000000000533e+01,-1.125000000000000444e+00,-3.875000000000001776e+00,-8.125000000000003553e+00,-6.250000000000000000e-02,6.812500000000003553e+00,-4.687500000000001776e+00,-4.375000000000000000e-01,5.687500000000002665e+00,-5.562500000000002665e+00,-2.375000000000000888e+00,4.500000000000001776e+00,2.125000000000000888e+00,4.375000000000001110e-01,-8.500000000000003553e+00,-7.937500000000003553e+00,6.500000000000002665e+00,1.043750000000000355e+01,7.812500000000003553e+00,7.000000000000003553e+00,1.312500000000000444e+00,-7.187500000000002665e+00,-1.187500000000000533e+01,-9.750000000000005329e+00,4.312500000000001776e+00,1.018750000000000533e+01,-5.187500000000001776e+00,-3.437500000000001776e+00,9.187500000000003553e+00,-5.500000000000003553e+00,-1.137500000000000533e+01,1.175000000000000711e+01,1.543750000000000711e+01,-4.062500000000002665e+00,-9.937500000000005329e+00,-6.812500000000003553e+00,-6.250000000000003553e+00,2.125000000000000444e+00,1.250000000000000533e+01,5.625000000000002665e+00,-9.500000000000003553e+00,-3.687500000000001776e+00,5.000000000000002665e+00,-5.250000000000002665e+00,-2.375000000000001776e+00,5.687500000000002665e+00,-1.750000000000000888e+00,4.562500000000001776e+00,1.218750000000000533e+01,-9.375000000000000000e-01,-1.125000000000000533e+01,-7.625000000000004441e+00,3.437500000000001776e+00,6.062500000000002665e+00,-1.875000000000002220e-01,-1.750000000000000666e+00,-6.500000000000001776e+00,-6.500000000000001776e+00,3.812500000000001332e+00,6.875000000000003553e+00,7.375000000000003553e+00,6.250000000000001776e+00,-5.000000000000003553e+00,-1.518750000000000711e+01,-1.018750000000000355e+01,5.437500000000002665e+00,9.250000000000005329e+00,1.250000000000004441e-01,1.000000000000000888e+00,1.143750000000000533e+01,7.000000000000003553e+00,-8.375000000000003553e+00,-8.437500000000003553e+00,-4.687500000000001776e+00,-5.250000000000002665e+00,5.687500000000002665e+00,7.437500000000003553e+00,-6.250000000000003553e+00,-2.500000000000001776e+00,9.937500000000005329e+00,5.937500000000003553e+00,-8.125000000000002220e-01,-8.125000000000004441e-01,-1.750000000000001110e+00,-7.250000000000002665e+00,-1.075000000000000355e+01,3.437500000000001776e+00,1.375000000000000533e+01,-2.000000000000001776e+00,-8.125000000000003553e+00,3.312500000000001332e+00,1.562500000000000888e+00,-9.500000000000003553e+00,-5.875000000000003553e+00,8.562500000000003553e+00,9.125000000000003553e+00,-3.750000000000002220e-01,-4.687500000000001776e+00,4.250000000000002665e+00,2.043750000000000711e+01,8.375000000000003553e+00,-1.781250000000000711e+01,-9.937500000000003553e+00,1.093750000000000533e+01,1.287500000000000533e+01,5.562500000000001776e+00,-3.312500000000001776e+00,-1.087500000000000533e+01,-1.131250000000000533e+01,1.250000000000000000e-01,9.625000000000003553e+00,2.187500000000000888e+00,-4.062500000000000888e+00,-4.062500000000000888e+00,3.375000000000001776e+00,2.068750000000001066e+01,6.250000000000003553e+00,-2.750000000000001066e+01,-2.212500000000000711e+01,-4.250000000000001776e+00,7.625000000000003553e+00,3.193750000000001066e+01,1.887500000000000355e+01,-2.450000000000001066e+01,-2.000000000000000711e+01,5.187500000000002665e+00,6.875000000000000000e-01,-5.687500000000002665e+00,-4.500000000000002665e+00,-1.112500000000000533e+01,-5.250000000000001776e+00,1.075000000000000533e+01,1.531250000000000711e+01,1.362500000000000711e+01,-2.625000000000000000e+00,-1.743750000000000711e+01,-5.937500000000002665e+00,7.250000000000002665e+00,8.312500000000003553e+00,2.937500000000001776e+00,-4.250000000000001776e+00,-1.087500000000000533e+01,-1.368750000000000711e+01,-4.187500000000001776e+00,-3.812500000000001332e+00,-3.500000000000000444e+00,2.581250000000000711e+01,2.618750000000000711e+01,-1.418750000000000711e+01,-2.431250000000001066e+01,-5.875000000000003553e+00,6.687500000000003553e+00,7.375000000000003553e+00,4.375000000000002220e-01,-8.625000000000003553e+00,-7.250000000000003553e+00,1.568750000000000711e+01,2.187500000000000711e+01,-9.312500000000005329e+00,-3.043750000000001421e+01,-1.318750000000000533e+01,1.525000000000000888e+01,1.350000000000000711e+01,-9.125000000000003553e+00,-1.087500000000000533e+01,7.500000000000002665e+00,2.218750000000001066e+01,1.312500000000000711e+01,-1.775000000000000711e+01,-2.456250000000001066e+01,3.812500000000000000e+00,2.237500000000000711e+01,7.812500000000003553e+00,-1.900000000000000711e+01,-1.593750000000000711e+01,3.500000000000000888e+00,-8.750000000000008882e-01,1.687500000000001776e+00,2.300000000000001066e+01,1.637500000000000711e+01,-1.575000000000000711e+01,-1.768750000000000711e+01,1.306250000000000711e+01,1.500000000000000711e+01,-1.206250000000000711e+01,-1.475000000000000888e+01,2.062500000000001332e+00,1.037500000000000533e+01,1.000000000000000355e+01,5.625000000000000000e-01,-1.525000000000000533e+01,-1.662500000000000711e+01,2.000000000000000888e+00,1.206250000000000711e+01,3.500000000000001776e+00,-4.937500000000001776e+00,1.125000000000000444e+00,1.412500000000000533e+01,6.562500000000001776e+00,-4.437500000000002665e+00,4.875000000000002665e+00,-2.125000000000000000e+00,-2.056250000000001066e+01,-7.187500000000005329e+00,1.381250000000000533e+01,9.375000000000003553e+00,-1.750000000000000444e+00,-5.375000000000002665e+00,-4.437500000000001776e+00,6.312500000000003553e+00,1.093750000000000533e+01,-5.687500000000001776e+00,-1.193750000000000533e+01,5.750000000000001776e+00,1.918750000000000711e+01,1.425000000000000533e+01,-8.750000000000000000e-01,-1.212500000000000533e+01,-1.737500000000000711e+01,-1.493750000000000533e+01,2.125000000000000888e+00,1.056250000000000355e+01,-1.750000000000000444e+00,1.875000000000001776e+00,2.100000000000001066e+01,5.125000000000003553e+00,-3.281250000000001421e+01,-2.056250000000000711e+01,2.731250000000001421e+01,2.493750000000001066e+01,-9.750000000000003553e+00,-9.562500000000003553e+00,-1.875000000000002220e-01,-3.625000000000001776e+00,4.875000000000002665e+00,9.625000000000003553e+00,-6.250000000000002665e+00,-1.131250000000000355e+01,5.375000000000002665e+00,1.012500000000000355e+01,-2.687500000000000888e+00,-1.275000000000000533e+01,-1.300000000000000533e+01,2.875000000000001776e+00,1.550000000000000711e+01,5.875000000000002665e+00,1.125000000000000000e+00,6.750000000000002665e+00,-1.875000000000000000e+00,-1.768750000000000711e+01,-1.387500000000000711e+01,7.187500000000001776e+00,1.506250000000000711e+01,4.062500000000001776e+00,-1.037500000000000355e+01,-8.250000000000003553e+00,1.718750000000000711e+01,1.756250000000000711e+01,-1.343750000000000711e+01,-1.381250000000000711e+01,2.250000000000001332e+00,3.750000000000000000e-01,2.750000000000000888e+00,3.125000000000000000e-01,-9.062500000000003553e+00,1.500000000000001776e+00,1.293750000000000711e+01,4.750000000000002665e+00,-1.000000000000000355e+01,-1.068750000000000355e+01,8.750000000000003553e+00,9.250000000000005329e+00,-1.637500000000000711e+01,-1.675000000000000711e+01,6.187500000000002665e+00,2.093750000000001066e+01,1.737500000000000711e+01,-5.500000000000001776e+00,-1.387500000000000533e+01,-2.625000000000001332e+00,-7.187500000000003553e+00,-6.812500000000003553e+00,9.562500000000003553e+00,6.437500000000002665e+00,-2.750000000000001332e+00,1.500000000000000444e+00,4.812500000000001776e+00,-2.375000000000000888e+00,-1.150000000000000533e+01,6.125000000000003553e+00,2.418750000000001421e+01,-3.437500000000001776e+00,-3.087500000000001421e+01,-1.325000000000000711e+01,1.412500000000000355e+01,9.687500000000003553e+00,-7.062500000000003553e+00,2.937500000000000888e+00,1.656250000000000711e+01,5.812500000000002665e+00,-5.687500000000002665e+00,-5.187500000000002665e+00,-6.187500000000002665e+00,-9.500000000000003553e+00,-3.125000000000000000e-01,1.381250000000000533e+01,6.875000000000002665e+00,-9.125000000000003553e+00,-5.812500000000003553e+00,6.812500000000001776e+00,8.187500000000003553e+00,-4.500000000000002665e+00,-1.056250000000000533e+01,9.250000000000005329e+00,1.850000000000000711e+01,-7.562500000000005329e+00,-2.250000000000001066e+01,-4.000000000000001776e+00,1.175000000000000533e+01,9.187500000000005329e+00,6.875000000000004441e-01,-1.031250000000000355e+01,-1.100000000000000355e+01,4.125000000000002665e+00,1.243750000000000711e+01,2.125000000000000888e+00,-8.437500000000003553e+00,-5.625000000000008882e-01,5.750000000000002665e+00,-7.562500000000002665e+00,-6.062500000000002665e+00,1.631250000000000711e+01,9.562500000000005329e+00,-1.325000000000000533e+01,-2.750000000000000000e+00,1.418750000000000711e+01,6.875000000000000000e-01,-1.506250000000000711e+01,-3.812500000000001776e+00,3.750000000000001332e+00,-1.312500000000000666e+00,1.400000000000000711e+01,9.625000000000003553e+00,-1.937500000000000711e+01,-4.250000000000000000e+00,1.350000000000000711e+01,-3.937500000000002220e+00,-4.437500000000001776e+00,9.312500000000003553e+00,2.812500000000000888e+00,-1.875000000000000711e+01,-1.718750000000000711e+01,1.243750000000000711e+01,2.318750000000001066e+01,1.050000000000000533e+01,-5.312500000000001776e+00,-1.706250000000000711e+01,-1.225000000000000711e+01,-3.875000000000001332e+00,1.562500000000000888e+00,2.193750000000000711e+01,2.812500000000001066e+01,-6.000000000000003553e+00,-2.706250000000001066e+01,-1.250000000000000355e+01,3.750000000000001332e+00,1.012500000000000355e+01,6.187500000000003553e+00,1.812500000000000888e+00,-3.875000000000002665e+00,-9.250000000000003553e+00,-2.687500000000000888e+00,-3.750000000000000888e+00,-5.000000000000001776e+00,8.250000000000003553e+00,9.437500000000003553e+00,-1.000000000000000666e+00,-3.000000000000001776e+00,-4.937500000000001776e+00,-1.125000000000000355e+01,-1.874999999999991118e-01,1.731250000000000711e+01,2.562500000000000000e+00,-1.381250000000000533e+01,5.125000000000001776e+00,1.381250000000000533e+01,-9.375000000000000000e-01,-8.125000000000000000e-01,8.250000000000003553e+00,1.437500000000000888e+00,-1.975000000000000711e+01,-2.043750000000000711e+01,1.400000000000000533e+01,2.950000000000001421e+01,-2.625000000000001776e+00,-2.700000000000001421e+01,-3.937500000000003553e+00,2.131250000000000711e+01,1.875000000000001776e+00,-2.081250000000000711e+01,4.625000000000001776e+00,3.112500000000001421e+01,7.875000000000003553e+00,-1.412500000000000711e+01,-7.187500000000002665e+00,-8.750000000000003553e+00,-1.006250000000000355e+01,-4.187500000000001776e+00,5.000000000000000000e-01,1.400000000000000711e+01,1.081250000000000533e+01,-8.062500000000003553e+00,-1.406250000000000711e+01,-9.812500000000003553e+00,2.937500000000000888e+00,6.250000000000002665e+00,-2.625000000000000888e+00,-7.250000000000002665e+00,-9.562500000000003553e+00,9.375000000000008882e-01,1.368750000000000711e+01,1.050000000000000533e+01,4.062500000000001776e+00,-1.500000000000000888e+00,-6.375000000000003553e+00,1.500000000000000000e+00,1.612500000000000711e+01,1.087500000000000355e+01,2.812500000000000444e+00,8.437500000000001776e+00,-4.937500000000001776e+00,-1.462500000000000533e+01,-2.187500000000000888e+00,-9.687500000000003553e+00,-1.593750000000000533e+01,-5.812500000000002665e+00,-6.312500000000003553e+00,5.750000000000002665e+00,1.506250000000000711e+01,-3.437500000000000888e+00,1.687500000000000000e+00,1.725000000000000711e+01,-2.312500000000000000e+00,-1.100000000000000355e+01,7.500000000000000000e-01,3.312500000000001776e+00,2.893750000000001421e+01,5.193750000000002842e+01,2.437500000000003553e+00,-5.962500000000002842e+01,-4.281250000000001421e+01,1.168750000000000533e+01,2.206250000000000711e+01,-1.312500000000001776e+00,-1.250000000000008882e-01,1.212500000000000533e+01,-4.187500000000000888e+00,-1.737500000000000711e+01,-7.375000000000003553e+00,-1.250000000000000555e-01,0.000000000000000000e+00,1.250000000000000555e-01,6.250000000000002776e-02,0.000000000000000000e+00,0.000000000000000000e+00,0.000000000000000000e+00,0.000000000000000000e+00,0.000000000000000000e+00,6.250000000000002776e-02,6.250000000000002776e-02,-1.875000000000001110e-01,-1.875000000000001110e-01,1.875000000000001110e-01,1.875000000000001110e-01,-6.250000000000002776e-02,-6.250000000000002776e-02,0.000000000000000000e+00,-6.250000000000002776e-02,-1.250000000000000555e-01,0.000000000000000000e+00,1.250000000000000555e-01,0.000000000000000000e+00,-6.250000000000002776e-02,2.500000000000001110e-01,3.125000000000001110e-01,-1.250000000000000833e-01,-1.875000000000001110e-01,0.000000000000000000e+00,-6.250000000000002776e-02,-1.875000000000000833e-01,-2.500000000000001110e-01,6.250000000000005551e-02,3.750000000000002220e-01,1.250000000000000833e-01,-1.875000000000000833e-01,-1.875000000000000833e-01,6.250000000000002776e-02,2.500000000000001110e-01,6.250000000000002776e-02,-6.250000000000002776e-02,6.250000000000002776e-02,-6.250000000000002776e-02,-2.500000000000001110e-01,-1.875000000000000833e-01,-1.875000000000001110e-01,-2.775557561562891351e-17,3.750000000000001665e-01,3.750000000000001665e-01,2.500000000000001110e-01,2.775557561562891351e-17,-3.750000000000001665e-01,-2.500000000000001110e-01,6.250000000000002776e-02,6.250000000000002776e-02,0.000000000000000000e+00,0.000000000000000000e+00,0.000000000000000000e+00,0.000000000000000000e+00,0.000000000000000000e+00,-6.250000000000002776e-02,-6.250000000000002776e-02,1.250000000000000555e-01,-1.000000000000000444e+00,-7.812500000000003553e+00,-1.456250000000000711e+01,-7.937500000000003553e+00,2.687500000000000444e+00,4.000000000000001776e+00,1.625000000000002220e+00,-4.812500000000000888e+00,-1.137500000000000711e+01,3.499999999999999112e+00,2.168750000000001066e+01,-5.000000000000000000e-01,-2.356250000000001066e+01,4.812500000000003553e+00,2.793750000000001421e+01,4.562500000000001776e+00,-9.625000000000003553e+00,2.187500000000000888e+00,-2.187500000000001776e+00,-2.343750000000001066e+01,-2.287500000000001066e+01,9.937500000000003553e+00,2.718750000000001421e+01,1.156250000000000533e+01,1.000000000000000222e+00,-5.000000000000002665e+00,-5.687500000000002665e+00,5.687500000000002665e+00,-3.000000000000000888e+00,-1.393750000000000711e+01,2.125000000000000888e+00,1.562500000000000711e+01,1.612500000000000711e+01,8.375000000000003553e+00,-1.143750000000000533e+01,-1.825000000000000711e+01,3.937500000000001776e+00,1.381250000000000711e+01,-1.018750000000000533e+01,-1.975000000000001066e+01,-4.312500000000003553e+00,-1.312500000000000444e+00,-2.750000000000000888e+00,-3.687500000000002665e+00,-1.168750000000000711e+01,1.000000000000001776e+00,2.368750000000001421e+01,2.037500000000000711e+01,5.937500000000001776e+00,8.750000000000003331e-01,3.750000000000001110e-01,1.250000000000000555e-01,1.250000000000000555e-01,1.875000000000001110e-01,5.625000000000003331e-01,6.250000000000003331e-01,0.000000000000000000e+00,-6.250000000000008327e-02,-3.125000000000002220e-01,-1.687500000000000888e+00,-1.562500000000000888e+00,3.750000000000001665e-01,1.125000000000000444e+00,5.000000000000002220e-01,6.250000000000002776e-02,-6.250000000000002776e-02,-1.250000000000000555e-01,6.250000000000002776e-02,1.875000000000000833e-01,-1.250000000000000833e-01,-1.875000000000001110e-01,1.875000000000001110e-01,1.250000000000000833e-01,-6.250000000000002776e-02,3.125000000000001110e-01,4.375000000000002220e-01,-6.250000000000002776e-02,-3.125000000000002220e-01,6.250000000000002776e-02,7.500000000000003331e-01,9.375000000000004441e-01,2.312500000000000888e+00,6.812500000000002665e+00,4.125000000000001776e+00,-5.437500000000001776e+00,-4.562500000000001776e+00,-4.375000000000001776e+00,-9.625000000000003553e+00,-1.375000000000000888e+00,1.093750000000000533e+01,1.393750000000000711e+01,6.875000000000000000e-01,-1.712500000000000711e+01,-9.187500000000003553e+00,2.500000000000000888e+00,1.750000000000000444e+00,8.750000000000003553e+00,3.750000000000001776e+00,-1.012500000000000533e+01,-1.937500000000001776e+00,5.937500000000002665e+00,6.250000000000006661e-01,6.500000000000003553e+00,1.443750000000000711e+01,5.125000000000001776e+00,-6.000000000000003553e+00,-8.937500000000003553e+00,-7.437500000000003553e+00,-2.437500000000001332e+00,0.000000000000000000e+00,-3.062500000000000888e+00,-5.687500000000001776e+00,3.312500000000002665e+00,1.562500000000000711e+01,7.937500000000002665e+00,-2.937500000000001776e+00,1.499999999999999778e+00,-7.500000000000004441e-01,-7.750000000000003553e+00,-5.812500000000002665e+00,-5.625000000000004441e-01,2.500000000000000000e-01,-7.687500000000003553e+00,-5.375000000000003553e+00,8.375000000000003553e+00,8.937500000000003553e+00,-1.750000000000000888e+00,-5.000000000000001776e+00,1.812500000000001332e+00,-9.375000000000000000e-01,-1.112500000000000533e+01,-5.250000000000002665e+00,1.100000000000000533e+01,1.387500000000000533e+01,-1.062500000000000000e+00,-1.006250000000000355e+01,-7.500000000000003553e+00,-8.812500000000003553e+00,3.750000000000000888e+00,2.537500000000001066e+01,1.156250000000000533e+01,-1.462500000000000533e+01,-8.375000000000003553e+00,5.062500000000002665e+00,9.062500000000003553e+00,7.312500000000003553e+00,-1.050000000000000711e+01,-1.512500000000000888e+01,1.187500000000000533e+01,2.300000000000001066e+01,-5.937500000000003553e+00,-2.293750000000001066e+01,-1.625000000000000000e+00,8.000000000000003553e+00,-3.812500000000001776e+00,-9.312500000000003553e+00,-5.125000000000001776e+00,1.068750000000000533e+01,1.537500000000000711e+01,-2.937500000000001776e+00,-1.412500000000000711e+01,-5.500000000000002665e+00,6.250000000000000000e-02,-5.500000000000002665e+00,1.562500000000000888e+00,1.137500000000000533e+01,5.937500000000002665e+00,1.937500000000000888e+00,-3.375000000000000888e+00,-1.156250000000000533e+01,-1.750000000000001776e+00,6.187500000000002665e+00,-8.125000000000003553e+00,-7.750000000000002665e+00,1.356250000000000711e+01,2.006250000000000711e+01,2.750000000000001776e+00,-1.456250000000000533e+01,-5.000000000000001776e+00,1.056250000000000533e+01,1.093750000000000533e+01,3.937500000000001776e+00,-1.543750000000000711e+01,-2.281250000000001066e+01,1.125000000000000000e+00,1.706250000000000711e+01,6.187500000000002665e+00,-9.000000000000003553e+00,-1.056250000000000533e+01,3.125000000000000000e-01,2.812500000000000888e+00,-5.625000000000005551e-01,5.437500000000002665e+00,-4.374999999999991118e-01,-7.000000000000001776e+00,1.100000000000000711e+01,1.087500000000000711e+01,-1.256250000000000711e+01,-1.000000000000000533e+01,8.437500000000003553e+00,1.231250000000000533e+01,3.812500000000000888e+00,-7.312500000000003553e+00,-1.137500000000000355e+01,-5.375000000000001776e+00,6.125000000000003553e+00,1.118750000000000533e+01,1.625000000000000000e+00,-5.875000000000003553e+00,-9.375000000000004441e-01,5.187500000000002665e+00,1.687500000000000888e+00,-9.812500000000003553e+00,-5.812500000000002665e+00,3.250000000000001776e+00,-6.687500000000002665e+00,-6.625000000000003553e+00,7.000000000000001776e+00,8.625000000000003553e+00,5.625000000000004441e-01,-6.937500000000003553e+00,-2.000000000000001332e+00,8.625000000000003553e+00,2.437500000000000888e+00,-8.125000000000003553e+00,-3.000000000000000888e+00,3.000000000000001776e+00,6.875000000000002665e+00,1.050000000000000355e+01,0.000000000000000000e+00,-1.250000000000000533e+01,-1.256250000000000533e+01,5.250000000000003553e+00,2.806250000000001421e+01,1.468750000000000533e+01
-3.675000000000000711e+01,1.950000000000000355e+01,-2.475000000000000711e+01,2.775000000000000711e+01,-2.225000000000000711e+01,9.250000000000001776e+00,1.125000000000000178e+01,-2.275000000000000711e+01,1.200000000000000355e+01,1.300000000000000355e+01,-1.575000000000000355e+01,3.500000000000000888e+00,-1.325000000000000355e+01,2.500000000000000711e+01,-2.600000000000000711e+01,2.300000000000000711e+01,-5.250000000000000888e+00,-1.400000000000000355e+01,5.500000000000000888e+00,4.500000000000000888e+00,1.275000000000000355e+01,-2.425000000000000711e+01,1.025000000000000178e+01,5.250000000000000888e+00,3.500000000000000888e+00,-1.950000000000000711e+01,2.250000000000000711e+01,-1.050000000000000178e+01,-1.275000000000000355e+01,2.150000000000000711e+01,-1.700000000000000355e+01,1.750000000000000355e+01,-1.225000000000000355e+01,-1.750000000000000000e+00,8.500000000000001776e+00,-1.100000000000000355e+01,1.350000000000000355e+01,-1.175000000000000355e+01,5.250000000000000888e+00,7.250000000000001776e+00,-7.000000000000001776e+00,-7.250000000000001776e+00,1.800000000000000355e+01,-2.025000000000000355e+01,2.175000000000000711e+01,-1.425000000000000355e+01,2.750000000000000888e+00,-1.375000000000000355e+01,2.050000000000000711e+01,-1.525000000000000355e+01,1.250000000000000355e+01,4.250000000000000888e+00,-1.125000000000000178e+01,-6.250000000000001776e+00,9.250000000000001776e+00,1.150000000000000355e+01,-2.625000000000000711e+01,2.800000000000000711e+01,-2.175000000000000711e+01,2.500000000000000888e+00,1.450000000000000355e+01,-1.825000000000000355e+01,1.750000000000000355e+01,-1.675000000000000355e+01,1.550000000000000355e+01,-1.425000000000000355e+01,1.575000000000000355e+01,-6.500000000000001776e+00,-1.200000000000000178e+01,1.350000000000000355e+01,-7.500000000000000000e-01,3.500000000000000888e+00,-8.000000000000001776e+00,3.500000000000000888e+00,-1.175000000000000178e+01,1.900000000000000355e+01,-2.000000000000000355e+01,2.025000000000000355e+01,-1.200000000000000178e+01,-1.000000000000000444e+00,-1.250000000000000000e+00,7.500000000000001776e+00,6.750000000000001776e+00,-1.425000000000000355e+01,9.750000000000001776e+00,-1.175000000000000355e+01,1.000000000000000355e+01,-1.175000000000000355e+01,6.000000000000001776e+00,5.250000000000000888e+00,-3.750000000000000888e+00,-1.500000000000000222e+00,1.525000000000000355e+01,-2.575000000000000711e+01,1.875000000000000355e+01,-4.250000000000000000e+00,5.500000000000001776e+00,-2.150000000000000711e+01,2.200000000000000711e+01,-1.500000000000000000e+00,-1.250000000000000355e+01,8.250000000000001776e+00,2.750000000000000444e+00,-1.650000000000000355e+01,1.075000000000000355e+01,1.025000000000000178e+01,-5.500000000000000888e+00,-4.000000000000000888e+00,-2.500000000000001110e-01,-8.750000000000001776e+00,1.000000000000000178e+01,1.750000000000000444e+00,6.750000000000001776e+00,-1.325000000000000355e+01,5.000000000000000000e-01,1.050000000000000355e+01,-1.775000000000000355e+01,1.525000000000000355e+01,3.250000000000000888e+00,-1.950000000000000711e+01,2.125000000000000711e+01,-1.875000000000000355e+01,9.500000000000001776e+00,8.750000000000001776e+00,-5.500000000000000888e+00,-1.275000000000000355e+01,2.175000000000000711e+01,-2.075000000000000711e+01,2.500000000000000000e+00,6.250000000000001776e+00,7.250000000000001776e+00,-1.750000000000000888e+00,-1.375000000000000355e+01,1.725000000000000355e+01,-2.075000000000000355e+01,2.050000000000000355e+01,-4.750000000000000888e+00,-1.150000000000000355e+01,7.500000000000001776e+00,5.000000000000000888e+00,-5.500000000000000888e+00,-1.275000000000000355e+01,1.750000000000000355e+01,5.000000000000000888e+00,-1.725000000000000355e+01,1.550000000000000355e+01,-2.200000000000000711e+01,2.525000000000000711e+01,-1.025000000000000178e+01,-1.475000000000000355e+01,2.650000000000000711e+01,-2.700000000000000711e+01,2.000000000000000355e+01,-6.500000000000000888e+00,8.000000000000001776e+00,-1.700000000000000355e+01,5.500000000000000888e+00,1.425000000000000355e+01,-9.500000000000001776e+00,-5.000000000000000888e+00,1.325000000000000355e+01,-2.000000000000000000e+00,-1.625000000000000355e+01,2.325000000000000711e+01,-2.100000000000000711e+01,3.500000000000000888e+00,1.450000000000000355e+01,-1.175000000000000178e+01,-7.750000000000001776e+00,1.650000000000000355e+01,-1.500000000000000000e+00,-1.825000000000000711e+01,1.725000000000000355e+01,-5.000000000000000000e-01,-1.025000000000000178e+01,2.500000000000000000e-01,1.250000000000000355e+01,-4.500000000000001776e+00,-1.175000000000000178e+01,1.225000000000000355e+01,7.000000000000000888e+00,-1.375000000000000355e+01,-5.000000000000000888e+00,8.750000000000001776e+00,9.750000000000001776e+00,-2.225000000000000711e+01,2.000000000000000711e+01,2.500000000000000000e-01,-2.325000000000000711e+01,2.400000000000000711e+01,-3.250000000000000888e+00,-1.850000000000000355e+01,1.600000000000000355e+01,5.500000000000001776e+00,-1.925000000000000355e+01,1.475000000000000355e+01,-4.500000000000000888e+00,-1.325000000000000355e+01,2.875000000000000711e+01,-1.700000000000000355e+01,-1.000000000000000355e+01,2.475000000000000711e+01,-1.075000000000000355e+01,-1.250000000000000178e+01,6.000000000000000888e+00,1.525000000000000355e+01,-8.500000000000001776e+00,-1.450000000000000355e+01,2.275000000000000711e+01,-6.500000000000000888e+00,-1.750000000000000355e+01,2.150000000000000711e+01,-7.500000000000001776e+00,-1.000000000000000222e+00,1.250000000000000178e+01,-1.000000000000000178e+01,-3.000000000000000888e+00,1.100000000000000178e+01,-2.075000000000000355e+01,7.750000000000000888e+00,9.250000000000003553e+00,-8.750000000000001776e+00,1.825000000000000355e+01,-3.200000000000000711e+01,2.925000000000000711e+01,-1.425000000000000355e+01,-1.750000000000000444e+00,1.175000000000000355e+01,-2.275000000000000711e+01,2.000000000000000355e+01,7.500000000000008882e-01,-1.550000000000000355e+01,1.150000000000000178e+01,2.000000000000000444e+00,-1.950000000000000355e+01,3.075000000000000711e+01,-2.125000000000000355e+01,-6.250000000000000888e+00,2.100000000000000355e+01,-1.000000000000000000e+00,-1.025000000000000178e+01,-9.000000000000001776e+00,8.750000000000001776e+00,1.825000000000000355e+01,-3.075000000000000711e+01,2.975000000000000711e+01,-2.075000000000000355e+01,-6.250000000000002665e+00,2.875000000000000711e+01,-2.450000000000000711e+01,-1.500000000000000000e+00,2.550000000000000711e+01,-2.550000000000000711e+01,2.250000000000000000e+00,2.125000000000000711e+01,-3.150000000000000711e+01,3.300000000000000711e+01,-2.175000000000000711e+01,-4.500000000000000000e+00,1.400000000000000355e+01,-6.750000000000001776e+00,8.750000000000001776e+00,-4.250000000000000888e+00,8.750000000000001776e+00,-9.750000000000001776e+00,0.000000000000000000e+00,-1.000000000000000222e+00,-1.325000000000000355e+01,2.975000000000000711e+01,-1.825000000000000355e+01,-1.075000000000000355e+01,2.600000000000000711e+01,-1.000000000000000355e+01,-1.800000000000000355e+01,1.675000000000000355e+01,9.500000000000001776e+00,-9.500000000000001776e+00,-6.250000000000001776e+00,1.100000000000000355e+01,-1.775000000000000355e+01,1.225000000000000178e+01,-5.250000000000000888e+00,1.600000000000000355e+01,-1.375000000000000178e+01,-9.750000000000003553e+00,2.475000000000000711e+01,-1.625000000000000355e+01,-1.075000000000000355e+01,3.025000000000000711e+01,-2.575000000000000711e+01,3.500000000000000000e+00,2.325000000000000711e+01,-2.300000000000000711e+01,1.300000000000000355e+01,-1.425000000000000355e+01,2.750000000000000888e+00,1.500000000000000355e+01,-1.875000000000000355e+01,1.250000000000000355e+01,-1.000000000000000000e+00,-1.800000000000000355e+01,2.075000000000000711e+01,-9.500000000000003553e+00,1.750000000000000444e+00,1.250000000000000178e+01,-1.375000000000000355e+01,7.500000000000001776e+00,-1.925000000000000355e+01,1.375000000000000355e+01,3.500000000000000888e+00,-5.250000000000000888e+00,1.250000000000000000e+00,-7.500000000000000000e-01,1.700000000000000355e+01,-1.750000000000000355e+01,-2.250000000000000444e+00,1.325000000000000355e+01,-2.025000000000000711e+01,9.250000000000003553e+00,1.275000000000000178e+01,-1.600000000000000355e+01,5.000000000000008882e-01,8.750000000000001776e+00,3.250000000000000888e+00,-1.175000000000000355e+01,1.575000000000000355e+01,-1.750000000000000355e+01,1.600000000000000355e+01,-1.725000000000000355e+01,-1.750000000000000000e+00,2.100000000000000355e+01,-6.750000000000000888e+00,-1.975000000000000355e+01,2.925000000000000711e+01,-2.500000000000000711e+01,2.350000000000000711e+01,-3.500000000000000711e+01,3.175000000000000711e+01,-9.500000000000001776e+00,-1.750000000000000444e+00,8.500000000000001776e+00,-1.875000000000000711e+01,2.175000000000000711e+01,1.025000000000000178e+01,-2.325000000000000355e+01,-3.250000000000000888e+00,1.850000000000000355e+01,-1.150000000000000178e+01,1.500000000000000355e+01,-1.025000000000000355e+01,7.500000000000000000e-01,-3.250000000000000444e+00,-9.000000000000001776e+00,1.750000000000000355e+01,-3.250000000000000000e+00,-1.425000000000000355e+01,2.425000000000000711e+01,-3.225000000000000711e+01,2.750000000000000711e+01,1.425000000000000355e+01,-3.450000000000000711e+01,-2.500000000000000000e-01,1.350000000000000355e+01,-1.725000000000000355e+01,6.500000000000000888e+00,5.425000000000001421e+01,-7.275000000000001421e+01,3.225000000000000711e+01,-1.400000000000000355e+01,1.925000000000000355e+01,-2.850000000000000711e+01,2.500000000000000711e+01,-1.475000000000000355e+01,-1.425000000000000355e+01,2.950000000000000711e+01,-1.950000000000000355e+01,1.575000000000000355e+01,1.150000000000000178e+01,-3.750000000000000711e+01,2.700000000000000711e+01,-1.450000000000000355e+01,1.075000000000000355e+01,2.500000000000000888e+00,-1.025000000000000355e+01,9.250000000000003553e+00,-1.325000000000000355e+01,-7.500000000000001776e+00,2.800000000000000711e+01,-4.000000000000001421e+01,2.000000000000000711e+01,4.150000000000000711e+01,-5.075000000000001421e+01,1.875000000000000355e+01,-1.325000000000000178e+01,4.750000000000000888e+00,1.275000000000000355e+01,-1.850000000000000355e+01,2.125000000000000355e+01,-2.800000000000000711e+01,1.125000000000000178e+01,2.750000000000000711e+01,-2.400000000000000355e+01,1.500000000000000444e+00,-2.050000000000000355e+01,1.975000000000000355e+01,9.250000000000001776e+00,-1.400000000000000355e+01,-4.000000000000000000e+00,6.750000000000000888e+00,2.500000000000000000e-01,1.850000000000000355e+01,-9.750000000000003553e+00,-2.725000000000000355e+01,2.225000000000000355e+01,-3.250000000000000888e+00,1.350000000000000355e+01,-6.750000000000001776e+00,-3.200000000000000711e+01,4.175000000000001421e+01,-2.525000000000000711e+01,-7.500000000000000000e-01,1.600000000000000355e+01,6.500000000000001776e+00,-1.750000000000000000e+00,-2.975000000000000711e+01,2.450000000000000355e+01,1.025000000000000355e+01,-1.500000000000000355e+01,-9.750000000000003553e+00,1.525000000000000355e+01,-1.175000000000000178e+01,1.775000000000000355e+01,-1.025000000000000178e+01,6.250000000000001776e+00,-2.050000000000000355e+01,6.750000000000001776e+00,1.475000000000000355e+01,-1.575000000000000355e+01,1.625000000000000355e+01,-2.225000000000000711e+01,2.000000000000000355e+01,8.750000000000003553e+00,-2.575000000000000711e+01,1.900000000000000711e+01,5.750000000000000000e+00,-2.325000000000000355e+01,-2.500000000000000000e-01,1.625000000000000355e+01,-5.000000000000000888e+00,2.000000000000000444e+00,-5.250000000000001776e+00,5.750000000000001776e+00,-1.600000000000000355e+01,3.075000000000000711e+01,-1.950000000000000355e+01,-4.500000000000001776e+00,5.250000000000001776e+00,5.500000000000001776e+00,7.000000000000000888e+00,-7.500000000000000000e-01,-9.250000000000001776e+00,4.500000000000000888e+00,-1.500000000000000355e+01,1.250000000000000000e+00,1.650000000000000355e+01,-9.500000000000001776e+00,-8.750000000000001776e+00,1.775000000000000355e+01,1.050000000000000178e+01,-2.000000000000000355e+01,-2.475000000000000711e+01,2.800000000000000711e+01,2.375000000000000711e+01,-3.475000000000000711e+01,9.000000000000001776e+00,1.050000000000000178e+01,-1.900000000000000355e+01,1.100000000000000178e+01,4.500000000000001776e+00,1.000000000000000000e+00,-1.750000000000000355e+01,1.000000000000000178e+01,1.125000000000000178e+01,-1.450000000000000355e+01,8.500000000000001776e+00,-1.275000000000000355e+01,-4.250000000000001776e+00,2.200000000000000711e+01,-8.500000000000001776e+00,-6.250000000000000888e+00,1.575000000000000355e+01,-9.000000000000001776e+00,2.000000000000000444e+00,-1.825000000000000355e+01,1.050000000000000355e+01,1.300000000000000355e+01,-1.525000000000000355e+01,1.950000000000000711e+01,-3.275000000000000711e+01,2.050000000000000355e+01,1.875000000000000355e+01,-1.775000000000000355e+01,-2.050000000000000355e+01,3.925000000000000711e+01,-3.700000000000000711e+01,2.125000000000000355e+01,2.000000000000000888e+00,-1.575000000000000355e+01,4.250000000000000888e+00,1.200000000000000355e+01,-6.500000000000001776e+00,4.500000000000000888e+00,-1.225000000000000355e+01,-4.000000000000000000e+00,3.525000000000000711e+01,-3.750000000000001421e+01,3.750000000000001776e+00,7.500000000000001776e+00,-4.750000000000001776e+00,2.125000000000000711e+01,-6.500000000000001776e+00,-2.050000000000000711e+01,1.875000000000000711e+01,-2.750000000000000888e+00,-2.350000000000000355e+01,2.725000000000000711e+01,-3.000000000000000888e+00,-1.650000000000000355e+01,2.425000000000000711e+01,-2.425000000000000711e+01,2.650000000000000711e+01,-2.175000000000000711e+01,-8.750000000000001776e+00,3.775000000000000711e+01,-1.350000000000000178e+01,-1.900000000000000355e+01,1.000000000000000000e+00,2.750000000000000000e+00,1.950000000000000711e+01,-2.300000000000000711e+01,1.750000000000000000e+00,2.200000000000000711e+01,-1.425000000000000355e+01,7.250000000000001776e+00,-1.000000000000000355e+01,8.750000000000001776e+00,-1.050000000000000178e+01,-2.500000000000000888e+00,1.000000000000000178e+01,7.000000000000001776e+00,-1.225000000000000355e+01,-3.000000000000000888e+00,1.100000000000000355e+01,-7.250000000000001776e+00,1.450000000000000355e+01,-2.275000000000000711e+01,4.000000000000000000e+00,2.750000000000000711e+01,-2.050000000000000355e+01,-2.250000000000000444e+00,-1.225000000000000355e+01,2.700000000000000711e+01,-2.100000000000000711e+01,2.025000000000000711e+01,-1.400000000000000355e+01,-5.750000000000001776e+00,5.750000000000001776e+00,3.250000000000000888e+00,6.000000000000001776e+00,-1.100000000000000355e+01,-2.250000000000000888e+00,1.400000000000000355e+01,-6.750000000000001776e+00,-1.400000000000000355e+01,1.250000000000000355e+01,2.275000000000000355e+01,-3.800000000000000711e+01,1.775000000000000355e+01,5.000000000000000000e-01,9.750000000000003553e+00,-1.825000000000000355e+01,-2.500000000000000888e+00,1.975000000000000355e+01,-1.600000000000000355e+01,-1.125000000000000355e+01,5.925000000000001421e+01,-6.925000000000001421e+01,2.100000000000000711e+01,2.825000000000000355e+01,-3.825000000000000711e+01,2.275000000000000711e+01,-1.125000000000000355e+01,1.550000000000000355e+01,-1.000000000000000355e+01,-1.950000000000000355e+01,1.225000000000000355e+01,2.375000000000000355e+01,-3.075000000000000711e+01,4.375000000000001421e+01,-5.575000000000001421e+01,3.850000000000001421e+01,-3.200000000000000711e+01,2.725000000000000711e+01,-3.075000000000000711e+01,5.525000000000001421e+01,-2.575000000000000711e+01,-2.025000000000000355e+01,2.125000000000000355e+01,-2.400000000000000711e+01,2.525000000000000711e+01,-6.750000000000000888e+00,-9.250000000000001776e+00,2.525000000000000355e+01,-3.650000000000000711e+01,2.275000000000000711e+01,-7.500000000000008882e-01,-2.350000000000000355e+01,2.900000000000000711e+01,-1.475000000000000355e+01,1.275000000000000355e+01,-1.725000000000000355e+01,1.850000000000000355e+01,-1.875000000000000355e+01,5.000000000000000000e-01,8.750000000000001776e+00,1.775000000000000355e+01,-3.750000000000000711e+01,1.825000000000000355e+01,1.700000000000000355e+01,-2.475000000000000711e+01,1.675000000000000355e+01,-8.500000000000001776e+00,1.225000000000000355e+01,-7.250000000000002665e+00,-2.150000000000000355e+01,1.000000000000000178e+01,2.400000000000000711e+01,-6.750000000000001776e+00,-1.750000000000000355e+01,-6.000000000000001776e+00,2.400000000000000711e+01,1.000000000000001776e+00,-2.125000000000000711e+01,-3.500000000000001776e+00,3.025000000000000711e+01,2.500000000000000000e+00,-3.175000000000000711e+01,2.600000000000000711e+01,-1.025000000000000355e+01,-1.925000000000000355e+01,3.125000000000000711e+01,-3.475000000000000711e+01,2.200000000000000355e+01,1.675000000000000355e+01,-3.525000000000000711e+01,3.050000000000000711e+01,-3.175000000000000711e+01,1.200000000000000355e+01,1.650000000000000355e+01,-2.975000000000000711e+01,2.875000000000000711e+01,-2.500000000000000711e+01,1.000000000000000000e+00,2.250000000000000711e+01,-2.100000000000000355e+01,2.475000000000000711e+01,-2.200000000000000711e+01,1.725000000000000355e+01,-2.100000000000000711e+01,1.825000000000000355e+01,1.200000000000000355e+01,-2.625000000000000711e+01,2.450000000000000711e+01,4.500000000000000000e+00,-3.825000000000000711e+01,3.450000000000000711e+01,-9.500000000000001776e+00,-2.925000000000000711e+01,3.550000000000000711e+01,-2.675000000000000711e+01,-2.750000000000000000e+00,3.350000000000000711e+01,-2.300000000000000355e+01,-1.100000000000000355e+01,3.700000000000000711e+01,-1.675000000000000355e+01,-1.900000000000000355e+01,3.025000000000000711e+01,-2.100000000000000711e+01,-1.750000000000000000e+00,4.425000000000000711e+01,3.000000000000000000e+00,-4.175000000000000711e+01,-1.650000000000000355e+01,2.175000000000000355e+01,4.750000000000000888e+00,5.000000000000001776e+00,-3.075000000000000711e+01,4.700000000000001421e+01,-2.875000000000000711e+01,-5.000000000000001110e-01,5.000000000000001110e-01,-5.000000000000001110e-01,2.500000000000000555e-01,0.000000000000000000e+00,0.000000000000000000e+00,0.000000000000000000e+00,0.000000000000000000e+00,0.000000000000000000e+00,0.000000000000000000e+00,0.000000000000000000e+00,0.000000000000000000e+00,0.000000000000000000e+00,2.500000000000000555e-01,-7.500000000000002220e-01,7.500000000000002220e-01,-2.500000000000000555e-01,0.000000000000000000e+00,0.000000000000000000e+00,0.000000000000000000e+00,0.000000000000000000e+00,0.000000000000000000e+00,-2.500000000000000555e-01,5.000000000000001110e-01,-5.000000000000001110e-01,5.000000000000001110e-01,-7.500000000000002220e-01,1.250000000000000444e+00,-1.000000000000000222e+00,2.500000000000000555e-01,2.500000000000000555e-01,-5.000000000000001110e-01,5.000000000000001110e-01,-5.000000000000001110e-01,0.000000000000000000e+00,5.000000000000001110e-01,-2.500000000000000555e-01,0.000000000000000000e+00,0.000000000000000000e+00,-2.500000000000000555e-01,5.000000000000001110e-01,-2.500000000000000555e-01,0.000000000000000000e+00,0.000000000000000000e+00,2.500000000000000555e-01,-5.000000000000001110e-01,2.500000000000000555e-01,0.000000000000000000e+00,-5.000000000000001110e-01,7.500000000000002220e-01,-2.500000000000000555e-01,0.000000000000000000e+00,5.000000000000001110e-01,-7.500000000000002220e-01,2.500000000000000555e-01,0.000000000000000000e+00,0.000000000000000000e+00,0.000000000000000000e+00,0.000000000000000000e+00,0.000000000000000000e+00,0.000000000000000000e+00,0.000000000000000000e+00,0.000000000000000000e+00,0.000000000000000000e+00,-2.500000000000000555e-01,7.500000000000002220e-01,-1.000000000000000222e+00,-3.500000000000000888e+00,-1.400000000000000355e+01,2.200000000000000355e+01,-2.075000000000000355e+01,2.125000000000000355e+01,-1.850000000000000355e+01,1.400000000000000355e+01,-2.850000000000000711e+01,3.725000000000000711e+01,-1.500000000000000000e+00,-3.075000000000000711e+01,9.500000000000000000e+00,2.100000000000000711e+01,2.750000000000000000e+00,-3.250000000000000711e+01,3.825000000000000711e+01,-2.850000000000000711e+01,2.050000000000000711e+01,-4.025000000000000711e+01,2.000000000000000355e+01,1.650000000000000355e+01,-5.750000000000001776e+00,-7.000000000000001776e+00,2.275000000000000711e+01,-3.850000000000001421e+01,3.125000000000000711e+01,-7.500000000000008882e-01,-3.050000000000000711e+01,2.800000000000000711e+01,-1.300000000000000355e+01,1.525000000000000355e+01,-2.000000000000000000e+00,5.000000000000000888e+00,-2.250000000000000711e+01,7.000000000000001776e+00,1.600000000000000355e+01,-5.250000000000000888e+00,-2.525000000000000355e+01,2.075000000000000355e+01,-5.500000000000001776e+00,-1.350000000000000178e+01,2.400000000000000355e+01,-2.475000000000000355e+01,-2.500000000000000000e-01,2.025000000000000355e+01,-5.000000000000001110e-01,1.000000000000000222e+00,-2.500000000000000555e-01,5.000000000000001110e-01,-5.000000000000001110e-01,5.000000000000001110e-01,-2.500000000000000555e-01,0.000000000000000000e+00,7.500000000000002220e-01,-2.500000000000001110e-01,-7.500000000000002220e-01,1.500000000000000222e+00,-1.500000000000000222e+00,-1.000000000000000222e+00,1.000000000000000222e+00,2.500000000000000555e-01,0.000000000000000000e+00,0.000000000000000000e+00,0.000000000000000000e+00,0.000000000000000000e+00,-2.500000000000000555e-01,5.000000000000001110e-01,-2.500000000000000555e-01,-2.500000000000000555e-01,2.500000000000000555e-01,2.500000000000000555e-01,-5.000000000000001110e-01,2.500000000000000555e-01,5.000000000000001110e-01,-5.000000000000001110e-01,2.500000000000000555e-01,-5.000000000000001110e-01,7.500000000000002220e-01,-2.500000000000000555e-01,1.250000000000000444e+00,-2.250000000000000888e+00,1.100000000000000178e+01,-8.000000000000001776e+00,-9.750000000000001776e+00,2.350000000000000711e+01,-3.275000000000000711e+01,1.950000000000000355e+01,-4.250000000000000888e+00,2.000000000000000444e+00,1.600000000000000355e+01,-2.275000000000000711e+01,-6.000000000000001776e+00,2.600000000000000711e+01,-2.975000000000000711e+01,1.975000000000000355e+01,8.500000000000003553e+00,-2.450000000000000711e+01,1.275000000000000355e+01,1.750000000000000444e+00,-1.750000000000000444e+00,-6.250000000000000888e+00,1.825000000000000355e+01,-4.250000000000001776e+00,-8.000000000000001776e+00,1.125000000000000178e+01,-2.225000000000000355e+01,2.200000000000000355e+01,-2.125000000000000355e+01,2.100000000000000355e+01,-2.225000000000000355e+01,1.375000000000000178e+01,-7.000000000000001776e+00,2.675000000000000355e+01,-3.525000000000000711e+01,2.650000000000000711e+01,-6.250000000000001776e+00,-1.375000000000000355e+01,1.875000000000000711e+01,-2.500000000000000711e+01,2.550000000000000711e+01,-1.550000000000000355e+01,-8.750000000000001776e+00,2.025000000000000355e+01,-1.350000000000000355e+01,1.650000000000000355e+01,-2.150000000000000355e+01,1.375000000000000355e+01,1.500000000000000000e+00,-1.175000000000000355e+01,7.500000000000008882e-01,3.250000000000000444e+00,7.000000000000001776e+00,5.250000000000000888e+00,-2.125000000000000355e+01,1.800000000000000355e+01,-1.275000000000000355e+01,-7.250000000000001776e+00,1.950000000000000711e+01,1.350000000000000178e+01,-2.775000000000000711e+01,5.500000000000001776e+00,1.250000000000000178e+01,-1.900000000000000355e+01,2.700000000000000711e+01,-1.325000000000000355e+01,-1.625000000000000355e+01,1.350000000000000178e+01,9.000000000000001776e+00,8.750000000000001776e+00,-3.475000000000000711e+01,1.325000000000000355e+01,1.975000000000000355e+01,-3.475000000000000711e+01,3.425000000000000711e+01,-3.600000000000000711e+01,2.050000000000000355e+01,1.125000000000000355e+01,-1.550000000000000355e+01,1.000000000000000178e+01,-2.425000000000000711e+01,3.125000000000000711e+01,-2.600000000000000711e+01,3.750000000000000000e+00,1.825000000000000355e+01,-1.650000000000000355e+01,1.300000000000000355e+01,-6.000000000000001776e+00,1.500000000000000222e+00,-1.900000000000000355e+01,3.175000000000000711e+01,-2.000000000000000355e+01,-1.125000000000000355e+01,2.450000000000000711e+01,-1.325000000000000355e+01,2.525000000000000355e+01,-2.800000000000000711e+01,0.000000000000000000e+00,2.200000000000000711e+01,-2.125000000000000711e+01,2.325000000000000711e+01,-9.750000000000001776e+00,-2.175000000000000711e+01,1.200000000000000355e+01,7.000000000000001776e+00,1.250000000000000000e+00,-5.000000000000000888e+00,-2.750000000000000444e+00,-7.000000000000001776e+00,2.100000000000000355e+01,-2.475000000000000711e+01,1.500000000000000355e+01,9.250000000000001776e+00,-2.725000000000000711e+01,1.650000000000000355e+01,1.750000000000000355e+01,-2.525000000000000711e+01,7.500000000000000000e-01,1.175000000000000355e+01,-8.000000000000001776e+00,1.750000000000000355e+01,-2.050000000000000355e+01,1.250000000000000355e+01,-1.825000000000000355e+01,1.700000000000000355e+01,-9.500000000000001776e+00,2.100000000000000355e+01,-3.200000000000000711e+01,2.950000000000000711e+01,-2.400000000000000711e+01,2.225000000000000711e+01,-1.025000000000000355e+01,-1.925000000000000355e+01,3.425000000000000711e+01,-2.600000000000000711e+01,-1.250000000000000000e+00,1.650000000000000355e+01,-1.525000000000000355e+01,2.100000000000000711e+01,-2.275000000000000711e+01,1.175000000000000178e+01,-7.000000000000001776e+00,1.950000000000000355e+01,-2.575000000000000711e+01,1.200000000000000178e+01,3.000000000000000888e+00,-1.250000000000000355e+01,2.175000000000000711e+01,-8.500000000000003553e+00,-7.500000000000001776e+00,6.500000000000001776e+00,-1.875000000000000355e+01,2.425000000000000711e+01,1.800000000000000711e+01
