-2.002499999999836078e-01,-6.731499999999987160e+00,-1.434087499999998983e+01,-2.163774999999999693e+01,-2.696587500000000404e+01,-3.076275000000000404e+01,-3.549712500000000404e+01,-4.023150000000000404e+01,-4.159087500000000404e+01,-4.270025000000000404e+01,-4.166900000000000404e+01,-4.121587500000000404e+01,-4.266900000000000404e+01,-4.282525000000000404e+01,-4.137212500000000404e+01,-3.970025000000000404e+01,-3.905962500000000404e+01,-3.809087500000000404e+01,-3.932525000000000404e+01,-3.955962500000000404e+01,-3.745025000000000404e+01,-3.693462500000000404e+01,-3.657525000000000404e+01,-3.484087500000000404e+01,-3.324712500000000404e+01,-3.210650000000000404e+01,-2.943462500000000404e+01,-2.627837500000000404e+01,-2.465337500000000404e+01,-2.204399999999999693e+01,-1.988774999999999338e+01,-1.968462499999999338e+01,-1.979399999999999338e+01,-1.879399999999999338e+01,-1.848149999999999338e+01,-2.002837499999999693e+01,-2.116899999999999693e+01,-2.373150000000000048e+01,-2.523150000000000404e+01,-2.570025000000000404e+01,-2.679400000000000404e+01,-2.935650000000000404e+01,-3.088775000000000404e+01,-3.145025000000000404e+01,-3.276275000000000404e+01,-3.304400000000000404e+01,-3.429400000000000404e+01,-3.524712500000000404e+01,-3.471587500000000404e+01,-3.288775000000000404e+01,-3.204400000000000404e+01,-3.087212500000000404e+01,-2.851275000000000404e+01,-2.565337500000000048e+01,-2.179399999999999693e+01,-1.876274999999999338e+01,-1.532524999999999338e+01,-1.280962499999999160e+01,-8.793999999999988049e+00,-3.778374999999984496e+00,1.768500000000019279e+00,7.940375000000022609e+00,1.325287500000002439e+01,2.098725000000003149e+01,2.934662500000003860e+01,3.906537500000004570e+01,4.800287500000005281e+01,5.769037500000005991e+01,6.664350000000005991e+01,7.523725000000005991e+01,8.473725000000007412e+01,9.237787500000008833e+01,9.951850000000010255e+01,1.061747500000001025e+02,1.136435000000001025e+02,1.188935000000001025e+02,1.238935000000001025e+02,1.295966250000001025e+02,1.359716250000001025e+02,1.432372500000001025e+02,1.487372500000001025e+02,1.548466250000001025e+02,1.588935000000001025e+02,1.637997500000001025e+02,1.695653750000001025e+02,1.736278750000001025e+02,1.758935000000001025e+02,1.772528750000001025e+02,1.794716250000001025e+02,1.807060000000001025e+02,1.837060000000001025e+02,1.867841250000001025e+02,1.882060000000001310e+02,1.895028750000001310e+02,1.915028750000001594e+02,1.931435000000001878e+02,1.957528750000001878e+02,1.975185000000001878e+02,1.982997500000001878e+02,1.977685000000001878e+02,1.975810000000001878e+02,1.979403750000001878e+02,1.976747500000001878e+02,1.973153750000001878e+02,1.947216250000001878e+02,1.921591250000001878e+02,1.891903750000001310e+02,1.863778750000001310e+02,1.835341250000001310e+02,1.797841250000001025e+02,1.760810000000001025e+02,1.717216250000001025e+02,1.685810000000001025e+02,1.669872500000001025e+02,1.655497500000001025e+02,1.650810000000001025e+02,1.661122500000001025e+02,1.680341250000001025e+02,1.694872500000001025e+02,1.720028750000001025e+02,1.740497500000001025e+02,1.747997500000001025e+02,1.753778750000001025e+02,1.746278750000001025e+02,1.712528750000001025e+02,1.675653750000001025e+02,1.638310000000001025e+02,1.593935000000001025e+02,1.555810000000001025e+02,1.504716250000001025e+02,1.454247500000001025e+02,1.413935000000001025e+02,1.387060000000001025e+02,1.357685000000001025e+02,1.322997500000001025e+02,1.287528750000001025e+02,1.236747500000001025e+02,1.192060000000001025e+02,1.134716250000001025e+02,1.064560000000001025e+02,9.776850000000010255e+01,8.728412500000007412e+01,7.737787500000005991e+01,6.650287500000005991e+01,5.584662500000005991e+01,4.525287500000004570e+01,3.481537500000003860e+01,2.495600000000003149e+01,1.684662500000002794e+01,1.009662500000002439e+01,3.627875000000019945e+00,-1.434624999999983608e+00,-6.575249999999986272e+00,-1.062212499999998983e+01,-1.355962499999999160e+01,-1.671587499999999338e+01,-1.888774999999999338e+01,-1.882524999999999338e+01,-1.721587499999999338e+01,-1.273149999999999160e+01,-5.137749999999986272e+00,2.971625000000019057e+00,1.328412500000002439e+01,2.665912500000003149e+01,3.965912500000004570e+01,5.148725000000005281e+01,6.237787500000005991e+01,6.928412500000005991e+01,7.375287500000005991e+01,7.672162500000005991e+01,7.676850000000005991e+01,7.201850000000005991e+01,6.489350000000005991e+01,5.601850000000005991e+01,4.440912500000004570e+01,3.325287500000003860e+01,2.247162500000003149e+01,1.256537500000002616e+01,3.065375000000019945e+00,-3.325249999999983608e+00,-8.309624999999986272e+00,-1.132524999999998983e+01,-1.109087499999998983e+01,-1.085649999999998983e+01,-1.182524999999998983e+01,-1.346587499999999160e+01,-1.448149999999999338e+01,-1.560649999999999338e+01,-1.715337499999999338e+01,-2.045024999999999693e+01,-2.462212500000000048e+01,-2.730962500000000404e+01,-2.779400000000000404e+01,-2.637212500000000404e+01,-2.479400000000000404e+01,-2.438775000000000404e+01,-2.046587499999999693e+01,-1.332524999999999160e+01,-4.700249999999985384e+00,5.362250000000021721e+00,1.694037500000002794e+01,2.861225000000003504e+01,4.264350000000004570e+01,6.214350000000005991e+01,7.972162500000007412e+01,9.940912500000008833e+01,1.206435000000001025e+02,1.442372500000001025e+02,1.700185000000001310e+02,2.000028750000001878e+02,2.326903750000001878e+02,2.632841250000001878e+02,2.980497500000001878e+02,3.310653750000001878e+02,3.641122500000002447e+02,3.938778750000003583e+02,4.194560000000003583e+02,4.395028750000003583e+02,4.543466250000003583e+02,4.665341250000003583e+02,4.737685000000003583e+02,4.786591250000003583e+02,4.805653750000003583e+02,4.813310000000003583e+02,4.816747500000003583e+02,4.819403750000003583e+02,4.821435000000003583e+02,4.822685000000003583e+02,4.823466250000003583e+02,4.824247500000003583e+02,4.824247500000003583e+02,4.823778750000003583e+02,4.823153750000003583e+02,4.822528750000003583e+02,4.822372500000003583e+02,4.822528750000003583e+02,4.822685000000003583e+02,4.822685000000003583e+02,4.823153750000003583e+02,4.824091250000003583e+02,4.825028750000003583e+02,4.826278750000003583e+02,4.827372500000003583e+02,4.828153750000003583e+02,4.829091250000003583e+02,4.830341250000003583e+02,4.831591250000003583e+02,4.832528750000003583e+02,4.833466250000003583e+02,4.834091250000003583e+02,4.834560000000003583e+02,4.835028750000003583e+02,4.835341250000003583e+02,4.835185000000003583e+02,4.834872500000003583e+02,4.834560000000003583e+02,4.834247500000003583e+02,4.833935000000003583e+02,4.833466250000003583e+02,4.833622500000003583e+02,4.833622500000003583e+02,4.833622500000003583e+02,4.833622500000003583e+02,4.833622500000003583e+02,4.833778750000003583e+02,4.833778750000003583e+02,4.834403750000003583e+02,4.834560000000003583e+02,4.835028750000003583e+02,4.835810000000003583e+02,4.836435000000003583e+02,4.837060000000003583e+02,4.837528750000003583e+02,4.838310000000003583e+02,4.838466250000003583e+02,4.838778750000003583e+02,4.838778750000003583e+02,4.838622500000003583e+02,4.838622500000003583e+02,4.838310000000003583e+02,4.837841250000003583e+02,4.837372500000003583e+02,4.836591250000003583e+02,4.835341250000003583e+02,4.834247500000003583e+02,4.832997500000003583e+02,4.831591250000003583e+02,4.830653750000003583e+02,4.830028750000003583e+02,4.828935000000003583e+02,4.828310000000003583e+02,4.827997500000003583e+02,4.827685000000003583e+02,4.827528750000003583e+02,4.827685000000003583e+02,4.827685000000003583e+02,4.827216250000003583e+02,4.826903750000003583e+02,4.826591250000003583e+02,4.826278750000003583e+02,4.825653750000003583e+02,4.824716250000003583e+02,4.822685000000003583e+02,4.819403750000003583e+02,4.807841250000003583e+02,4.784091250000003583e+02,4.742372500000003583e+02,4.691903750000003583e+02,4.632841250000003583e+02,4.559560000000003583e+02,4.462997500000003583e+02,4.335341250000003583e+02,4.188466250000003583e+02,4.040966250000003583e+02,3.897372500000003583e+02,3.728310000000002447e+02,3.540185000000002447e+02,3.338310000000001878e+02,3.136435000000001878e+02,2.957997500000001878e+02,2.787685000000001878e+02,2.594403750000001878e+02,2.395497500000001878e+02,2.236591250000001878e+02,2.069247500000001878e+02,1.894247500000001594e+02,1.715966250000001310e+02,1.506122500000001025e+02,1.296435000000001025e+02,1.107997500000001025e+02,9.048725000000007412e+01,6.609662500000005991e+01,4.220600000000004570e+01,1.887787500000003149e+01,-2.981499999999984496e+00,-2.132524999999999693e+01,-3.987212500000001114e+01,-5.923150000000002535e+01,-7.638775000000003956e+01,-9.526275000000005377e+01,-1.118721250000000680e+02,-1.269658750000000680e+02,-1.444971250000000680e+02,-1.649346250000000964e+02,-1.860752500000001248e+02,-2.062315000000001532e+02,-2.272002500000001532e+02,-2.437783750000001532e+02,-2.610127500000001532e+02,-2.765752500000001532e+02,-2.883877500000001532e+02,-2.985283750000001532e+02,-3.066690000000001532e+02,-3.160440000000001532e+02,-3.259658750000001532e+02,-3.350127500000001532e+02,-3.440440000000001532e+02,-3.549190000000001532e+02,-3.682002500000002101e+02,-3.811533750000002669e+02,-3.944346250000003238e+02,-4.068408750000003238e+02,-4.170752500000003238e+02,-4.286690000000003238e+02,-4.397315000000003238e+02,-4.508096250000003238e+02,-4.596065000000003238e+02,-4.667471250000003238e+02,-4.737471250000003238e+02,-4.794033750000003238e+02,-4.854033750000003238e+02,-4.912471250000003238e+02,-4.963721250000003238e+02,-4.997783750000003238e+02,-5.036221250000003238e+02,-5.081221250000003238e+02,-5.115596250000003238e+02,-5.146846250000003238e+02,-5.170440000000003238e+02,-5.182471250000003238e+02,-5.192002500000003238e+02,-5.201846250000003238e+02,-5.206846250000003238e+02,-5.207315000000003238e+02,-5.208096250000003238e+02,-5.208877500000003238e+02,-5.209502500000003238e+02,-5.209971250000003238e+02,-5.210283750000003238e+02,-5.210440000000003238e+02,-5.209971250000003238e+02,-5.209815000000003238e+02,-5.209502500000003238e+02,-5.206065000000003238e+02,-5.200283750000003238e+02,-5.194658750000003238e+02,-5.189033750000003238e+02,-5.182627500000003238e+02,-5.172627500000003238e+02,-5.160440000000003238e+02,-5.134971250000003238e+02,-5.112315000000003238e+02,-5.085440000000003238e+02,-5.046065000000003238e+02,-4.999033750000003238e+02,-4.950908750000003238e+02,-4.897471250000003238e+02,-4.821690000000003238e+02,-4.747315000000003238e+02,-4.667315000000003238e+02,-4.583252500000003238e+02,-4.500908750000003238e+02,-4.409658750000003238e+02,-4.308096250000003238e+02,-4.216065000000003238e+02,-4.150283750000003238e+02,-4.102315000000003238e+02,-4.051690000000003238e+02,-4.004190000000003238e+02,-3.961846250000003238e+02,-3.937315000000003238e+02,-3.909346250000003238e+02,-3.864971250000003238e+02,-3.806690000000003238e+02,-3.734658750000002101e+02,-3.668096250000002101e+02,-3.615908750000001532e+02,-3.576533750000001532e+02,-3.529815000000001532e+02,-3.488096250000001532e+02,-3.460908750000001532e+02,-3.439658750000001532e+02,-3.418096250000001532e+02,-3.375283750000001532e+02,-3.289502500000001532e+02,-3.177002500000001532e+02,-3.060596250000001532e+02,-2.953877500000001532e+02,-2.846690000000001532e+02,-2.745908750000001532e+02,-2.639658750000001532e+02,-2.566533750000001532e+02,-2.545752500000001532e+02,-2.538721250000001532e+02,-2.532002500000001532e+02,-2.512627500000001532e+02,-2.483877500000001532e+02,-2.455283750000001532e+02,-2.440596250000001532e+02,-2.408721250000001532e+02,-2.363252500000001532e+02,-2.317940000000001532e+02,-2.287315000000001532e+02,-2.277471250000001532e+02,-2.266690000000001532e+02,-2.236846250000001532e+02,-2.198877500000001532e+02,-2.161533750000001532e+02,-2.108096250000001532e+02,-2.056065000000001532e+02,-1.972315000000001532e+02,-1.879971250000001248e+02,-1.794190000000000964e+02,-1.723877500000000680e+02,-1.649346250000000680e+02,-1.574190000000000680e+02,-1.494815000000000680e+02,-1.412315000000000680e+02,-1.366690000000000680e+02,-1.314346250000000680e+02,-1.272315000000000680e+02,-1.228877500000000680e+02,-1.205752500000000680e+02,-1.186065000000000680e+02,-1.183877500000000680e+02,-1.188721250000000680e+02,-1.178408750000000680e+02,-1.168721250000000680e+02,-1.142783750000000680e+02,-1.126377500000000680e+02,-1.085752500000000680e+02,-1.048565000000000680e+02,-1.016533750000000680e+02,-9.748150000000006798e+01,-9.335650000000003956e+01,-8.885650000000002535e+01,-8.488775000000002535e+01,-7.896587500000002535e+01,-7.509087500000002535e+01,-7.112212500000002535e+01,-6.646587500000002535e+01,-6.373150000000002535e+01,-6.049712500000002535e+01,-5.830962500000002535e+01,-5.690337500000002535e+01,-5.684087500000002535e+01,-5.604400000000002535e+01,-5.362212500000002535e+01,-5.224712500000002535e+01,-4.963775000000002535e+01,-4.798150000000002535e+01,-4.648150000000001825e+01,-4.396587500000001114e+01,-4.120025000000000404e+01,-3.823150000000000404e+01,-3.823150000000000404e+01,-3.510650000000000404e+01,-3.157525000000000404e+01,-2.773150000000000048e+01,-2.295024999999999693e+01,-2.029399999999999338e+01,-1.862212499999999338e+01,-1.807524999999999338e+01,-1.707524999999999338e+01,-1.901274999999999693e+01,-2.226274999999999693e+01,-2.584087500000000048e+01,-3.095025000000000404e+01,-3.338775000000000404e+01,-3.518462500000000404e+01,-3.474712500000000404e+01,-3.405962500000000404e+01,-3.295025000000000404e+01,-3.079400000000000404e+01,-2.824712500000000404e+01,-2.451275000000000048e+01,-2.241899999999999693e+01,-1.952837499999999338e+01,-1.852837499999999338e+01,-1.559087499999999338e+01,-1.184087499999998983e+01,-7.778374999999988049e+00,-3.012749999999984940e+00,2.315375000000019057e+00,8.612250000000022609e+00,1.325287500000002439e+01,1.839350000000002794e+01,2.148725000000003149e+01,2.479975000000003504e+01,2.851850000000003860e+01,2.986225000000003860e+01,2.875287500000003860e+01,2.775287500000003860e+01,2.876850000000003860e+01,2.956537500000003860e+01,3.265912500000003860e+01,3.520600000000003860e+01,3.511225000000003860e+01,3.589350000000003860e+01,3.928412500000003860e+01,4.156537500000003860e+01,4.239350000000003860e+01,4.389350000000003860e+01,4.423725000000004570e+01,4.476850000000004570e+01,4.673725000000005281e+01,5.083100000000005991e+01,5.326850000000005991e+01,5.519037500000005991e+01,5.823725000000005991e+01,5.944037500000005991e+01,5.951850000000005991e+01,5.847162500000005991e+01,5.815912500000005991e+01,5.673725000000005991e+01,5.536225000000005991e+01,5.506537500000005991e+01,5.325287500000005991e+01,5.398725000000005991e+01,5.415912500000005991e+01,5.598725000000005991e+01,5.872162500000005991e+01,5.942475000000005991e+01,6.067475000000005991e+01,6.219037500000005991e+01,6.573725000000005991e+01,6.725287500000005991e+01,7.015912500000005991e+01,7.228412500000005991e+01,7.222162500000005991e+01,7.386225000000005991e+01,7.653412500000005991e+01,7.840912500000005991e+01,7.686225000000005991e+01,7.504975000000005991e+01,7.344037500000005991e+01,7.039350000000005991e+01,6.786225000000005991e+01,6.517475000000005991e+01,5.939350000000005991e+01,5.225287500000005991e+01,4.758100000000005991e+01,4.459662500000004570e+01,3.936225000000004570e+01,3.472162500000003860e+01,2.767475000000003504e+01,1.895600000000003149e+01,1.197162500000002439e+01,5.440375000000020833e+00,-3.715874999999984940e+00,-1.560649999999998983e+01,-2.805962499999999693e+01,-4.270025000000001114e+01,-5.676275000000001825e+01,-7.273150000000002535e+01,-9.195025000000003956e+01,-1.130752500000000680e+02,-1.344971250000000680e+02,-1.569346250000000964e+02,-1.802471250000000964e+02,-2.034658750000001532e+02,-2.265127500000001532e+02,-2.468721250000001532e+02,-2.642002500000001532e+02,-2.773408750000001532e+02,-2.875596250000001532e+02,-2.943877500000001532e+02,-2.953721250000001532e+02,-2.903252500000001532e+02,-2.807002500000001532e+02,-2.704971250000001532e+02,-2.608096250000001532e+02,-2.538877500000001532e+02,-2.496377500000001532e+02,-2.487471250000001532e+02,-2.531533750000001532e+02,-2.627158750000001532e+02,-2.770127500000001532e+02,-2.904658750000001532e+02,-3.021065000000001532e+02,-3.097315000000001532e+02,-3.104033750000001532e+02,-3.033096250000001532e+02,-2.898877500000001532e+02,-2.712940000000001532e+02,-2.480908750000001532e+02,-2.209658750000001532e+02,-1.892002500000001248e+02,-1.559033750000000964e+02,-1.244033750000000680e+02,-9.352837500000003956e+01,-6.230962500000001114e+01,-3.132525000000000048e+01,4.560000000000172804e-01,3.086225000000003504e+01,5.709662500000004570e+01,8.183100000000007412e+01,1.063622500000000883e+02,1.296591250000001025e+02,1.507997500000001025e+02,1.717997500000001310e+02,1.909872500000001878e+02,2.074872500000001878e+02,2.244716250000001878e+02,2.397528750000001878e+02,2.533310000000001878e+02,2.633622500000001878e+02,2.707841250000001878e+02,2.743622500000001878e+02,2.747841250000001878e+02,2.743153750000001878e+02,2.707372500000001878e+02,2.649560000000001878e+02,2.562685000000001878e+02,2.453778750000001878e+02,2.336122500000001878e+02,2.198778750000001878e+02,2.052841250000001878e+02,1.885497500000001878e+02,1.695341250000001310e+02,1.495028750000001025e+02,1.276122500000001025e+02,1.061122500000000741e+02,8.398725000000007412e+01,6.284662500000005991e+01,4.215912500000004570e+01,2.250287500000003149e+01,5.737250000000021721e+00,-9.622124999999989825e+00,-2.090337499999999693e+01,-3.020025000000000404e+01,-3.838775000000001114e+01,-4.437212500000001114e+01,-4.754400000000001825e+01,-5.027837500000002535e+01,-5.241900000000002535e+01,-5.354400000000002535e+01,-5.616900000000002535e+01,-5.804400000000002535e+01,-5.899712500000002535e+01,-5.991900000000002535e+01,-6.193462500000002535e+01,-6.277837500000002535e+01,-6.316900000000002535e+01,-6.384087500000002535e+01,-6.193462500000002535e+01,-5.996587500000002535e+01,-5.707525000000002535e+01,-5.413775000000002535e+01,-5.032525000000002535e+01,-4.502837500000001114e+01,-3.884087500000001114e+01,-3.101275000000000404e+01,-2.340337499999999693e+01,-1.421587499999998983e+01,-4.543999999999984496e+00,5.815375000000020833e+00,1.579975000000002616e+01,2.529975000000003149e+01,3.250287500000003860e+01,3.978412500000004570e+01,4.637787500000004570e+01,4.986225000000005281e+01,5.292475000000005991e+01,5.484662500000005991e+01,5.597162500000005991e+01,5.500287500000005991e+01,5.625287500000005991e+01,5.575287500000005991e+01,5.350287500000005991e+01,5.286225000000005991e+01,5.062787500000005991e+01,4.836225000000004570e+01,4.619037500000004570e+01,4.473725000000004570e+01,4.195600000000003860e+01,3.998725000000003860e+01,3.951850000000003860e+01,3.867475000000003860e+01,3.794037500000003860e+01,3.711225000000003860e+01,3.658100000000003860e+01,3.740912500000003860e+01,3.729975000000003860e+01,3.522162500000003860e+01,3.320600000000003860e+01,3.090912500000003860e+01,2.976850000000003860e+01,2.889350000000003860e+01,2.792475000000003860e+01,2.547162500000003504e+01,2.370600000000003504e+01,2.408100000000003860e+01,2.467475000000003860e+01,2.550287500000003860e+01,2.550287500000003860e+01,2.545600000000003860e+01,2.592475000000003860e+01,2.623725000000003860e+01,2.781537500000003860e+01,2.826850000000003860e+01,2.651850000000003860e+01,2.437787500000003504e+01,2.176850000000003149e+01,1.834662500000002794e+01,1.362787500000002439e+01,9.752875000000022609e+00,4.127875000000019945e+00,-1.559624999999983830e+00,-4.825249999999986272e+00,-8.497124999999988049e+00,-1.029399999999998805e+01,-1.198149999999998983e+01,-1.137212499999998983e+01,-1.123149999999998983e+01,-1.091899999999998983e+01,-8.918999999999988049e+00,-8.043999999999988049e+00,-5.200249999999986272e+00,-3.950249999999985384e+00,-2.215874999999984052e+00,-2.512749999999984052e+00,-3.106499999999984496e+00,-2.340874999999984496e+00,-4.122124999999985384e+00,-5.387749999999985384e+00,-9.622124999999988049e+00,-1.370024999999999160e+01,-1.810649999999999338e+01,-2.221587499999999693e+01,-2.671587500000000048e+01,-3.251275000000000404e+01,-3.604400000000000404e+01,-4.082525000000001114e+01,-4.391900000000001114e+01,-4.665337500000001825e+01,-4.837212500000002535e+01,-5.012212500000002535e+01,-5.140337500000002535e+01,-5.265337500000002535e+01,-5.585650000000002535e+01,-5.815337500000002535e+01,-5.957525000000002535e+01,-6.196587500000002535e+01,-6.559087500000002535e+01,-6.885650000000002535e+01,-7.074712500000002535e+01,-7.182525000000002535e+01,-7.218462500000002535e+01,-7.130962500000002535e+01,-7.259087500000002535e+01,-7.309087500000002535e+01,-7.209087500000002535e+01,-7.249712500000002535e+01,-7.551275000000002535e+01,-7.941900000000002535e+01,-8.280962500000002535e+01,-8.796587500000003956e+01,-9.210650000000003956e+01,-9.552837500000006798e+01,-1.004190000000000680e+02,-1.040440000000000680e+02,-1.055283750000000680e+02,-1.070440000000000680e+02,-1.088252500000000680e+02,-1.110283750000000680e+02,-1.127315000000000680e+02,-1.164346250000000680e+02,-1.195440000000000680e+02,-1.220440000000000680e+02,-1.252940000000000680e+02,-1.282783750000000680e+02,-1.309815000000000680e+02,-1.321846250000000680e+02,-1.337002500000000680e+02,-1.336846250000000680e+02,-1.344190000000000680e+02,-1.352783750000000680e+02,-1.363096250000000680e+02,-1.368096250000000680e+02,-1.383565000000000680e+02,-1.399190000000000680e+02,-1.409971250000000680e+02,-1.412940000000000680e+02,-1.407315000000000680e+02,-1.404033750000000680e+02,-1.397627500000000680e+02,-1.385440000000000680e+02,-1.360908750000000680e+02,-1.331065000000000680e+02,-1.305127500000000680e+02,-1.283408750000000680e+02,-1.255283750000000680e+02,-1.229658750000000680e+02,-1.195752500000000680e+02,-1.158408750000000680e+02,-1.114502500000000680e+02,-1.077471250000000680e+02,-1.035752500000000680e+02,-9.990337500000006798e+01,-9.637212500000005377e+01,-9.196587500000003956e+01,-8.718462500000002535e+01,-8.368462500000002535e+01,-7.974712500000002535e+01,-7.573150000000002535e+01,-7.037212500000002535e+01,-6.345025000000002535e+01,-5.626275000000002535e+01,-4.902837500000001825e+01,-4.254400000000001114e+01,-3.480962500000000404e+01,-2.904400000000000404e+01,-2.282524999999999693e+01,-1.921587499999999338e+01,-1.757524999999999338e+01,-1.552837499999999338e+01,-1.374712499999999338e+01,-1.157524999999998983e+01,-1.026274999999998983e+01,-8.184624999999988049e+00,-6.715874999999987160e+00,-4.465874999999985384e+00,-1.309624999999983608e+00,1.409125000000017724e+00,4.002875000000019057e+00,5.643500000000020833e+00,8.065375000000020833e+00,1.140912500000002439e+01,1.504975000000002794e+01,2.004975000000002794e+01,2.403412500000003149e+01,2.600287500000003860e+01,2.600287500000003860e+01,2.511225000000003860e+01,2.151850000000003149e+01,1.653412500000002794e+01,1.076850000000002439e+01,1.909125000000019057e+00,-6.715874999999986272e+00,-1.462212499999998983e+01,-2.180962499999999693e+01,-2.871587500000000404e+01,-3.354400000000000404e+01,-4.074712500000001114e+01,-5.146587500000002535e+01,-6.548150000000003956e+01,-8.434087500000003956e+01,-1.070752500000000538e+02,-1.327158750000000680e+02,-1.595283750000000964e+02,-1.875127500000001248e+02,-2.105596250000001532e+02,-2.249346250000001532e+02,-2.277940000000001532e+02,-2.196377500000001532e+02,-1.998252500000001248e+02,-1.667471250000000964e+02,-1.248877500000000680e+02,-7.773150000000003956e+01,-2.902837500000000404e+01,1.704975000000002794e+01,5.973725000000004570e+01,9.972162500000007412e+01,1.322216250000001025e+02,1.527685000000001025e+02,1.631278750000001025e+02,1.661278750000001025e+02,1.622997500000001025e+02,1.533935000000001025e+02,1.377997500000001025e+02,1.134247500000001025e+02,8.498725000000007412e+01,5.434662500000005991e+01,2.400287500000003149e+01,-6.762749999999986272e+00,-3.929400000000000404e+01,-7.259087500000002535e+01,-1.049033750000000396e+02,-1.320908750000000680e+02,-1.554815000000000680e+02,-1.740440000000000964e+02,-1.899658750000001532e+02,-2.025908750000001532e+02,-2.088565000000001532e+02,-2.104033750000001532e+02,-2.087471250000001532e+02,-2.052940000000001532e+02,-1.992783750000001532e+02,-1.908565000000001532e+02,-1.793252500000000964e+02,-1.652158750000000964e+02,-1.504190000000000680e+02,-1.348565000000000680e+02,-1.177783750000000680e+02,-1.010908750000000680e+02,-8.574712500000003956e+01,-7.263775000000002535e+01,-6.201275000000002535e+01,-5.388775000000002535e+01,-4.729400000000001825e+01,-4.157525000000001114e+01,-3.713775000000000404e+01,-3.315337500000000404e+01,-3.041900000000000404e+01,-2.834087500000000404e+01,-2.637212500000000404e+01,-2.487212500000000404e+01,-2.590337500000000404e+01,-2.773150000000000404e+01,-3.123150000000000404e+01,-3.527837500000000404e+01,-3.857525000000001114e+01,-4.252837500000001114e+01,-4.699712500000002535e+01,-5.060650000000002535e+01,-5.243462500000002535e+01,-5.587212500000002535e+01,-5.827837500000002535e+01,-6.085650000000002535e+01,-6.415337500000002535e+01,-6.548150000000002535e+01,-6.576275000000002535e+01,-6.673150000000002535e+01,-6.738775000000002535e+01,-6.590337500000002535e+01,-6.490337500000002535e+01,-6.255962500000002535e+01,-5.855962500000002535e+01,-5.615337500000002535e+01,-5.440337500000002535e+01,-5.238775000000002535e+01,-5.038775000000002535e+01,-4.754400000000001114e+01,-4.366900000000001114e+01,-4.116900000000000404e+01,-3.974712500000000404e+01,-3.623150000000000404e+01,-3.205962500000000404e+01,-2.632525000000000048e+01,-2.005962499999999693e+01,-1.530962499999999338e+01,-9.668999999999989825e+00,-3.387749999999985384e+00,2.940375000000018613e+00,7.331000000000020833e+00,1.006537500000002261e+01,9.487250000000022609e+00,7.784125000000022609e+00,5.674750000000020833e+00
4.968750000000002665e+00,-2.125000000000002220e+00,-5.703125000000003553e+00,-9.968750000000005329e+00,-8.328125000000003553e+00,-4.281250000000001776e+00,-4.546875000000002665e+00,-3.125000000000002220e+00,-4.531250000000006661e-01,-1.406250000000001332e+00,-1.875000000000002220e-01,-1.390625000000000888e+00,-4.312500000000002665e+00,-4.718750000000003553e+00,-1.546875000000001554e+00,3.406250000000001776e+00,4.390625000000003553e+00,5.984375000000004441e+00,1.531250000000001776e+00,-4.046875000000001776e+00,-2.468750000000001776e+00,-3.671875000000001776e+00,-2.218750000000000888e+00,1.093750000000000000e-01,-2.046875000000001332e+00,-2.312500000000001776e+00,-1.484375000000000888e+00,-1.562500000000011102e-02,2.171875000000001332e+00,3.062500000000002220e+00,2.781250000000001776e+00,1.890625000000001332e+00,1.437500000000001332e+00,3.000000000000001776e+00,4.062500000000002665e+00,3.171875000000002220e+00,1.187500000000000666e+00,-8.750000000000005551e-01,-2.750000000000001776e+00,-2.906250000000001776e+00,4.375000000000002220e-01,-5.625000000000006661e-01,3.437500000000000000e-01,2.718750000000001776e+00,-1.718750000000000888e+00,6.250000000000000000e-02,-1.875000000000000000e-01,-4.484375000000002665e+00,-1.015625000000000666e+00,-3.406250000000001776e+00,-5.625000000000003553e+00,-1.921875000000001332e+00,-4.406250000000002665e+00,-3.281250000000000000e-01,3.437500000000002665e+00,5.937500000000005551e-01,2.843750000000001776e+00,-1.546875000000000888e+00,-4.000000000000002665e+00,-2.140625000000001332e+00,-5.187500000000003553e+00,-4.484375000000003553e+00,-4.484375000000003553e+00,-6.093750000000003553e+00,-2.953125000000001776e+00,1.406250000000004996e-01,2.656250000000002776e-01,2.390625000000000888e+00,1.375000000000000444e+00,-8.437500000000008882e-01,1.968750000000001776e+00,3.328125000000002665e+00,4.625000000000003553e+00,6.781250000000005329e+00,3.625000000000002665e+00,-8.750000000000002220e-01,-2.125000000000000888e+00,-5.203125000000003553e+00,-2.640625000000001776e+00,5.937499999999998890e-01,-8.437500000000009992e-01,1.796875000000000888e+00,1.062500000000000444e+00,3.468750000000002220e+00,7.828125000000005329e+00,8.078125000000005329e+00,6.437500000000003553e+00,-4.218750000000008882e-01,-3.890625000000002665e+00,-6.250000000000003553e+00,-4.750000000000002665e+00,1.296875000000000666e+00,1.125000000000000444e+00,2.703125000000000888e+00,3.078125000000001332e+00,1.000000000000000666e+00,2.828125000000001776e+00,1.625000000000001110e+00,-4.062500000000002220e-01,-1.562500000000001110e+00,-1.062500000000000888e+00,1.640625000000000888e+00,5.156250000000003553e+00,7.203125000000005329e+00,3.984375000000003553e+00,1.296875000000001332e+00,-2.046875000000001332e+00,-2.359375000000001332e+00,1.421875000000000888e+00,2.359375000000001776e+00,3.562500000000002220e+00,1.234375000000000666e+00,-3.062500000000001776e+00,-5.593750000000003553e+00,-7.656250000000005329e+00,-8.125000000000005329e+00,-7.781250000000005329e+00,-5.015625000000003553e+00,-2.718750000000001776e+00,1.453125000000000444e+00,8.218750000000003553e+00,9.906250000000005329e+00,1.114062500000000711e+01,9.515625000000005329e+00,2.078125000000000888e+00,-7.968750000000003331e-01,-2.125000000000000888e+00,-2.625000000000001332e+00,5.000000000000004441e-01,1.546875000000001110e+00,-3.125000000000022204e-02,-1.500000000000000888e+00,-1.875000000000001332e+00,-4.687500000000003553e+00,-3.093750000000001776e+00,2.656250000000002776e-01,1.406250000000001110e+00,9.687500000000005329e+00,1.192187500000000711e+01,1.062500000000000711e+01,9.937500000000007105e+00,6.718750000000008882e-01,-3.484375000000002220e+00,-3.859375000000002220e+00,-5.265625000000003553e+00,-9.218750000000008882e-01,1.515625000000000666e+00,-1.312500000000001776e+00,-2.328125000000002665e+00,-5.703125000000003553e+00,-1.092187500000000711e+01,-8.671875000000005329e+00,-5.656250000000003553e+00,-2.109375000000000888e+00,6.328125000000004441e+00,7.546875000000005329e+00,2.531250000000001332e+00,-2.593750000000002220e+00,-1.526562500000001066e+01,-2.568750000000001776e+01,-2.546875000000001776e+01,-2.270312500000001421e+01,-9.953125000000005329e+00,8.421875000000003553e+00,1.735937500000001066e+01,2.128125000000001421e+01,1.657812500000001066e+01,5.609375000000003553e+00,1.453125000000001110e+00,3.421875000000001776e+00,1.150000000000000711e+01,2.025000000000001066e+01,2.268750000000001421e+01,1.781250000000001066e+01,7.171875000000005329e+00,-4.609375000000001776e+00,-1.326562500000000711e+01,-1.629687500000001066e+01,-1.685937500000001066e+01,-1.321875000000000711e+01,-7.796875000000005329e+00,-4.781250000000003553e+00,-6.406250000000002220e-01,2.000000000000001332e+00,1.593750000000001110e+00,4.109375000000002665e+00,7.375000000000005329e+00,6.437500000000003553e+00,6.421875000000003553e+00,1.406250000000001332e+00,-7.359375000000005329e+00,-7.921875000000005329e+00,-9.125000000000007105e+00,-7.984375000000007105e+00,-2.625000000000002220e+00,-5.218750000000003553e+00,-6.140625000000003553e+00,-4.406250000000001776e+00,-7.656250000000003553e+00,-8.468750000000005329e+00,-8.671875000000005329e+00,-1.209375000000000711e+01,-9.312500000000005329e+00,-4.875000000000002665e+00,-1.890625000000001110e+00,-2.656250000000011102e-01,-4.375000000000003553e+00,-7.093750000000006217e+00,-1.506250000000000888e+01,-1.717187500000000711e+01,-1.598437500000000711e+01,-1.789062500000000711e+01,-5.718750000000003553e+00,4.140625000000002665e+00,1.696875000000001066e+01,3.132812500000001776e+01,3.312500000000002132e+01,3.151562500000002132e+01,2.323437500000001421e+01,1.317187500000000711e+01,6.562500000000003553e+00,2.109375000000001776e+00,5.781250000000004441e-01,1.875000000000001665e-01,1.562500000000001388e-01,1.406250000000001110e-01,2.500000000000001665e-01,3.125000000000002220e-01,3.593750000000002220e-01,4.062500000000003331e-01,2.187500000000001943e-01,1.562500000000001735e-02,-1.718750000000001388e-01,-2.968750000000002220e-01,-2.187500000000001665e-01,-1.093750000000000971e-01,-6.938893903907228378e-18,-6.938893903907228378e-18,-4.687500000000004163e-02,-7.812500000000005551e-02,-1.093750000000000833e-01,-4.687500000000002776e-02,-3.125000000000001388e-02,1.562500000000002082e-02,4.687500000000003469e-02,4.687500000000002776e-02,1.093750000000000833e-01,1.562500000000000694e-02,-1.562500000000000694e-02,-1.562500000000000694e-02,-6.250000000000004163e-02,1.406250000000000833e-01,2.343750000000001388e-01,2.500000000000001110e-01,2.812500000000001665e-01,1.387778780781445676e-17,-1.562500000000001110e-01,-2.500000000000001665e-01,-3.281250000000002220e-01,-9.375000000000005551e-02,3.125000000000003469e-02,1.562500000000001110e-01,2.187500000000001665e-01,9.375000000000005551e-02,1.562500000000001041e-02,-1.093750000000000833e-01,-1.718750000000001110e-01,-1.875000000000001388e-01,-1.718750000000001110e-01,-1.250000000000001110e-01,-1.387778780781445676e-17,1.250000000000000833e-01,2.031250000000001110e-01,3.125000000000002220e-01,1.718750000000001388e-01,1.562500000000001735e-02,-1.093750000000000694e-01,-2.812500000000002220e-01,-1.562500000000001110e-01,6.250000000000005551e-02,2.343750000000001665e-01,4.062500000000003331e-01,3.593750000000002776e-01,1.093750000000000833e-01,-9.375000000000004163e-02,-2.187500000000001110e-01,-2.656250000000001665e-01,-1.093750000000000694e-01,1.562500000000001041e-02,-6.938893903907229918e-18,0.000000000000000000e+00,-9.375000000000008327e-02,-1.250000000000001110e-01,-4.687500000000004163e-02,-6.938893903907228378e-18,6.250000000000004163e-02,4.687500000000003469e-02,1.562500000000001041e-02,4.687500000000004163e-02,7.812500000000006939e-02,1.406250000000001110e-01,1.718750000000001665e-01,1.875000000000001665e-01,3.281250000000002776e-01,1.296875000000000888e+00,3.484375000000001776e+00,7.218750000000003553e+00,1.132812500000000711e+01,1.298437500000001066e+01,1.125000000000000711e+01,5.281250000000003553e+00,-7.812499999999966693e-02,-3.281249999999997224e-01,3.421875000000003997e+00,1.084375000000000888e+01,1.387500000000001066e+01,8.062500000000007105e+00,3.124999999999991118e-01,-7.437500000000006217e+00,-1.134375000000000711e+01,-5.375000000000002665e+00,7.812499999999956979e-02,2.031250000000001332e+00,3.921875000000002220e+00,-7.187500000000000000e-01,-4.843750000000001776e+00,-2.765625000000000888e+00,4.406250000000002665e+00,1.225000000000000711e+01,1.821875000000000711e+01,1.665625000000000711e+01,-1.265625000000000888e+00,-1.362500000000000888e+01,-1.829687500000001066e+01,-1.818750000000001066e+01,1.031250000000000000e+00,9.640625000000007105e+00,4.562500000000002665e+00,-3.437500000000000000e-01,-1.428125000000000888e+01,-1.573437500000001066e+01,-1.203125000000000888e+00,1.357812500000000711e+01,2.326562500000001421e+01,2.403125000000001776e+01,9.375000000000005329e+00,-1.221875000000000533e+01,-2.307812500000001421e+01,-3.159375000000002132e+01,-2.646875000000001421e+01,-1.065625000000000711e+01,-1.203125000000001554e+00,9.875000000000007105e+00,1.268750000000000711e+01,9.921875000000005329e+00,7.218750000000004441e+00,3.562500000000002665e+00,5.000000000000002220e-01,-4.531250000000003553e+00,-3.578125000000003109e+00,-3.984375000000003109e+00,-6.406250000000008882e-01,5.781250000000003553e+00,1.312500000000000666e+00,-6.875000000000009992e-01,-7.171875000000005329e+00,-1.337500000000001066e+01,-8.484375000000005329e+00,-5.921875000000003553e+00,-3.906250000000008882e-01,4.234375000000002665e+00,2.078125000000001776e+00,1.140625000000000666e+00,-2.656250000000002220e-01,-2.671875000000001776e+00,-3.296875000000002220e+00,-3.796875000000002220e+00,-4.546875000000002665e+00,-3.687500000000002220e+00,-2.234375000000001776e+00,-1.093750000000000888e+00,-4.687500000000005551e-02,2.656250000000001665e-01,1.250000000000000833e-01,-4.687500000000004163e-02,-1.562500000000001110e-01,-2.187500000000001665e-01,-2.343750000000001665e-01,-2.031250000000001665e-01,-1.875000000000001388e-01,-4.687500000000003469e-02,6.250000000000004163e-02,1.562500000000001110e-01,-6.250000000000005551e-02,-7.031250000000004441e-01,-1.390625000000000888e+00,-2.078125000000001332e+00,-1.593750000000000888e+00,-3.437500000000002220e-01,8.125000000000005551e-01,6.406250000000004441e-01,-1.437500000000001110e+00,-4.562500000000003553e+00,-8.250000000000005329e+00,-7.390625000000005329e+00,-4.640625000000003553e+00,-6.093750000000006661e-01,4.687500000000003553e+00,2.562500000000001776e+00,-1.500000000000001332e+00,-6.843750000000005329e+00,-1.076562500000000711e+01,-6.328125000000004441e+00,7.812500000000066613e-02,9.000000000000007105e+00,1.385937500000001066e+01,1.312500000000001066e+01,1.162500000000000711e+01,4.375000000000002665e+00,-7.343750000000002220e-01,-5.687500000000002665e+00,-1.192187500000000711e+01,-1.048437500000000711e+01,-9.062500000000005329e+00,-5.515625000000002665e+00,2.328125000000001776e+00,5.609375000000003553e+00,1.135937500000000711e+01,1.650000000000001066e+01,1.339062500000000711e+01,8.671875000000003553e+00,-4.328125000000003553e+00,-1.817187500000001066e+01,-2.239062500000001421e+01,-2.459375000000001421e+01,-1.528125000000000888e+01,-4.734375000000003553e+00,5.312500000000004441e-01,1.337500000000000711e+01,1.804687500000001066e+01,2.129687500000001776e+01,2.473437500000001776e+01,1.203125000000000888e+01,1.578125000000001332e+00,-6.531250000000005329e+00,-1.665625000000001066e+01,-1.353125000000000711e+01,-8.828125000000007105e+00,-6.609375000000004441e+00,3.578125000000001776e+00,9.156250000000005329e+00,1.068750000000000711e+01,1.356250000000000888e+01,6.765625000000004441e+00,-2.375000000000001332e+00,-6.921875000000003553e+00,-1.403125000000000711e+01,-1.557812500000001066e+01,-1.060937500000000711e+01,-6.812500000000004441e+00,6.875000000000004441e-01,7.828125000000005329e+00,8.062500000000005329e+00,5.406250000000003553e+00,3.015625000000001776e+00,-2.500000000000002220e+00,-4.062500000000002665e+00,-1.937500000000001332e+00,-2.687500000000001776e+00,1.765625000000001110e+00,7.750000000000004441e+00,1.128125000000000711e+01,1.453125000000000888e+01,1.212500000000000711e+01,1.968750000000001332e+00,-6.296875000000003553e+00,-1.301562500000000711e+01,-1.492187500000000888e+01,-6.953125000000004441e+00,-9.062500000000011102e-01,4.968750000000002665e+00,7.437500000000004441e+00,3.421875000000002665e+00,-8.125000000000002220e-01,-2.875000000000001776e+00,-3.937500000000001776e+00,-4.031250000000001776e+00,-8.281250000000002220e-01,-2.265625000000001332e+00,-1.296875000000000666e+00,2.984375000000002220e+00,5.750000000000003553e+00,1.107812500000000711e+01,1.145312500000000711e+01,6.921875000000003553e+00,-2.328125000000001332e+00,-9.750000000000007105e+00,-1.348437500000000888e+01,-1.192187500000000711e+01,-1.406250000000000444e+00,4.812500000000003553e+00,1.306250000000000888e+01,1.329687500000000888e+01,3.906250000000002665e+00,-1.562500000000000222e+00,-1.375000000000000888e+01,-1.525000000000001066e+01,-7.593750000000005329e+00,-2.437500000000002665e+00,7.406250000000005329e+00,1.125000000000000711e+01,7.953125000000005329e+00,7.281250000000005329e+00,8.343750000000005329e+00,6.281250000000004441e+00,8.281250000000007105e+00,5.296875000000003553e+00,-4.343750000000003553e+00,-8.156250000000007105e+00,-1.523437500000000888e+01,-1.673437500000001066e+01,-1.042187500000000711e+01,-4.781250000000002665e+00,4.875000000000002665e+00,1.276562500000000711e+01,1.253125000000000711e+01,7.625000000000003553e+00,-1.390625000000001776e+00,-1.201562500000000888e+01,-1.401562500000001066e+01,-1.051562500000000711e+01,-2.578125000000001332e+00,5.468750000000003553e+00,6.515625000000005329e+00,3.531250000000003553e+00,-2.734375000000000888e+00,-4.812500000000002665e+00,-2.812499999999995559e-01,7.718750000000006217e+00,1.381250000000001066e+01,1.409375000000001066e+01,5.953125000000005329e+00,-5.734375000000003553e+00,-9.875000000000007105e+00,-1.160937500000000711e+01,-8.265625000000005329e+00,-7.500000000000001110e-01,-1.562499999999998890e-01,2.500000000000002220e+00,7.859375000000005329e+00,8.328125000000005329e+00,9.250000000000005329e+00,4.937500000000002665e+00,-5.781250000000003553e+00,-1.275000000000000888e+01,-1.540625000000001066e+01,-1.131250000000000711e+01,-3.750000000000004441e-01,9.953125000000007105e+00,1.440625000000001066e+01,1.601562500000001066e+01,9.312500000000005329e+00,-1.562500000000088818e-02,-1.828125000000001776e+00,-9.406250000000007105e+00,-7.843750000000005329e+00,-3.234375000000001776e+00,-5.921875000000003553e+00,2.843750000000001332e+00,3.421875000000001776e+00,2.156250000000001776e+00,3.296875000000002220e+00,-4.468750000000002665e+00,-6.718750000000004441e+00,-6.359375000000004441e+00,-2.218750000000001776e+00,3.703125000000002665e+00,7.046875000000005329e+00,6.671875000000004441e+00,1.671875000000001110e+00,-1.718750000000000888e+00,-4.265625000000002665e+00,-3.015625000000001776e+00,7.187500000000006661e-01,5.156250000000003553e+00,1.095312500000000711e+01,1.350000000000001066e+01,1.053125000000000711e+01,2.468750000000001776e+00,-6.687500000000002665e+00,-1.385937500000000711e+01,-1.050000000000000711e+01,6.093750000000008882e-01,8.406250000000005329e+00,1.360937500000000711e+01,1.009375000000000711e+01,1.375000000000000666e+00,-2.765625000000001776e+00,-1.609375000000000444e+00,1.796875000000001998e+00,5.562500000000004441e+00,9.765625000000007105e+00,8.468750000000005329e+00,7.968750000000003553e+00,1.006250000000000533e+01,7.093750000000004441e+00,6.906250000000005329e+00,6.953125000000006217e+00,1.390625000000002220e+00,4.531250000000002220e-01,-2.265625000000002665e+00,-7.593750000000007105e+00,-7.109375000000006217e+00,-1.234375000000000711e+01,-1.889062500000001066e+01,-2.273437500000001421e+01,-2.959375000000002132e+01,-2.854687500000002132e+01,-2.084375000000001421e+01,-1.484375000000000888e+01,-5.109375000000003553e+00,3.703125000000002665e+00,1.115625000000000711e+01,2.821875000000001421e+01,4.195312500000002842e+01,4.804687500000002842e+01,4.379687500000002842e+01,1.684375000000001066e+01,-1.532812500000000888e+01,-4.318750000000002842e+01,-6.056250000000004263e+01,-5.589062500000004263e+01,-4.017187500000002842e+01,-2.284375000000001776e+01,-8.125000000000007105e+00,-7.656250000000011102e-01,4.843750000000001665e-01,4.062500000000001665e-01,-1.406250000000000555e-01,-3.953125000000001776e+00,-5.890625000000002665e+00,-4.171875000000001776e+00,-7.812500000000000000e-01,7.500000000000004441e+00,1.434375000000000888e+01,1.542187500000001066e+01,1.312500000000000711e+01,7.906250000000004441e+00,2.796875000000001776e+00,-9.687500000000003331e-01,-2.281250000000000888e+00,-2.031250000000000888e+00,1.031250000000000888e+00,6.546875000000003553e+00,1.345312500000000711e+01,1.843750000000001066e+01,1.709375000000001066e+01,1.523437500000001066e+01,8.718750000000005329e+00,6.046875000000003553e+00,9.703125000000005329e+00,9.343750000000007105e+00,1.312500000000000888e+01,9.437500000000007105e+00,3.390625000000003109e+00,3.156250000000002220e+00,7.031249999999998890e-01,7.546875000000005329e+00,1.140625000000000711e+01,1.129687500000000711e+01,1.076562500000000711e+01,2.156250000000001776e+00,-5.937500000000000000e-01,-4.281250000000003553e+00,-5.953125000000003553e+00,-4.078125000000003553e+00,-9.046875000000007105e+00,-1.003125000000000711e+01,-1.304687500000000711e+01,-1.639062500000001066e+01,-1.221875000000000711e+01,-9.781250000000005329e+00,-5.671875000000002665e+00,4.375000000000007772e-01,8.593750000000008882e-01,-5.000000000000002220e-01,-1.187500000000000666e+00,-2.500000000000001776e+00,-1.812500000000001554e+00,3.328125000000002665e+00,5.250000000000003553e+00,1.703125000000001110e+00,-2.656250000000004996e-01,-8.562500000000005329e+00,-1.176562500000000711e+01,-6.671875000000004441e+00,-5.203125000000003553e+00,3.531250000000002220e+00,4.656250000000002665e+00,3.125000000000044409e-02,-1.453125000000000222e+00,-1.064062500000000711e+01,-1.096875000000000711e+01,-8.703125000000003553e+00,-7.765625000000004441e+00,1.687500000000000888e+00,3.578125000000002665e+00,5.093750000000002665e+00,8.281250000000005329e+00,4.515625000000003553e+00,6.671875000000003553e+00,7.140625000000004441e+00,6.156250000000004441e+00,5.906250000000003553e+00,1.984375000000001332e+00,1.609375000000000888e+00,-1.171875000000000888e+00,7.656250000000008882e-01,3.515625000000002665e+00,1.703125000000001332e+00,3.468750000000002220e+00,1.515625000000000888e+00,-7.187500000000003331e-01,-1.718750000000001388e-01,2.187500000000001943e-01,-7.500000000000003331e-01,-1.093750000000000666e+00,-2.000000000000001332e+00,-5.968750000000004441e+00,-4.671875000000003553e+00,-2.593750000000002220e+00,4.374999999999995559e-01,6.921875000000003553e+00,6.718750000000003553e+00,5.296875000000003553e+00,1.562500000000001554e+00,-2.640625000000001776e+00,-1.875000000000001332e+00,-3.562500000000002220e+00,-1.656250000000001110e+00,-2.703125000000001776e+00,-4.437500000000003553e+00,3.125000000000002220e-01,-2.812500000000000000e-01,2.578125000000001776e+00,2.890625000000001776e+00,-3.250000000000002665e+00,-2.281250000000001776e+00,-3.156250000000002665e+00,-1.859375000000001998e+00,4.750000000000003553e+00,5.500000000000003553e+00,6.328125000000003553e+00,9.187500000000007105e+00,6.484375000000004441e+00,4.765625000000003553e+00,3.265625000000002220e+00,-4.921875000000002665e+00,-7.734375000000003553e+00,-9.468750000000005329e+00,-9.234375000000005329e+00,-2.562500000000001332e+00,-5.000000000000003331e-01,2.265625000000001332e+00,-3.124999999999995559e-01,-3.750000000000001776e+00,-4.750000000000002665e+00,-4.937500000000002665e+00,1.093750000000001110e+00,2.468750000000002220e+00,6.359375000000003553e+00,5.406250000000003553e+00,2.062500000000000888e+00,4.171875000000002665e+00,6.406250000000005551e-01,2.531250000000001776e+00,3.390625000000002220e+00,2.156250000000001332e+00,4.437500000000002665e+00,3.484375000000002665e+00,1.734375000000001332e+00,-1.031250000000000444e+00,-5.562500000000004441e+00,-7.718750000000006217e+00,-6.750000000000005329e+00,-4.765625000000003553e+00,1.078125000000000444e+00,2.640625000000001776e+00,2.046875000000001332e+00,2.421875000000001332e+00,-1.437500000000001110e+00,1.171875000000000000e+00,3.343750000000001332e+00,3.234375000000001332e+00,4.046875000000001776e+00,-2.312500000000001776e+00,-5.734375000000003553e+00,-8.343750000000005329e+00,-9.796875000000007105e+00,-4.796875000000003553e+00,-1.203125000000000666e+00,4.859375000000002665e+00,8.859375000000005329e+00,1.064062500000000711e+01,9.218750000000005329e+00,3.687500000000001776e+00,2.890625000000001332e+00,-2.203125000000001776e+00,-3.562500000000002220e+00,-2.453125000000000888e+00,-7.750000000000003553e+00,-5.625000000000003553e+00,-5.265625000000003553e+00,-3.375000000000001776e+00,3.406250000000001776e+00,4.359375000000002665e+00,7.875000000000003553e+00,7.078125000000003553e+00,3.250000000000001776e+00,9.375000000000006661e-01,-5.125000000000002665e+00,-8.328125000000005329e+00,-9.187500000000007105e+00,-7.109375000000005329e+00,-1.781250000000001332e+00,3.140625000000001776e+00,7.125000000000004441e+00,6.234375000000003553e+00,2.890625000000001776e+00,-2.343750000000000000e-01,-4.562500000000002665e+00,-3.812500000000002665e+00,-1.921875000000001110e+00,-1.312500000000000666e+00,4.375000000000001110e-01,-2.765625000000001776e+00,-4.968750000000003553e+00,-4.375000000000002665e+00,-3.328125000000001776e+00,1.562500000000000666e+00,3.843750000000002220e+00,2.609375000000001776e+00,2.968749999999997780e-01,-3.203125000000002220e+00,-4.406250000000002665e+00,-3.140625000000001776e+00,-7.812500000000004441e-01,-2.343750000000002776e-01,-9.375000000000011102e-02,2.343750000000001943e-01,2.656250000000002220e-01,3.109375000000001776e+00,4.203125000000001776e+00,2.390625000000001332e+00,-1.296875000000000888e+00,-6.437500000000003553e+00,-8.734375000000005329e+00,-9.031250000000005329e+00,-4.531250000000002665e+00,-7.031250000000008882e-01,2.250000000000000888e+00,7.265625000000004441e+00,6.625000000000003553e+00,8.343750000000005329e+00,8.734375000000005329e+00,5.906250000000003553e+00,4.984375000000003553e+00,1.140625000000000888e+00,-4.031250000000003553e+00,-9.156250000000007105e+00,-1.042187500000000711e+01,-8.578125000000005329e+00,-1.406250000000000000e-01,1.076562500000000711e+01,1.360937500000001066e+01,1.232812500000000888e+01,1.312500000000000888e+00,-1.279687500000000888e+01,-1.720312500000001066e+01,-1.640625000000001066e+01,-6.781250000000004441e+00,8.234375000000007105e+00,1.620312500000001066e+01,2.057812500000001421e+01,2.159375000000001421e+01,1.481250000000000888e+01,8.859375000000007105e+00,1.437500000000000888e+00,-8.140625000000003553e+00,-1.214062500000000711e+01,-1.223437500000000711e+01,-6.109375000000002665e+00,2.109375000000001332e+00,8.062500000000005329e+00,1.057812500000000711e+01,7.859375000000003553e+00,1.006250000000000711e+01,1.998437500000001421e+01,3.128125000000002487e+01,4.198437500000002842e+01,3.504687500000002842e+01,4.343750000000005329e+00,-3.598437500000002842e+01,-8.085937500000005684e+01,-1.059375000000000853e+02,-9.971875000000007105e+01,-7.353125000000005684e+01,-3.067187500000002842e+01,5.656250000000000000e+00,2.106250000000001066e+01,2.298437500000001421e+01,1.659375000000001066e+01,1.290625000000001066e+01,2.204687500000001776e+01,3.710937500000002842e+01,4.556250000000002842e+01,4.976562500000004263e+01,4.589062500000002842e+01,3.396875000000002132e+01,2.737500000000002132e+01,1.628125000000001066e+01,5.281250000000003553e+00,2.343750000000000888e+00,-6.406250000000011102e-01,6.140625000000004441e+00,1.103125000000000711e+01,8.312500000000003553e+00,1.796875000000000888e+00,-1.345312500000000711e+01,-2.220312500000001421e+01,-2.706250000000001776e+01,-2.843750000000002132e+01,-2.307812500000001776e+01,-2.145312500000001421e+01,-1.700000000000001066e+01,-1.001562500000000711e+01,-6.671875000000004441e+00,-2.687500000000001776e+00,-1.890625000000001110e+00,-7.437500000000003553e+00,-1.178125000000000711e+01,-1.595312500000001066e+01,-1.850000000000001066e+01,-1.156250000000000711e+01,-1.890625000000001554e+00,1.054687500000000711e+01,2.307812500000001421e+01,2.434375000000001776e+01,2.134375000000001421e+01,1.178125000000000711e+01,-1.437500000000000222e+00,-5.968750000000003553e+00,-9.906250000000007105e+00,-7.640625000000005329e+00,1.375000000000000666e+00,5.421875000000003553e+00,1.257812500000000711e+01,1.595312500000001066e+01,1.104687500000000711e+01,7.750000000000005329e+00,3.750000000000013323e-01,-5.578125000000002665e+00,-6.281250000000003553e+00,-5.515625000000003553e+00,-2.421875000000001776e+00,1.250000000000001110e-01,2.703125000000001776e+00,1.828125000000001110e+00,-1.562500000000011102e-02,2.500000000000000555e-01,-1.265625000000000666e+00,-1.875000000000000888e+00,-1.343750000000000666e+00,-5.000000000000002665e+00,-8.656250000000005329e+00,-7.265625000000005329e+00,-5.640625000000003553e+00,-2.968750000000004441e-01,6.515625000000003553e+00,6.234375000000003553e+00,2.984375000000001776e+00,-4.062500000000000000e-01,-3.718750000000001776e+00,-4.062500000000002665e+00,-5.625000000000004441e-01,6.250000000000011102e-02,-1.546875000000000888e+00,-8.125000000000004441e-01,-2.734375000000001332e+00,-3.343750000000001776e+00,-2.234375000000001332e+00,-3.921875000000001776e+00,-4.750000000000002665e+00,-1.468750000000000666e+00,2.703125000000002665e+00,6.937500000000004441e+00,1.489062500000001066e+01,1.634375000000001066e+01,1.498437500000001066e+01,1.434375000000000888e+01
5.624999999999991118e-01,-3.125000000000008882e-01,8.750000000000008882e-01,-1.731250000000000711e+01,-1.187500000000000711e+01,1.562500000000000711e+01,1.237500000000000711e+01,-9.062500000000003553e+00,-1.562500000000000711e+01,-5.062500000000002665e+00,1.668750000000000711e+01,1.693750000000000711e+01,-1.243750000000000711e+01,-2.237500000000001066e+01,-1.000000000000000000e+00,1.162500000000000533e+01,1.025000000000000355e+01,6.187500000000002665e+00,-8.125000000000003553e+00,-8.312500000000003553e+00,5.000000000000001776e+00,-4.062500000000001776e+00,-5.125000000000001776e+00,1.356250000000000533e+01,2.875000000000000000e+00,-1.750000000000000711e+01,-1.500000000000000000e+00,1.362500000000000533e+01,-3.937500000000001776e+00,-8.937500000000003553e+00,1.243750000000000711e+01,1.037500000000000711e+01,-1.431250000000000711e+01,-1.262500000000000711e+01,1.100000000000000533e+01,1.793750000000000711e+01,1.812500000000000888e+00,-1.656250000000000711e+01,-1.218750000000000355e+01,1.143750000000000711e+01,1.293750000000000711e+01,-9.000000000000005329e+00,-7.875000000000004441e+00,4.062500000000001776e+00,2.562500000000001332e+00,6.312500000000001776e+00,-1.187500000000001776e+00,-1.418750000000000711e+01,1.062500000000000000e+00,1.187500000000000533e+01,-2.500000000000000000e-01,-9.625000000000003553e+00,-7.250000000000002665e+00,4.062500000000000888e+00,4.937500000000001776e+00,5.000000000000003331e-01,6.062500000000001776e+00,-1.062500000000000888e+00,-1.087500000000000355e+01,-3.000000000000000888e+00,6.000000000000002665e+00,6.125000000000002665e+00,-3.937500000000001776e+00,-1.131250000000000355e+01,-3.562500000000001332e+00,3.625000000000000888e+00,6.812500000000003553e+00,7.500000000000003553e+00,-7.937500000000001776e+00,-1.206250000000000355e+01,1.012500000000000355e+01,9.625000000000003553e+00,-1.106250000000000355e+01,-3.125000000000000888e+00,1.631250000000000711e+01,8.812500000000003553e+00,-1.293750000000000711e+01,-1.581250000000000711e+01,2.500000000000001776e+00,9.750000000000003553e+00,4.937500000000001776e+00,2.937500000000001332e+00,-9.875000000000003553e+00,-1.343750000000000533e+01,9.437500000000005329e+00,2.012500000000001066e+01,3.500000000000001776e+00,-7.500000000000003553e+00,-4.750000000000002665e+00,-7.625000000000003553e+00,-4.125000000000001776e+00,6.750000000000002665e+00,6.000000000000001776e+00,3.625000000000001332e+00,-2.750000000000000888e+00,-1.181250000000000533e+01,7.500000000000000000e-01,1.693750000000000711e+01,5.937500000000001776e+00,-1.412500000000000533e+01,-1.193750000000000355e+01,5.000000000000002665e+00,1.025000000000000533e+01,2.562500000000000888e+00,1.875000000000000666e+00,5.875000000000002665e+00,-6.562500000000001776e+00,-1.593750000000000711e+01,1.875000000000000000e+00,1.843750000000000711e+01,5.937500000000003553e+00,-1.362500000000000711e+01,-4.937500000000003553e+00,1.118750000000000533e+01,-2.562500000000000000e+00,-1.587500000000000711e+01,2.000000000000000000e+00,1.006250000000000355e+01,-9.437500000000005329e+00,-8.625000000000003553e+00,9.812500000000003553e+00,6.375000000000003553e+00,1.062500000000000888e+00,7.687500000000003553e+00,5.500000000000001776e+00,-4.937500000000001776e+00,-1.362500000000000533e+01,-5.187500000000001776e+00,1.575000000000000888e+01,1.006250000000000711e+01,-1.281250000000000711e+01,-7.562500000000004441e+00,7.750000000000003553e+00,1.750000000000001332e+00,-3.625000000000001776e+00,-2.687500000000001332e+00,-4.000000000000001776e+00,1.687500000000000888e+00,7.187500000000003553e+00,1.100000000000000533e+01,7.625000000000003553e+00,-6.375000000000003553e+00,-6.312500000000003553e+00,-2.062500000000000888e+00,-5.500000000000002665e+00,3.500000000000000888e+00,8.250000000000003553e+00,-2.562500000000000000e+00,-3.437500000000000000e+00,1.875000000000003331e-01,-1.375000000000000888e+00,-2.562500000000001776e+00,-1.068750000000000355e+01,-6.937500000000002665e+00,1.281250000000000711e+01,1.025000000000000533e+01,-8.125000000000002220e-01,2.250000000000000888e+00,-4.187500000000002665e+00,-1.000000000000000533e+01,-8.812500000000003553e+00,-1.793750000000001066e+01,-1.025000000000000533e+01,9.750000000000005329e+00,9.562500000000005329e+00,1.556250000000000711e+01,2.287500000000001421e+01,-5.312500000000001776e+00,-2.962500000000001421e+01,-8.062500000000003553e+00,1.956250000000001066e+01,1.456250000000000711e+01,4.250000000000001776e+00,9.500000000000005329e+00,7.250000000000003553e+00,-6.812500000000003553e+00,-1.237500000000000711e+01,-8.687500000000003553e+00,-1.875000000000001332e+00,4.625000000000001776e+00,-4.562500000000001776e+00,-1.381250000000000711e+01,4.312500000000000000e+00,1.618750000000000711e+01,-1.187500000000000888e+00,-1.081250000000000533e+01,-3.562500000000001776e+00,4.750000000000002665e+00,1.506250000000000711e+01,1.137500000000000355e+01,-8.937500000000003553e+00,-2.118750000000000711e+01,-1.350000000000000711e+01,1.393750000000000711e+01,2.150000000000001066e+01,-1.056250000000000355e+01,-2.081250000000001066e+01,6.250000000000000000e-02,6.687500000000003553e+00,7.687500000000003553e+00,1.062500000000000000e+00,-2.043750000000001066e+01,-1.325000000000000533e+01,1.206250000000000711e+01,6.000000000000003553e+00,-4.812500000000002665e+00,7.312500000000002665e+00,1.437500000000000888e+00,-2.087500000000001066e+01,-5.750000000000003553e+00,1.137500000000000711e+01,-6.812500000000002665e+00,-1.575000000000000711e+01,-7.875000000000003553e+00,7.000000000000003553e+00,2.237500000000001066e+01,1.900000000000001066e+01,7.312500000000003553e+00,1.500000000000000888e+00,1.250000000000000833e-01,2.500000000000001665e-01,6.250000000000005551e-02,-6.250000000000002776e-02,6.250000000000002776e-02,0.000000000000000000e+00,0.000000000000000000e+00,1.875000000000000833e-01,0.000000000000000000e+00,-1.250000000000000555e-01,2.500000000000001110e-01,4.375000000000002220e-01,1.875000000000001110e-01,-3.125000000000001665e-01,-6.250000000000003331e-01,-1.875000000000001110e-01,4.375000000000002220e-01,3.125000000000001665e-01,-1.875000000000001110e-01,-1.875000000000001110e-01,0.000000000000000000e+00,-6.250000000000002776e-02,0.000000000000000000e+00,1.250000000000000555e-01,0.000000000000000000e+00,-1.250000000000000555e-01,0.000000000000000000e+00,6.250000000000002776e-02,6.250000000000002776e-02,2.500000000000001110e-01,-6.250000000000000000e-02,-5.625000000000002220e-01,-6.250000000000005551e-02,5.625000000000002220e-01,3.125000000000001665e-01,-1.875000000000001110e-01,-1.250000000000000833e-01,3.125000000000001110e-01,-6.250000000000005551e-02,-6.875000000000004441e-01,-1.875000000000001110e-01,4.375000000000002220e-01,3.125000000000001110e-01,0.000000000000000000e+00,-1.250000000000000555e-01,-6.250000000000002776e-02,6.250000000000002776e-02,6.250000000000002776e-02,-1.875000000000001110e-01,-2.500000000000001110e-01,1.250000000000000833e-01,1.875000000000001110e-01,-2.500000000000001110e-01,-1.250000000000000555e-01,4.375000000000002220e-01,3.125000000000001665e-01,-6.250000000000002776e-02,-1.875000000000000833e-01,-2.500000000000001110e-01,-1.250000000000000555e-01,-6.250000000000002776e-02,6.250000000000002776e-02,4.375000000000002220e-01,3.125000000000001665e-01,-6.250000000000004163e-02,-1.387778780781445676e-17,-2.500000000000001110e-01,-5.625000000000002220e-01,1.250000000000001110e-01,5.625000000000003331e-01,-6.250000000000000000e-02,-2.500000000000001110e-01,1.250000000000000555e-01,-6.250000000000005551e-02,-3.750000000000002220e-01,6.250000000000000000e-02,5.000000000000002220e-01,6.250000000000000000e-02,-3.750000000000002220e-01,-1.250000000000000833e-01,1.250000000000000555e-01,1.250000000000000555e-01,1.875000000000000833e-01,1.250000000000000555e-01,-1.875000000000001110e-01,-2.500000000000001110e-01,1.875000000000000833e-01,6.250000000000003331e-01,8.125000000000004441e-01,3.562500000000001776e+00,1.012500000000000533e+01,1.175000000000000533e+01,-6.250000000000008882e-01,-1.868750000000001066e+01,-1.668750000000000711e+01,1.050000000000000533e+01,2.887500000000001421e+01,1.825000000000001066e+01,-9.312500000000003553e+00,-2.962500000000001421e+01,-1.312500000000000533e+01,1.793750000000000711e+01,1.081250000000000533e+01,-7.250000000000003553e+00,-1.500000000000000888e+00,1.250000000000000000e-01,3.250000000000000888e+00,9.000000000000003553e+00,-1.843750000000000711e+01,-2.856250000000001066e+01,3.006250000000001066e+01,5.593750000000002132e+01,-3.500000000000003553e+00,-3.950000000000001421e+01,-2.300000000000001066e+01,-5.750000000000003553e+00,6.125000000000002665e+00,1.031250000000000355e+01,2.425000000000000711e+01,2.256250000000000711e+01,-3.412500000000001421e+01,-5.106250000000002132e+01,7.750000000000003553e+00,3.200000000000001421e+01,1.350000000000000355e+01,1.487500000000000711e+01,6.937500000000004441e+00,-1.550000000000000711e+01,-1.256250000000000711e+01,-8.062500000000003553e+00,-1.562500000000000711e+01,-1.512500000000000711e+01,4.312500000000000888e+00,2.962500000000001421e+01,1.393750000000000888e+01,-2.262500000000000711e+01,-1.137500000000000533e+01,2.081250000000000711e+01,1.100000000000000711e+01,-1.118750000000000355e+01,-6.937500000000003553e+00,-5.000000000000001776e+00,-4.687500000000001776e+00,8.375000000000003553e+00,1.343750000000000711e+01,4.500000000000002665e+00,-1.143750000000000355e+01,-1.393750000000000533e+01,-3.937500000000001776e+00,-2.500000000000000888e+00,6.625000000000002665e+00,1.375000000000000533e+01,-4.500000000000001776e+00,-1.243750000000000533e+01,3.875000000000001776e+00,8.125000000000003553e+00,-2.750000000000000888e+00,-5.812500000000002665e+00,-1.937500000000000888e+00,-1.875000000000000833e-01,6.250000000000002776e-02,3.750000000000001665e-01,3.125000000000001110e-01,0.000000000000000000e+00,-6.250000000000002776e-02,-6.250000000000002776e-02,-1.250000000000000555e-01,0.000000000000000000e+00,6.250000000000002776e-02,-1.875000000000001110e-01,-1.875000000000001110e-01,1.250000000000000555e-01,0.000000000000000000e+00,-1.250000000000000555e-01,2.500000000000001110e-01,3.125000000000001110e-01,-6.250000000000002776e-02,-1.875000000000000833e-01,-1.312500000000000444e+00,-3.562500000000001332e+00,-9.375000000000004441e-01,5.937500000000001776e+00,5.250000000000001776e+00,-3.312500000000001332e+00,-6.812500000000003553e+00,-5.375000000000001776e+00,-4.937500000000001776e+00,2.937500000000000888e+00,7.562500000000002665e+00,-1.750000000000000888e+00,2.812500000000001776e+00,1.175000000000000711e+01,-1.131250000000000355e+01,-3.262500000000001421e+01,-2.937500000000001776e+00,3.668750000000001421e+01,1.775000000000000711e+01,-2.156250000000001066e+01,-1.062500000000000355e+01,2.087500000000001066e+01,1.450000000000000711e+01,-1.575000000000000711e+01,-1.581250000000000711e+01,4.812500000000001776e+00,-1.937500000000000888e+00,-9.437500000000003553e+00,7.562500000000002665e+00,9.062500000000003553e+00,-6.125000000000001776e+00,-5.187500000000001776e+00,1.200000000000000533e+01,2.175000000000000711e+01,5.875000000000000888e+00,-1.668750000000001066e+01,-2.500000000000001421e+01,-1.737500000000000711e+01,5.562500000000001776e+00,1.512500000000000711e+01,2.687500000000001332e+00,-9.625000000000005329e+00,-1.112500000000000533e+01,1.500000000000000533e+01,3.325000000000001421e+01,8.125000000000003553e+00,-1.037500000000000711e+01,-1.393750000000000711e+01,-1.725000000000000711e+01,4.750000000000003553e+00,1.568750000000000888e+01,-9.000000000000005329e+00,-1.762500000000001066e+01,1.000000000000000888e+00,2.043750000000001066e+01,1.850000000000000711e+01,-7.187500000000003553e+00,-1.212500000000000533e+01,3.687500000000001332e+00,-3.250000000000001776e+00,-8.687500000000003553e+00,1.250000000000000444e+00,-6.750000000000002665e+00,-1.162500000000000355e+01,9.250000000000003553e+00,2.168750000000000711e+01,7.312500000000002665e+00,-1.600000000000000711e+01,-1.775000000000000711e+01,1.137500000000000533e+01,1.850000000000000711e+01,-1.256250000000000711e+01,-1.600000000000000711e+01,8.062500000000003553e+00,8.937500000000003553e+00,2.875000000000000888e+00,1.106250000000000355e+01,1.000000000000000355e+01,-7.250000000000002665e+00,-1.881250000000000711e+01,-8.625000000000003553e+00,3.562500000000000888e+00,-3.750000000000008882e-01,3.687500000000002220e+00,1.150000000000000711e+01,1.312500000000000888e+00,-5.625000000000002665e+00,-2.937500000000001332e+00,-6.625000000000001776e+00,-7.500000000000000000e-01,1.137500000000000355e+01,1.874999999999991118e-01,-1.050000000000000533e+01,-1.937500000000000888e+00,2.562500000000000888e+00,3.500000000000000888e+00,8.687500000000003553e+00,9.562500000000003553e+00,3.500000000000001776e+00,-7.375000000000003553e+00,-2.006250000000001066e+01,-1.225000000000000711e+01,1.262500000000000355e+01,1.250000000000000355e+01,-6.750000000000003553e+00,-4.250000000000001776e+00,2.237500000000000711e+01,1.762500000000000711e+01,-2.718750000000001421e+01,-2.956250000000001421e+01,4.500000000000001776e+00,1.075000000000000355e+01,7.375000000000002665e+00,7.125000000000002665e+00,-5.000000000000000000e-01,-2.125000000000000888e+00,-3.437500000000001776e+00,-2.687500000000001332e+00,1.456250000000000711e+01,1.337500000000000711e+01,-9.625000000000003553e+00,-1.087500000000000355e+01,-1.500000000000000666e+00,-2.687500000000000888e+00,-8.437500000000003553e+00,-7.437500000000003553e+00,5.750000000000002665e+00,9.062500000000003553e+00,1.562500000000000888e+00,1.087500000000000355e+01,1.400000000000000533e+01,-1.437500000000000533e+01,-2.981250000000001421e+01,-6.062500000000003553e+00,1.768750000000000711e+01,9.875000000000003553e+00,-5.500000000000001776e+00,1.437500000000000888e+00,1.081250000000000533e+01,-4.500000000000002665e+00,-2.512500000000001421e+01,-9.937500000000003553e+00,2.900000000000001421e+01,3.187500000000001421e+01,-4.125000000000001776e+00,-2.043750000000000711e+01,-1.256250000000000533e+01,-8.875000000000003553e+00,7.937500000000005329e+00,1.762500000000000711e+01,-8.375000000000005329e+00,-1.381250000000000711e+01,7.187500000000003553e+00,2.437500000000001776e+00,1.687500000000001776e+00,2.150000000000001066e+01,7.125000000000003553e+00,-2.968750000000001066e+01,-2.200000000000000711e+01,1.356250000000000533e+01,8.187500000000003553e+00,-1.556250000000000711e+01,7.437500000000003553e+00,3.287500000000001421e+01,5.000000000000000000e-01,-2.287500000000001066e+01,2.500000000000000000e-01,7.000000000000003553e+00,-4.687500000000001776e+00,-6.750000000000003553e+00,5.000000000000000000e-01,6.000000000000003553e+00,-6.750000000000003553e+00,-1.562500000000001776e+00,1.881250000000000711e+01,1.625000000000000000e+00,-1.837500000000000711e+01,-5.750000000000001776e+00,3.125000000000000000e-01,-4.375000000000001776e+00,1.362500000000000711e+01,2.162500000000001066e+01,-1.056250000000000355e+01,-2.406250000000001066e+01,5.812500000000003553e+00,1.643750000000000711e+01,-8.000000000000001776e+00,-1.037500000000000355e+01,8.687500000000003553e+00,5.437500000000002665e+00,3.437500000000001776e+00,1.943750000000001066e+01,4.125000000000003553e+00,-3.131250000000001421e+01,-2.175000000000001066e+01,7.125000000000003553e+00,1.306250000000000711e+01,2.075000000000001066e+01,1.631250000000000711e+01,-1.750000000000001066e+01,-2.712500000000001421e+01,2.750000000000001776e+00,2.050000000000001066e+01,9.375000000000005329e+00,-8.625000000000003553e+00,-1.118750000000000355e+01,1.087500000000000355e+01,1.725000000000000711e+01,-7.562500000000001776e+00,-8.250000000000001776e+00,1.087500000000000533e+01,5.125000000000001776e+00,-4.625000000000001776e+00,-1.187499999999999556e+00,4.375000000000009437e-01,-4.687500000000002665e+00,-8.125000000000005329e+00,4.562500000000001776e+00,7.125000000000003553e+00,-1.893750000000000711e+01,-2.625000000000001066e+01,-7.250000000000003553e+00,3.375000000000001776e+00,1.068750000000000533e+01,9.437500000000003553e+00,-1.143750000000000533e+01,-1.950000000000000711e+01,9.125000000000003553e+00,4.893750000000002132e+01,4.125000000000002132e+01,-7.000000000000000000e+00,-1.687500000000000711e+01,-4.875000000000001776e+00,-2.987500000000001421e+01,-4.737500000000002132e+01,-1.468750000000000355e+01,2.506250000000001066e+01,2.200000000000000711e+01,-1.306250000000000533e+01,-2.418750000000001066e+01,4.875000000000002665e+00,2.087500000000001421e+01,2.937500000000002665e+00,-9.750000000000003553e+00,-1.218750000000000533e+01,-1.206250000000000711e+01,8.875000000000003553e+00,2.387500000000001421e+01,4.312500000000001776e+00,-8.125000000000003553e+00,5.312500000000002665e+00,4.625000000000001776e+00,-8.750000000000005329e+00,-6.875000000000008882e-01,8.625000000000003553e+00,-5.187500000000001776e+00,-1.143750000000000533e+01,5.375000000000001776e+00,1.556250000000000711e+01,1.187500000000000533e+01,6.812500000000002665e+00,-4.500000000000002665e+00,-9.750000000000005329e+00,-1.187500000000001332e+00,8.250000000000003553e+00,1.375000000000000711e+01,6.875000000000003553e+00,-2.937500000000001332e+00,-7.437500000000003553e+00,-9.000000000000003553e+00,3.000000000000000888e+00,1.337500000000000711e+01,9.500000000000005329e+00,1.312500000000000000e+00,-2.937500000000001776e+00,-9.375000000000001110e-01,-4.625000000000002665e+00,-5.562500000000002665e+00,3.750000000000002665e+00,6.875000000000003553e+00,-2.125000000000001332e+00,-1.550000000000000711e+01,-8.875000000000003553e+00,7.750000000000002665e+00,-2.250000000000001776e+00,-1.212500000000000533e+01,1.437500000000000000e+00,8.250000000000003553e+00,6.250000000000003553e+00,1.562500000000000888e+00,-1.400000000000000711e+01,-1.156250000000000711e+01,1.300000000000000711e+01,1.125000000000000711e+01,-4.437500000000001776e+00,2.625000000000000444e+00,2.812500000000000000e+00,-1.231250000000000533e+01,-1.581250000000000711e+01,-1.000000000000001776e+00,1.687500000000000711e+01,9.062500000000003553e+00,-6.125000000000002665e+00,-4.437500000000001776e+00,-2.187500000000000888e+00,-1.687500000000000666e+00,-6.062500000000002665e+00,-7.687500000000003553e+00,2.437500000000000888e+00,5.687500000000002665e+00,6.687500000000003553e+00,3.500000000000001776e+00,-8.187500000000003553e+00,-1.375000000000001776e+00,9.312500000000003553e+00,2.562500000000000888e+00,7.500000000000000000e-01,5.000000000000001776e+00,-4.250000000000002665e+00,-8.750000000000003553e+00,7.062500000000002665e+00,4.062500000000001776e+00,-8.625000000000003553e+00,9.000000000000005329e+00,1.143750000000000711e+01,-1.631250000000000711e+01,-1.118750000000000533e+01,1.762500000000000711e+01,9.625000000000005329e+00,-1.556250000000000711e+01,-9.187500000000003553e+00,1.362500000000000711e+01,9.312500000000003553e+00,-1.968750000000000711e+01,-1.743750000000000711e+01,1.775000000000000711e+01,2.231250000000000711e+01,-2.187500000000001776e+00,-1.093750000000000533e+01,-4.937500000000001776e+00,-2.812500000000001332e+00,2.750000000000000888e+00,1.131250000000000533e+01,-9.375000000000000000e-01,-1.443750000000000711e+01,-5.062500000000002665e+00,5.437500000000002665e+00,9.000000000000003553e+00,4.687500000000002665e+00,-3.375000000000001776e+00,-6.062500000000003553e+00,-9.000000000000003553e+00,3.750000000000017764e-01,1.231250000000000711e+01,1.562500000000001776e+00,-3.375000000000001776e+00,3.625000000000000888e+00,-2.000000000000000888e+00,2.687500000000001776e+00,1.331250000000000711e+01,-2.375000000000000888e+00,-1.412500000000000533e+01,-3.625000000000000888e+00,1.062500000000000444e+00,-5.312500000000001776e+00,-1.687500000000000444e+00,1.193750000000000533e+01,6.625000000000002665e+00,-9.250000000000003553e+00,-8.500000000000003553e+00,-6.875000000000004441e-01,-1.312500000000000444e+00,8.125000000000008882e-01,1.243750000000000533e+01,6.187500000000001776e+00,-1.012500000000000533e+01,-7.750000000000003553e+00,5.062500000000001776e+00,1.293750000000000711e+01,3.125000000000000000e-01,-1.412500000000000711e+01,-1.000000000000000000e+00,1.381250000000000711e+01,5.562500000000002665e+00,-5.875000000000002665e+00,-4.812500000000001776e+00,-1.875000000000000888e+00,-3.500000000000001776e+00,-2.500000000000001332e+00,-6.250000000000001110e-01,6.250000000000011102e-02,1.018750000000000355e+01,9.062500000000003553e+00,-1.387500000000000711e+01,-1.418750000000000711e+01,8.562500000000003553e+00,1.431250000000000533e+01,3.125000000000000888e+00,-3.750000000000001776e+00,-5.187500000000002665e+00,-1.025000000000000533e+01,-2.187500000000000888e+00,1.118750000000000711e+01,-4.125000000000001776e+00,-1.593750000000000711e+01,8.062500000000003553e+00,2.218750000000001066e+01,1.625000000000000000e+00,-8.187500000000003553e+00,-7.500000000000000000e-01,-5.250000000000002665e+00,2.000000000000000888e+00,1.206250000000000533e+01,-6.500000000000003553e+00,-1.500000000000000711e+01,1.125000000000000000e+00,7.000000000000002665e+00,-3.750000000000000888e+00,-3.500000000000000888e+00,1.118750000000000355e+01,6.437500000000002665e+00,-6.625000000000002665e+00,-3.125000000000000000e-01,4.750000000000001776e+00,-2.062500000000001332e+00,-7.250000000000003553e+00,-8.375000000000003553e+00,-4.687500000000001776e+00,7.375000000000003553e+00,1.312500000000000711e+01,8.750000000000008882e-01,-7.250000000000003553e+00,3.750000000000004441e-01,4.750000000000002665e+00,-2.937500000000000888e+00,-1.175000000000000533e+01,-2.312500000000001776e+00,1.612500000000000711e+01,9.250000000000003553e+00,-1.343750000000000711e+01,-1.700000000000000711e+01,1.000000000000000888e+00,1.362500000000000711e+01,4.000000000000001776e+00,-4.687500000000002665e+00,2.312500000000000888e+00,2.000000000000000888e+00,-8.437500000000003553e+00,-6.937500000000003553e+00,4.062500000000001776e+00,8.062500000000003553e+00,3.500000000000001776e+00,-6.500000000000003553e+00,-1.006250000000000533e+01,2.437500000000000888e+00,1.106250000000000355e+01,4.875000000000001776e+00,-8.750000000000003331e-01,-3.750000000000002220e+00,-9.312500000000003553e+00,-7.937500000000003553e+00,3.125000000000000888e+00,6.562500000000002665e+00,8.750000000000004441e-01,-4.625000000000001776e+00,-2.250000000000000888e+00,1.181250000000000355e+01,9.562500000000003553e+00,-8.750000000000003553e+00,-4.875000000000001776e+00,9.437500000000005329e+00,5.187500000000002665e+00,-4.250000000000002665e+00,-7.562500000000003553e+00,-1.187500000000000533e+01,-7.062500000000003553e+00,7.375000000000003553e+00,1.606250000000000711e+01,1.500000000000000711e+01,2.625000000000001332e+00,-9.437500000000003553e+00,-1.662500000000000711e+01,-2.056250000000000711e+01,-1.187500000000000000e+00,2.031250000000000711e+01,9.125000000000003553e+00,-7.499999999999997780e-01,7.375000000000003553e+00,5.750000000000002665e+00,1.937500000000000444e+00,3.125000000000000888e+00,-9.375000000000002220e-01,-5.062500000000001776e+00,-1.106250000000000533e+01,-1.500000000000000711e+01,2.187500000000000888e+00,2.356250000000001066e+01,1.050000000000000533e+01,-1.156250000000000533e+01,-1.500000000000000000e+00,2.187500000000001776e+00,-1.237500000000000533e+01,1.281250000000000355e+01,5.456250000000002132e+01,3.825000000000001421e+01,-2.337500000000001421e+01,-5.912500000000002842e+01,-4.268750000000001421e+01,-2.906250000000001421e+01,-3.881250000000002132e+01,-1.825000000000000711e+01,2.656250000000001421e+01,4.675000000000001421e+01,2.662500000000000711e+01,-2.481250000000001421e+01,-4.531250000000002132e+01,5.062500000000003553e+00,4.600000000000001421e+01,2.625000000000000711e+01,6.437500000000002665e+00,5.312500000000002665e+00,1.312500000000000888e+00,8.062500000000003553e+00,1.650000000000000711e+01,9.375000000000005329e+00,-9.750000000000005329e+00,-2.387500000000001066e+01,-6.562500000000001776e+00,2.281250000000001066e+01,2.681250000000001066e+01,3.875000000000000000e+00,-2.081250000000001066e+01,-2.212500000000001066e+01,-8.375000000000003553e+00,5.062500000000001776e+00,3.875000000000001776e+00,-1.462500000000000711e+01,-1.706250000000000711e+01,-1.000000000000000444e+00,7.000000000000003553e+00,7.812500000000003553e+00,-7.500000000000000000e-01,-1.187500000000000533e+01,-1.312500000000001776e+00,8.500000000000003553e+00,-8.750000000000003553e+00,-2.275000000000000711e+01,-8.250000000000005329e+00,1.587500000000000711e+01,1.750000000000001066e+01,4.625000000000002665e+00,8.250000000000003553e+00,1.093750000000000355e+01,-3.937500000000001776e+00,-1.487500000000000711e+01,-1.012500000000000533e+01,6.625000000000002665e+00,7.875000000000003553e+00,-9.500000000000003553e+00,-2.875000000000000888e+00,1.625000000000000711e+01,1.418750000000000711e+01,2.062500000000000444e+00,-1.056250000000000355e+01,-1.056250000000000355e+01,4.937500000000002665e+00,5.375000000000003553e+00,-8.750000000000003553e+00,-4.937500000000002665e+00,8.312500000000003553e+00,5.625000000000002665e+00,3.750000000000004996e-01,-3.312500000000001332e+00,-1.050000000000000533e+01,1.187500000000000000e+00,1.518750000000000711e+01,-1.437500000000000000e+00,-1.262500000000000533e+01,-1.250000000000000444e+00,-4.375000000000001776e+00,-7.812500000000003553e+00,8.375000000000003553e+00,1.425000000000000533e+01,5.500000000000002665e+00,-4.875000000000000888e+00,-1.606250000000000711e+01,-8.562500000000003553e+00,1.406250000000000711e+01,1.268750000000000711e+01,-5.125000000000001776e+00,-1.037500000000000355e+01,-7.375000000000003553e+00,4.750000000000001776e+00,1.387500000000000711e+01,-2.187500000000000000e+00,-1.575000000000000711e+01,-4.312500000000002665e+00,5.437500000000001776e+00,6.062500000000002665e+00,5.625000000000002665e+00,-2.500000000000000000e-01,4.812500000000002665e+00,1.181250000000000533e+01
-2.250000000000000355e+01,-1.000000000000000000e+00,2.000000000000000355e+01,-1.925000000000000355e+01,-1.300000000000000355e+01,1.925000000000000355e+01,1.050000000000000355e+01,-2.375000000000000711e+01,1.750000000000000355e+01,-2.500000000000000711e+01,1.700000000000000355e+01,1.550000000000000355e+01,-1.475000000000000355e+01,-9.250000000000001776e+00,-3.250000000000000000e+00,2.250000000000000355e+01,-2.275000000000000355e+01,2.475000000000000711e+01,-8.250000000000003553e+00,-2.225000000000000355e+01,2.975000000000000711e+01,-1.050000000000000355e+01,-1.925000000000000355e+01,2.700000000000000711e+01,-7.500000000000000000e-01,-1.725000000000000355e+01,-3.750000000000001776e+00,2.450000000000000711e+01,-1.175000000000000355e+01,-1.325000000000000355e+01,1.350000000000000355e+01,1.225000000000000355e+01,-1.550000000000000355e+01,-1.075000000000000355e+01,1.625000000000000355e+01,-1.250000000000000444e+00,1.000000000000000355e+01,-1.500000000000000355e+01,-4.000000000000000888e+00,1.000000000000000000e+00,2.125000000000000711e+01,-1.425000000000000355e+01,-1.875000000000000355e+01,3.850000000000000711e+01,-3.725000000000000711e+01,2.350000000000000711e+01,4.500000000000000000e+00,-2.325000000000000355e+01,4.500000000000000000e+00,2.325000000000000711e+01,-2.725000000000000711e+01,2.225000000000000355e+01,-2.400000000000000711e+01,9.750000000000003553e+00,1.425000000000000355e+01,-2.550000000000000711e+01,2.125000000000000711e+01,3.250000000000000000e+00,-2.850000000000000711e+01,3.075000000000000711e+01,-2.975000000000000711e+01,3.325000000000000711e+01,-2.500000000000000711e+01,1.325000000000000355e+01,-2.200000000000000355e+01,3.000000000000000711e+01,-3.025000000000000711e+01,3.025000000000000711e+01,-1.025000000000000355e+01,-1.950000000000000355e+01,1.700000000000000355e+01,1.150000000000000178e+01,-1.925000000000000355e+01,-2.000000000000000000e+00,1.625000000000000355e+01,0.000000000000000000e+00,-5.000000000000000888e+00,-7.750000000000001776e+00,-7.000000000000001776e+00,3.125000000000000711e+01,-3.700000000000000711e+01,3.525000000000000711e+01,-1.725000000000000355e+01,-1.400000000000000355e+01,1.600000000000000355e+01,0.000000000000000000e+00,1.500000000000000355e+01,-2.950000000000000711e+01,2.600000000000000711e+01,-1.700000000000000355e+01,-4.000000000000000888e+00,1.300000000000000355e+01,-2.500000000000000888e+00,-8.000000000000001776e+00,2.300000000000000711e+01,-3.250000000000000711e+01,1.550000000000000355e+01,1.750000000000000444e+00,1.000000000000000178e+01,-1.225000000000000178e+01,-9.750000000000001776e+00,1.425000000000000355e+01,-7.250000000000001776e+00,1.475000000000000355e+01,-2.175000000000000355e+01,2.350000000000000711e+01,-7.750000000000002665e+00,-1.425000000000000355e+01,5.000000000000000888e+00,9.250000000000001776e+00,5.250000000000000888e+00,-8.500000000000001776e+00,-1.575000000000000355e+01,2.925000000000000711e+01,-1.350000000000000355e+01,-5.250000000000001776e+00,-9.500000000000003553e+00,3.075000000000000711e+01,-2.350000000000000711e+01,-7.000000000000001776e+00,1.775000000000000355e+01,-2.500000000000000000e-01,-1.475000000000000355e+01,2.200000000000000355e+01,-1.200000000000000178e+01,6.000000000000000888e+00,-3.250000000000000444e+00,-1.675000000000000355e+01,2.000000000000000355e+01,6.750000000000002665e+00,-1.375000000000000355e+01,-8.500000000000001776e+00,1.825000000000000355e+01,-4.000000000000000888e+00,-1.475000000000000355e+01,2.550000000000000711e+01,-3.025000000000000711e+01,2.025000000000000355e+01,-2.750000000000000444e+00,-8.250000000000001776e+00,2.750000000000000355e+01,-2.575000000000000355e+01,4.250000000000000888e+00,1.025000000000000178e+01,-1.625000000000000355e+01,4.000000000000000000e+00,1.425000000000000355e+01,-1.225000000000000355e+01,-3.250000000000000888e+00,1.525000000000000355e+01,-2.050000000000000711e+01,1.650000000000000355e+01,-6.250000000000001776e+00,-1.750000000000000355e+01,1.925000000000000355e+01,8.750000000000003553e+00,-2.300000000000000711e+01,2.100000000000000355e+01,-3.500000000000000000e+00,-1.975000000000000711e+01,2.225000000000000711e+01,-1.750000000000000355e+01,-1.625000000000000711e+01,2.900000000000000711e+01,-1.175000000000000355e+01,-5.500000000000001776e+00,3.100000000000000711e+01,-1.075000000000000178e+01,-1.775000000000000355e+01,-4.250000000000001776e+00,1.700000000000000355e+01,7.000000000000001776e+00,-1.700000000000000355e+01,2.050000000000000711e+01,-8.000000000000003553e+00,8.000000000000003553e+00,-2.000000000000000711e+01,1.625000000000000355e+01,-1.850000000000000355e+01,1.375000000000000355e+01,3.500000000000000888e+00,-2.025000000000000711e+01,5.250000000000001776e+00,1.750000000000000355e+01,-6.750000000000000888e+00,-1.400000000000000355e+01,1.650000000000000355e+01,-1.575000000000000355e+01,1.250000000000000355e+01,1.150000000000000355e+01,-1.425000000000000355e+01,-7.500000000000002220e-01,-5.750000000000001776e+00,-1.175000000000000178e+01,4.475000000000001421e+01,-2.900000000000000711e+01,-1.375000000000000355e+01,1.950000000000000355e+01,-7.500000000000001776e+00,-2.750000000000000888e+00,1.850000000000000711e+01,-1.625000000000000355e+01,-2.325000000000000711e+01,3.750000000000000711e+01,-1.700000000000000355e+01,5.000000000000000000e-01,-2.750000000000000000e+00,1.925000000000000355e+01,-1.625000000000000355e+01,-3.425000000000000711e+01,7.675000000000001421e+01,-7.875000000000001421e+01,5.325000000000000711e+01,-4.050000000000000711e+01,1.775000000000000355e+01,6.250000000000002665e+00,5.250000000000000888e+00,5.000000000000001110e-01,-2.500000000000000555e-01,0.000000000000000000e+00,2.500000000000000555e-01,0.000000000000000000e+00,-2.500000000000000555e-01,2.500000000000000555e-01,0.000000000000000000e+00,-2.500000000000000555e-01,2.500000000000000555e-01,2.500000000000000555e-01,-7.500000000000002220e-01,7.500000000000002220e-01,-2.500000000000000555e-01,2.500000000000000555e-01,0.000000000000000000e+00,-5.000000000000001110e-01,0.000000000000000000e+00,2.500000000000000555e-01,2.500000000000000555e-01,-2.500000000000000555e-01,-2.500000000000000555e-01,5.000000000000001110e-01,-5.000000000000001110e-01,2.500000000000000555e-01,0.000000000000000000e+00,0.000000000000000000e+00,0.000000000000000000e+00,-2.500000000000000555e-01,5.000000000000001110e-01,-5.000000000000001110e-01,2.500000000000000555e-01,5.000000000000001110e-01,-1.000000000000000222e+00,2.500000000000000555e-01,5.000000000000001110e-01,-2.500000000000000555e-01,2.500000000000000555e-01,-5.000000000000001110e-01,2.500000000000000555e-01,7.500000000000002220e-01,-1.500000000000000444e+00,7.500000000000002220e-01,0.000000000000000000e+00,0.000000000000000000e+00,2.500000000000000555e-01,-5.000000000000001110e-01,5.000000000000001110e-01,-5.000000000000001110e-01,5.000000000000001110e-01,-2.500000000000000555e-01,-2.500000000000000555e-01,2.500000000000000555e-01,0.000000000000000000e+00,2.500000000000000555e-01,-1.000000000000000222e+00,1.250000000000000444e+00,-5.000000000000001110e-01,0.000000000000000000e+00,2.500000000000000555e-01,-5.000000000000001110e-01,2.500000000000000555e-01,0.000000000000000000e+00,-2.500000000000000555e-01,2.500000000000000555e-01,5.000000000000001110e-01,-7.500000000000002220e-01,5.000000000000001110e-01,0.000000000000000000e+00,-5.000000000000001110e-01,-2.500000000000000555e-01,1.250000000000000444e+00,-1.000000000000000222e+00,2.500000000000000555e-01,0.000000000000000000e+00,2.500000000000000555e-01,-5.000000000000001110e-01,0.000000000000000000e+00,5.000000000000001110e-01,0.000000000000000000e+00,-5.000000000000001110e-01,2.500000000000000555e-01,0.000000000000000000e+00,0.000000000000000000e+00,0.000000000000000000e+00,2.500000000000000555e-01,-2.500000000000000555e-01,0.000000000000000000e+00,-2.500000000000000555e-01,7.500000000000002220e-01,-5.000000000000001110e-01,1.000000000000000222e+00,-5.000000000000001110e-01,1.150000000000000355e+01,-6.000000000000001776e+00,3.000000000000000000e+00,-2.400000000000000711e+01,1.575000000000000355e+01,8.250000000000001776e+00,7.500000000000001776e+00,-3.000000000000000000e+00,-8.750000000000003553e+00,-2.250000000000000355e+01,2.850000000000000711e+01,6.500000000000001776e+00,-2.650000000000000711e+01,1.875000000000000355e+01,5.000000000000000000e-01,-2.100000000000000355e+01,3.300000000000000711e+01,-1.375000000000000178e+01,-2.350000000000000711e+01,-8.250000000000000000e+00,8.175000000000001421e+01,-4.950000000000001421e+01,-1.225000000000000355e+01,1.325000000000000355e+01,-2.125000000000000355e+01,1.200000000000000178e+01,1.575000000000000355e+01,-3.875000000000000711e+01,7.500000000000001421e+01,-4.550000000000001421e+01,-3.850000000000000711e+01,2.925000000000000711e+01,1.675000000000000355e+01,-1.200000000000000355e+01,-3.000000000000000444e+00,4.175000000000000711e+01,-5.825000000000001421e+01,3.425000000000000711e+01,-1.350000000000000355e+01,-1.050000000000000355e+01,1.200000000000000355e+01,-2.775000000000000355e+01,3.400000000000000711e+01,1.025000000000000178e+01,-2.750000000000000355e+01,-4.000000000000000888e+00,1.550000000000000355e+01,1.625000000000000355e+01,-3.125000000000000711e+01,1.350000000000000355e+01,8.250000000000003553e+00,-3.300000000000000711e+01,3.975000000000000711e+01,-2.625000000000000711e+01,2.375000000000000711e+01,-9.750000000000001776e+00,-2.025000000000000711e+01,2.500000000000000711e+01,-1.900000000000000355e+01,1.000000000000000000e+00,2.025000000000000711e+01,-9.500000000000003553e+00,-1.350000000000000355e+01,1.100000000000000178e+01,5.000000000000001776e+00,-7.000000000000001776e+00,0.000000000000000000e+00,0.000000000000000000e+00,-2.500000000000000555e-01,2.500000000000000555e-01,-2.500000000000000555e-01,7.500000000000002220e-01,-7.500000000000002220e-01,5.000000000000001110e-01,-2.500000000000000555e-01,0.000000000000000000e+00,0.000000000000000000e+00,0.000000000000000000e+00,2.500000000000000555e-01,-7.500000000000002220e-01,7.500000000000002220e-01,-2.500000000000000555e-01,-2.500000000000000555e-01,2.500000000000000555e-01,2.500000000000000555e-01,-2.500000000000000555e-01,0.000000000000000000e+00,0.000000000000000000e+00,0.000000000000000000e+00,-5.000000000000000888e+00,5.750000000000000888e+00,3.250000000000000888e+00,-3.750000000000000888e+00,-1.500000000000000222e+00,-3.500000000000000888e+00,7.500000000000001776e+00,-2.075000000000000355e+01,3.375000000000000711e+01,-2.525000000000000711e+01,4.250000000000000888e+00,1.325000000000000355e+01,0.000000000000000000e+00,-2.425000000000000711e+01,-5.500000000000000000e+00,2.375000000000000355e+01,2.325000000000000711e+01,-4.250000000000001421e+01,1.200000000000000355e+01,4.000000000000000888e+00,1.625000000000000355e+01,-1.100000000000000355e+01,-2.350000000000000355e+01,2.800000000000000711e+01,-6.500000000000001776e+00,-1.775000000000000355e+01,1.375000000000000355e+01,1.175000000000000178e+01,-2.175000000000000711e+01,1.550000000000000355e+01,-1.675000000000000355e+01,2.850000000000000711e+01,-5.750000000000001776e+00,-9.500000000000001776e+00,-1.250000000000000222e+00,-1.025000000000000178e+01,-7.750000000000001776e+00,3.750000000000000711e+01,-3.900000000000000711e+01,3.275000000000000711e+01,-2.850000000000000711e+01,-2.500000000000000000e+00,4.450000000000001421e+01,-2.175000000000000711e+01,-8.500000000000001776e+00,2.150000000000000355e+01,-3.400000000000000711e+01,7.000000000000001776e+00,2.950000000000000711e+01,-2.650000000000000711e+01,-2.250000000000000000e+00,7.000000000000001776e+00,-8.500000000000001776e+00,3.150000000000000711e+01,-1.900000000000000355e+01,-1.200000000000000178e+01,1.575000000000000355e+01,5.000000000000000888e+00,-3.275000000000000711e+01,3.700000000000000711e+01,-2.200000000000000711e+01,-3.000000000000000000e+00,1.750000000000000000e+00,1.550000000000000355e+01,-1.500000000000000888e+00,-4.250000000000000888e+00,-8.500000000000001776e+00,-1.400000000000000178e+01,5.450000000000001421e+01,-5.025000000000001421e+01,1.250000000000000355e+01,-2.750000000000000888e+00,1.850000000000000355e+01,-2.500000000000000711e+01,2.325000000000000711e+01,-2.750000000000000000e+00,-2.750000000000000888e+00,-5.000000000000000000e-01,-2.275000000000000355e+01,3.250000000000000711e+01,-2.325000000000000711e+01,3.750000000000000000e+00,1.575000000000000355e+01,-1.025000000000000178e+01,7.500000000000002220e-01,-3.000000000000000888e+00,1.025000000000000355e+01,-2.750000000000000711e+01,3.325000000000000711e+01,-9.000000000000003553e+00,-1.825000000000000355e+01,2.225000000000000711e+01,-1.875000000000000355e+01,1.575000000000000355e+01,-1.100000000000000355e+01,1.625000000000000355e+01,-8.500000000000001776e+00,3.000000000000000444e+00,-1.000000000000000000e+00,-2.575000000000000355e+01,2.525000000000000355e+01,5.500000000000000888e+00,-1.900000000000000355e+01,1.775000000000000355e+01,-3.125000000000000711e+01,7.200000000000002842e+01,-6.300000000000001421e+01,-2.250000000000000000e+00,2.150000000000000355e+01,-1.075000000000000355e+01,4.000000000000001776e+00,7.750000000000001776e+00,-4.000000000000000888e+00,-7.250000000000001776e+00,1.600000000000000355e+01,-2.075000000000000355e+01,6.250000000000000888e+00,3.200000000000000711e+01,-4.025000000000001421e+01,1.825000000000000355e+01,-4.250000000000000888e+00,-7.000000000000000888e+00,1.475000000000000355e+01,-2.900000000000000711e+01,2.600000000000000711e+01,-1.175000000000000355e+01,1.525000000000000355e+01,-2.925000000000000711e+01,5.275000000000001421e+01,-4.125000000000000711e+01,6.250000000000001776e+00,-1.675000000000000355e+01,2.250000000000000355e+01,2.500000000000000888e+00,-1.350000000000000355e+01,5.250000000000001776e+00,5.500000000000001776e+00,3.750000000000000888e+00,-1.225000000000000355e+01,-1.875000000000000355e+01,2.750000000000000355e+01,8.000000000000000000e+00,6.250000000000001776e+00,-3.675000000000000711e+01,3.350000000000000711e+01,-2.825000000000000711e+01,2.500000000000001776e+00,2.675000000000000711e+01,-1.075000000000000355e+01,-2.875000000000000355e+01,3.650000000000000711e+01,-1.250000000000000355e+01,-1.450000000000000355e+01,2.550000000000000711e+01,5.250000000000001776e+00,-1.750000000000000355e+01,-2.050000000000000355e+01,2.175000000000000355e+01,1.275000000000000355e+01,-2.775000000000000711e+01,7.500000000000000000e-01,2.850000000000000711e+01,9.500000000000003553e+00,-5.275000000000001421e+01,4.125000000000001421e+01,-6.500000000000001776e+00,-1.900000000000000711e+01,3.075000000000000711e+01,-4.300000000000001421e+01,4.300000000000001421e+01,-1.600000000000000355e+01,-2.875000000000000711e+01,5.500000000000001421e+01,-3.275000000000000711e+01,7.250000000000001776e+00,-1.725000000000000355e+01,2.800000000000000711e+01,-2.775000000000000711e+01,6.000000000000001776e+00,3.025000000000000711e+01,-1.950000000000000355e+01,-1.325000000000000178e+01,7.500000000000000000e-01,2.800000000000000711e+01,-2.075000000000000355e+01,-9.000000000000003553e+00,1.575000000000000355e+01,4.500000000000000888e+00,-2.100000000000000711e+01,2.475000000000000711e+01,7.000000000000000000e+00,-1.925000000000000355e+01,-2.650000000000000711e+01,4.350000000000001421e+01,-3.200000000000000711e+01,2.075000000000000355e+01,1.375000000000000355e+01,-1.200000000000000178e+01,-2.025000000000000711e+01,7.250000000000002665e+00,1.825000000000000355e+01,-1.250000000000000355e+01,1.375000000000000355e+01,-2.275000000000000711e+01,5.750000000000000888e+00,2.625000000000000355e+01,-1.875000000000000355e+01,-1.375000000000000355e+01,2.650000000000000711e+01,-7.750000000000001776e+00,-1.075000000000000178e+01,1.775000000000000355e+01,-2.050000000000000355e+01,2.150000000000000355e+01,-2.150000000000000355e+01,2.500000000000000444e+00,2.100000000000000355e+01,-1.625000000000000355e+01,-2.100000000000000355e+01,1.925000000000000355e+01,-1.200000000000000178e+01,3.750000000000000000e+00,1.450000000000000355e+01,-9.000000000000001776e+00,-1.625000000000000355e+01,1.150000000000000178e+01,-5.000000000000000000e+00,6.150000000000001421e+01,-5.000000000000001421e+01,4.500000000000000888e+00,1.300000000000000355e+01,-8.000000000000001776e+00,-3.350000000000000711e+01,6.000000000000000000e+00,6.500000000000001776e+00,2.125000000000000355e+01,-1.425000000000000355e+01,-1.450000000000000355e+01,-2.500000000000000000e-01,2.700000000000000711e+01,-1.475000000000000355e+01,-4.000000000000000000e+00,8.500000000000001776e+00,-1.700000000000000355e+01,-1.000000000000000000e+00,2.775000000000000711e+01,-1.000000000000000178e+01,-1.000000000000000355e+01,7.250000000000002665e+00,1.075000000000000178e+01,-1.525000000000000355e+01,-4.000000000000001776e+00,2.225000000000000711e+01,-1.750000000000000355e+01,2.250000000000000000e+00,-9.750000000000001776e+00,2.750000000000000711e+01,-2.150000000000000355e+01,2.000000000000000355e+01,-3.750000000000000888e+00,-1.925000000000000355e+01,2.300000000000000711e+01,-2.050000000000000355e+01,2.000000000000000355e+01,3.250000000000001776e+00,-1.900000000000000711e+01,2.450000000000000711e+01,-2.875000000000000711e+01,1.100000000000000178e+01,1.350000000000000355e+01,-1.750000000000000355e+01,2.725000000000000355e+01,-3.100000000000000711e+01,2.225000000000000711e+01,-6.250000000000001776e+00,-1.550000000000000355e+01,2.300000000000000711e+01,-1.850000000000000355e+01,1.925000000000000355e+01,-1.500000000000000355e+01,-1.300000000000000178e+01,2.150000000000000355e+01,-2.750000000000000000e+00,-2.000000000000000711e+01,1.450000000000000355e+01,3.000000000000000444e+00,-1.050000000000000178e+01,1.900000000000000355e+01,-1.450000000000000355e+01,-1.075000000000000355e+01,8.500000000000003553e+00,2.325000000000000355e+01,-3.450000000000000711e+01,2.025000000000000355e+01,6.750000000000002665e+00,-2.325000000000000711e+01,1.725000000000000355e+01,-2.600000000000000711e+01,2.350000000000000355e+01,1.225000000000000355e+01,-3.575000000000000711e+01,3.775000000000000711e+01,-3.350000000000000711e+01,2.050000000000000355e+01,-5.000000000000000888e+00,-1.350000000000000355e+01,1.125000000000000355e+01,4.750000000000000888e+00,-1.775000000000000355e+01,3.375000000000000711e+01,-3.200000000000000711e+01,5.750000000000001776e+00,1.900000000000000355e+01,-2.175000000000000355e+01,1.925000000000000355e+01,-1.800000000000000355e+01,2.750000000000000711e+01,-3.725000000000000711e+01,1.975000000000000355e+01,1.750000000000000355e+01,-3.875000000000000711e+01,2.450000000000000355e+01,1.025000000000000355e+01,-1.450000000000000355e+01,-1.700000000000000355e+01,2.425000000000000711e+01,8.000000000000001776e+00,-2.450000000000000711e+01,8.500000000000001776e+00,-5.500000000000001776e+00,2.425000000000000711e+01,-1.900000000000000355e+01,-1.875000000000000355e+01,1.875000000000000355e+01,1.950000000000000355e+01,-2.550000000000000711e+01,1.800000000000000355e+01,-2.450000000000000711e+01,2.875000000000000711e+01,-3.425000000000000711e+01,3.325000000000000711e+01,-7.000000000000001776e+00,-1.800000000000000355e+01,1.150000000000000178e+01,-1.000000000000000222e+00,-6.250000000000001776e+00,2.475000000000000711e+01,-3.300000000000000711e+01,2.825000000000000711e+01,-2.125000000000000711e+01,-1.500000000000000000e+00,1.750000000000000355e+01,-2.750000000000000888e+00,-1.750000000000000355e+01,2.425000000000000711e+01,-1.200000000000000355e+01,-1.025000000000000178e+01,2.550000000000000711e+01,-6.000000000000001776e+00,-2.275000000000000711e+01,2.575000000000000711e+01,-2.450000000000000711e+01,2.600000000000000711e+01,-3.300000000000000711e+01,2.700000000000000711e+01,3.750000000000000000e+00,-2.325000000000000355e+01,2.200000000000000355e+01,-2.750000000000000711e+01,3.325000000000000711e+01,-3.550000000000000711e+01,2.525000000000000355e+01,9.750000000000003553e+00,-3.200000000000000711e+01,2.875000000000000711e+01,-2.775000000000000711e+01,2.575000000000000711e+01,7.500000000000000000e-01,-2.350000000000000711e+01,1.550000000000000355e+01,-6.250000000000001776e+00,2.125000000000000355e+01,-3.075000000000000711e+01,2.725000000000000711e+01,-2.675000000000000711e+01,2.600000000000000711e+01,-2.925000000000000711e+01,2.675000000000000711e+01,-1.875000000000000355e+01,3.000000000000000888e+00,2.300000000000000355e+01,-2.100000000000000355e+01,-1.100000000000000355e+01,1.950000000000000711e+01,-7.750000000000001776e+00,1.325000000000000178e+01,-1.625000000000000355e+01,9.500000000000001776e+00,-7.500000000000000000e-01,-2.300000000000000355e+01,3.375000000000000711e+01,-1.225000000000000355e+01,-1.600000000000000355e+01,9.000000000000003553e+00,1.150000000000000355e+01,8.500000000000001776e+00,-3.425000000000000711e+01,3.750000000000000711e+01,-2.275000000000000355e+01,-8.500000000000003553e+00,3.375000000000000711e+01,-2.250000000000000355e+01,-7.500000000000001776e+00,1.250000000000000355e+01,-8.750000000000001776e+00,1.700000000000000355e+01,-3.000000000000000711e+01,2.550000000000000711e+01,4.750000000000001776e+00,-2.425000000000000711e+01,2.225000000000000711e+01,-1.450000000000000355e+01,1.550000000000000355e+01,-2.075000000000000355e+01,1.750000000000000355e+01,-2.200000000000000711e+01,1.700000000000000355e+01,-4.000000000000000888e+00,1.400000000000000355e+01,-2.550000000000000711e+01,2.050000000000000711e+01,-1.000000000000000178e+01,6.500000000000001776e+00,-3.500000000000000888e+00,-1.725000000000000355e+01,2.700000000000000711e+01,-6.250000000000000888e+00,0.000000000000000000e+00,-1.625000000000000355e+01,9.250000000000001776e+00,-1.250000000000000444e+00,1.850000000000000355e+01,-3.275000000000000711e+01,3.175000000000000711e+01,-2.200000000000000711e+01,1.925000000000000355e+01,-3.125000000000000711e+01,3.200000000000000711e+01,-2.325000000000000355e+01,2.300000000000000355e+01,-1.700000000000000355e+01,5.000000000000000888e+00,-1.275000000000000355e+01,2.575000000000000711e+01,-1.975000000000000711e+01,1.475000000000000355e+01,-1.125000000000000355e+01,6.250000000000001776e+00,-1.175000000000000178e+01,2.500000000000000000e+00,1.500000000000000355e+01,-2.175000000000000711e+01,2.500000000000000711e+01,-2.850000000000000711e+01,1.750000000000000355e+01,1.375000000000000355e+01,-2.375000000000000711e+01,9.250000000000001776e+00,-2.000000000000000444e+00,1.425000000000000355e+01,-2.050000000000000711e+01,1.600000000000000355e+01,-1.300000000000000355e+01,-6.500000000000002665e+00,1.300000000000000355e+01,-5.250000000000000888e+00,1.150000000000000355e+01,4.250000000000000000e+00,-1.800000000000000355e+01,1.625000000000000355e+01,-2.325000000000000711e+01,-3.250000000000000000e+00,2.325000000000000711e+01,-1.500000000000000888e+00,-1.600000000000000355e+01,1.975000000000000355e+01,-3.250000000000000888e+00,-1.050000000000000178e+01,2.150000000000000355e+01,-2.200000000000000355e+01,1.675000000000000355e+01,-1.425000000000000355e+01,2.750000000000000888e+00,-1.475000000000000355e+01,2.275000000000000711e+01,9.500000000000001776e+00,-2.400000000000000711e+01,4.750000000000001776e+00,1.800000000000000355e+01,-2.000000000000000355e+01,-1.425000000000000355e+01,5.075000000000001421e+01,-4.250000000000000000e+00,7.750000000000000000e+00,-4.125000000000000711e+01,-8.750000000000003553e+00,1.925000000000000355e+01,-3.800000000000000711e+01,-3.500000000000000000e+00,1.850000000000000355e+01,6.750000000000001776e+00,2.025000000000000355e+01,-5.000000000000000888e+00,-4.050000000000000711e+01,5.000000000000000000e+00,4.150000000000000711e+01,-8.750000000000001776e+00,-9.500000000000001776e+00,2.450000000000000711e+01,-2.175000000000000355e+01,8.000000000000001776e+00,1.525000000000000355e+01,-1.425000000000000355e+01,2.125000000000000711e+01,-3.100000000000000711e+01,-7.500000000000000000e-01,2.275000000000000711e+01,-1.000000000000000178e+01,2.875000000000000711e+01,-3.800000000000000711e+01,1.225000000000000355e+01,-9.250000000000001776e+00,-1.750000000000000444e+00,1.800000000000000355e+01,-1.650000000000000355e+01,-1.025000000000000178e+01,1.125000000000000178e+01,-3.750000000000000888e+00,1.000000000000000444e+00,1.175000000000000178e+01,-1.800000000000000355e+01,-1.750000000000000000e+00,1.950000000000000355e+01,-1.250000000000000355e+01,-8.000000000000000000e+00,-4.250000000000001776e+00,4.500000000000001776e+00,1.900000000000000355e+01,-1.450000000000000355e+01,2.500000000000000000e-01,2.400000000000000711e+01,-2.550000000000000711e+01,1.525000000000000355e+01,-2.000000000000000711e+01,7.000000000000002665e+00,1.600000000000000355e+01,-1.475000000000000355e+01,-1.350000000000000355e+01,3.350000000000000711e+01,-2.150000000000000355e+01,1.875000000000000355e+01,-9.750000000000003553e+00,-1.275000000000000355e+01,1.375000000000000355e+01,-5.000000000000000000e-01,0.000000000000000000e+00,-1.775000000000000355e+01,2.425000000000000711e+01,-9.750000000000001776e+00,-2.250000000000000444e+00,1.075000000000000178e+01,-1.325000000000000355e+01,-6.000000000000000888e+00,2.075000000000000355e+01,0.000000000000000000e+00,-2.650000000000000711e+01,2.325000000000000711e+01,-5.250000000000001776e+00,-1.750000000000000355e+01,1.750000000000000355e+01,1.500000000000000444e+00,-2.250000000000000888e+00,4.500000000000000888e+00,-6.000000000000000888e+00,-1.500000000000000355e+01,1.600000000000000355e+01,1.125000000000000355e+01,-1.875000000000000711e+01,9.250000000000001776e+00,-6.000000000000001776e+00,-9.250000000000003553e+00,2.525000000000000711e+01,-1.175000000000000355e+01,-6.000000000000000888e+00,-6.000000000000000888e+00,1.875000000000000355e+01,-2.050000000000000711e+01,2.125000000000000711e+01,-6.750000000000001776e+00,-1.475000000000000355e+01,3.400000000000000711e+01
