1.032895000000000323e+02,8.111762500000003229e+01,6.182075000000001808e+01,4.344575000000000387e+01,2.824262499999998965e+01,1.600824999999998255e+01,7.164499999999978996e+00,1.523874999999976110e+00,-1.554250000000025889e+00,-6.210500000000028997e+00,-1.067925000000003166e+01,-1.496050000000003344e+01,-2.006987500000003877e+01,-2.417925000000004232e+01,-2.828862500000004587e+01,-3.186675000000004587e+01,-3.539800000000004587e+01,-3.663237500000004587e+01,-3.844487500000004587e+01,-3.914800000000004587e+01,-3.792925000000004587e+01,-3.667925000000004587e+01,-3.446050000000004587e+01,-3.136675000000004587e+01,-2.724175000000004587e+01,-2.533550000000004587e+01,-2.313237500000003877e+01,-2.347612500000003877e+01,-2.547612500000004232e+01,-2.850737500000004232e+01,-3.341362500000004587e+01,-4.014800000000005298e+01,-4.949175000000005298e+01,-5.836675000000006719e+01,-6.883550000000006719e+01,-7.752300000000006719e+01,-8.591362500000008140e+01,-9.464800000000010982e+01,-1.026636250000001098e+02,-1.103667500000001098e+02,-1.156636250000001098e+02,-1.198980000000001098e+02,-1.226011250000001098e+02,-1.258511250000001098e+02,-1.291792500000001098e+02,-1.323198750000001098e+02,-1.360386250000001098e+02,-1.392261250000001098e+02,-1.434136250000001098e+02,-1.495542500000001098e+02,-1.563042500000001098e+02,-1.626792500000001098e+02,-1.692730000000001098e+02,-1.757886250000001098e+02,-1.811792500000001098e+02,-1.871167500000001382e+02,-1.930698750000001951e+02,-1.975073750000001951e+02,-2.010230000000001951e+02,-2.043980000000001951e+02,-2.072261250000001951e+02,-2.091167500000001951e+02,-2.111167500000001951e+02,-2.118980000000001951e+02,-2.124917500000001951e+02,-2.125230000000001951e+02,-2.124448750000001951e+02,-2.131948750000001951e+02,-2.140386250000001951e+02,-2.156948750000001951e+02,-2.177261250000001951e+02,-2.201323750000001951e+02,-2.222573750000001951e+02,-2.250230000000001951e+02,-2.288823750000001951e+02,-2.312105000000001951e+02,-2.332417500000001951e+02,-2.335230000000001951e+02,-2.331480000000001951e+02,-2.334448750000001951e+02,-2.329448750000001951e+02,-2.323980000000001951e+02,-2.308042500000001951e+02,-2.295230000000001951e+02,-2.280698750000001951e+02,-2.275542500000001951e+02,-2.273042500000001951e+02,-2.261636250000001951e+02,-2.249761250000001951e+02,-2.231948750000001951e+02,-2.208042500000001951e+02,-2.188980000000001951e+02,-2.161948750000001951e+02,-2.139761250000001951e+02,-2.111948750000001951e+02,-2.083980000000001951e+02,-2.065542500000001951e+02,-2.043198750000001951e+02,-2.036323750000001951e+02,-2.024136250000001951e+02,-2.020542500000001951e+02,-2.017105000000001951e+02,-2.016480000000001951e+02,-2.014292500000001951e+02,-2.002417500000001951e+02,-2.005386250000001951e+02,-1.997105000000001951e+02,-1.998198750000001951e+02,-1.998198750000001951e+02,-1.991167500000001951e+02,-1.991636250000001951e+02,-1.991948750000001951e+02,-1.997105000000001951e+02,-1.992417500000001951e+02,-1.984448750000001951e+02,-1.965855000000001951e+02,-1.953823750000001951e+02,-1.936948750000001951e+02,-1.911636250000001382e+02,-1.887730000000001382e+02,-1.865542500000001098e+02,-1.844136250000001098e+02,-1.826480000000001098e+02,-1.807886250000001098e+02,-1.781636250000001098e+02,-1.764448750000001098e+02,-1.747105000000001098e+02,-1.729136250000001098e+02,-1.712886250000001098e+02,-1.688511250000001098e+02,-1.665230000000001098e+02,-1.648198750000001098e+02,-1.625542500000001098e+02,-1.597573750000001098e+02,-1.559136250000001098e+02,-1.512886250000001098e+02,-1.456636250000001098e+02,-1.409917500000001098e+02,-1.363198750000001098e+02,-1.310230000000001098e+02,-1.260698750000001098e+02,-1.212730000000001098e+02,-1.182730000000001098e+02,-1.170698750000001098e+02,-1.163198750000001098e+02,-1.144448750000001098e+02,-1.126636250000001098e+02,-1.106948750000001098e+02,-1.083823750000001098e+02,-1.060855000000001098e+02,-1.029761250000001098e+02,-9.814800000000010982e+01,-9.353862500000008140e+01,-9.038237500000008140e+01,-8.710112500000006719e+01,-8.405425000000006719e+01,-8.149175000000006719e+01,-7.885112500000006719e+01,-7.555425000000006719e+01,-7.250737500000006719e+01,-6.905425000000006719e+01,-6.467925000000006719e+01,-6.013237500000006719e+01,-5.527300000000006719e+01,-5.025737500000006719e+01,-4.533550000000005298e+01,-4.092925000000004587e+01,-3.716362500000004587e+01,-3.353862500000004587e+01,-3.052300000000004587e+01,-2.697612500000004587e+01,-2.391362500000004587e+01,-2.181987500000003877e+01,-1.966362500000003521e+01,-1.814800000000003521e+01,-1.728862500000003521e+01,-1.592925000000003521e+01,-1.371050000000003521e+01,-1.300737500000003521e+01,-1.296050000000003521e+01,-1.213237500000003344e+01,-1.144487500000003166e+01,-9.694875000000031662e+00,-7.007375000000029885e+00,-5.023000000000028109e+00,-3.726125000000027221e+00,-1.741750000000025889e+00,6.488749999999758877e-01,3.601999999999977664e+00,6.726999999999978996e+00,8.117624999999980773e+00,9.289499999999980773e+00,9.914499999999980773e+00,9.695749999999980773e+00,1.008637499999998077e+01,1.033637499999998077e+01,9.961374999999980773e+00,9.117624999999980773e+00,1.005512499999998255e+01,1.146137499999998255e+01,1.318012499999998433e+01,1.660199999999998610e+01,1.969574999999998965e+01,2.307074999999998965e+01,2.563324999999999676e+01,2.844574999999999676e+01,3.063324999999999676e+01,3.168012499999999676e+01,3.380512499999999676e+01,3.457074999999999676e+01,3.433637499999999676e+01,3.474262499999999676e+01,3.666449999999999676e+01,3.939887499999999676e+01,4.118012499999999676e+01,4.430512500000000387e+01,4.647700000000000387e+01,4.936762500000001808e+01,5.302387500000001808e+01,5.614887500000001808e+01,5.771137500000001808e+01,5.768012500000001808e+01,5.924262500000001808e+01,5.964887500000001808e+01,6.011762500000001808e+01,5.999262500000001808e+01,6.014887500000001808e+01,6.000825000000001808e+01,6.093012500000001808e+01,6.336762500000001808e+01,6.453950000000001808e+01,6.660200000000001808e+01,6.861762500000001808e+01,7.105512500000001808e+01,7.307075000000001808e+01,7.527387500000001808e+01,7.680512500000001808e+01,7.735200000000001808e+01,7.772700000000001808e+01,7.682075000000001808e+01,7.507075000000001808e+01,7.358637500000001808e+01,7.208637500000001808e+01,7.044575000000001808e+01,6.947700000000001808e+01,6.788325000000001808e+01,6.694575000000001808e+01,6.728950000000001808e+01,6.897700000000001808e+01,6.918012500000001808e+01,6.971137500000001808e+01,6.918012500000001808e+01,6.799262500000001808e+01,6.819575000000001808e+01,6.816450000000001808e+01,6.752387500000001808e+01,6.578950000000001808e+01,6.582075000000001808e+01,6.494575000000001808e+01,6.583637500000001808e+01,6.668012500000001808e+01,6.611762500000001808e+01,6.605512500000001808e+01,6.566450000000001808e+01,6.577387500000001808e+01,6.418012500000001808e+01,6.275825000000001808e+01,5.963325000000001808e+01,5.699262500000001808e+01,5.486762500000001808e+01,5.213325000000001808e+01,4.922700000000001097e+01,4.614887500000000387e+01,4.444575000000000387e+01,4.377387499999999676e+01,4.464887499999999676e+01,4.471137499999999676e+01,4.527387500000000387e+01,4.528950000000000387e+01,4.613325000000000387e+01,4.710200000000000387e+01,4.788325000000000387e+01,4.813325000000000387e+01,4.789887500000000387e+01,4.903950000000001808e+01,5.053950000000001808e+01,5.289887500000001808e+01,5.549262500000001808e+01,5.852387500000001808e+01,6.105512500000001808e+01,6.263325000000001808e+01,6.433637500000001808e+01,6.497700000000001808e+01,6.416450000000001808e+01,6.358637500000001808e+01,6.193012500000001808e+01,5.943012500000001808e+01,5.755512500000001808e+01,5.741450000000001808e+01,5.646137500000001808e+01,5.547700000000001808e+01,5.539887500000001808e+01,5.466450000000001808e+01,5.489887500000001808e+01,5.627387500000001808e+01,5.705512500000001808e+01,5.608637500000001808e+01,5.566450000000001808e+01,5.599262500000001808e+01,5.621137500000001808e+01,5.732075000000001808e+01,5.775825000000001808e+01,5.683637500000001808e+01,5.633637500000001808e+01,5.688325000000001808e+01,5.797700000000001808e+01,5.893012500000001808e+01,6.007075000000001808e+01,5.986762500000001808e+01,6.003950000000001808e+01,6.072700000000001808e+01,6.082075000000001808e+01,6.128950000000001808e+01,6.119575000000001808e+01,6.030512500000001808e+01,5.893012500000001808e+01,5.866450000000001808e+01,5.747700000000001808e+01,5.714887500000001808e+01,5.680512500000001808e+01,5.485200000000001808e+01,5.236762500000001808e+01,5.027387500000001808e+01,4.841450000000001097e+01,4.560200000000000387e+01,4.439887500000000387e+01,4.232074999999999676e+01,4.043012499999999676e+01,4.011762499999999676e+01,3.997699999999999676e+01,4.046137499999999676e+01,4.118012499999999676e+01,4.255512499999999676e+01,4.325824999999999676e+01,4.378949999999999676e+01,4.568012500000000387e+01,4.735200000000000387e+01,5.028950000000001097e+01,5.225825000000001808e+01,5.493012500000001808e+01,5.869575000000001808e+01,6.200825000000001808e+01,6.613325000000001808e+01,6.896137500000001808e+01,7.113325000000001808e+01,7.163325000000001808e+01,7.283637500000001808e+01,7.196137500000001808e+01,6.886762500000001808e+01,6.589887500000001808e+01,6.164887500000001808e+01,5.650825000000001808e+01,5.175825000000001808e+01,4.780512500000001097e+01,4.261762500000000387e+01,3.927387499999999676e+01,3.680512499999999676e+01,3.382074999999999676e+01,3.197699999999999676e+01,3.175824999999999676e+01,3.107074999999999676e+01,3.028949999999999676e+01,3.135199999999999676e+01,3.169574999999999676e+01,3.178949999999999676e+01,3.268012499999999676e+01,3.353949999999999676e+01,3.375824999999999676e+01,3.416449999999999676e+01,3.538324999999999676e+01,3.541449999999999676e+01,3.491449999999999676e+01,3.578949999999999676e+01,3.675824999999999676e+01,3.675824999999999676e+01,3.696137499999999676e+01,3.797699999999999676e+01,3.757074999999999676e+01,3.794574999999999676e+01,3.964887499999999676e+01,4.016449999999999676e+01,4.166449999999999676e+01,4.443012500000000387e+01,4.694575000000001097e+01,4.971137500000001808e+01,5.375825000000001808e+01,5.713325000000001808e+01,6.049262500000001808e+01,6.500825000000001808e+01,6.774262500000001808e+01,7.008637500000001808e+01,7.336762500000001808e+01,7.524262500000001808e+01,7.652387500000001808e+01,7.897700000000001808e+01,8.053950000000001808e+01,8.064887500000001808e+01,8.153950000000001808e+01,8.180512500000001808e+01,7.991450000000001808e+01,7.799262500000001808e+01,7.511762500000001808e+01,7.014887500000001808e+01,6.493012500000001808e+01,5.941450000000001808e+01,5.302387500000001808e+01,4.613325000000001097e+01,4.077387500000000387e+01,3.535199999999999676e+01,3.094574999999999676e+01,2.724262499999999676e+01,2.282074999999998965e+01,1.930512499999998965e+01,1.603949999999998610e+01,1.382074999999998610e+01,1.103949999999998255e+01,9.211374999999980773e+00,7.258249999999978996e+00,6.398874999999978996e+00,6.914499999999980773e+00,6.992624999999980773e+00,8.258249999999980773e+00,9.976999999999982549e+00,1.153949999999998255e+01,1.258637499999998433e+01,1.446137499999998610e+01,1.563324999999998610e+01,1.653949999999998610e+01,1.830512499999998610e+01,1.816449999999998610e+01,1.722699999999998610e+01,1.783637499999998610e+01,1.853949999999998610e+01,1.816449999999998610e+01,1.794574999999998610e+01,1.788324999999998610e+01,1.705512499999998610e+01,1.850824999999998610e+01,2.005512499999998610e+01,2.075824999999998965e+01,2.185199999999998965e+01,2.343012499999999321e+01,2.513324999999999676e+01,2.777387499999999676e+01,3.132074999999999676e+01,3.361762499999999676e+01,3.672699999999999676e+01,3.861762499999999676e+01,4.019574999999999676e+01,4.118012499999999676e+01,4.088324999999999676e+01,3.960199999999999676e+01,3.652387499999999676e+01,3.293012499999999676e+01,2.891449999999999676e+01,2.600824999999999676e+01,2.308637499999998965e+01,2.150824999999998965e+01,2.174262499999998965e+01,2.113324999999998965e+01,2.175824999999998965e+01,2.325824999999999321e+01,2.350824999999999321e+01,2.419574999999999676e+01,2.560199999999999676e+01,2.608637499999999676e+01,2.516449999999999676e+01,2.522699999999999676e+01,2.622699999999999676e+01,2.693012499999999676e+01,2.916449999999999676e+01,3.158637499999999676e+01,3.311762499999999676e+01,3.475824999999999676e+01,3.824262499999999676e+01,4.153949999999999676e+01,4.343012500000000387e+01,4.536762500000000387e+01,4.697700000000000387e+01,4.747700000000001097e+01,4.816450000000001808e+01,4.861762500000001808e+01,4.707075000000001097e+01,4.558637500000000387e+01,4.508637499999999676e+01,4.527387499999999676e+01,4.568012499999999676e+01,4.674262500000000387e+01,4.810200000000001097e+01,4.952387500000001808e+01,5.164887500000001808e+01,5.474262500000001808e+01,5.739887500000001808e+01,5.977387500000001808e+01,6.205512500000001808e+01,6.439887500000001808e+01,6.763325000000001808e+01,7.097700000000001808e+01,7.489887500000001808e+01,7.766450000000001808e+01,7.955512500000001808e+01,8.125825000000001808e+01,8.282075000000001808e+01,8.353950000000001808e+01,8.283637500000001808e+01,8.308637500000001808e+01,8.346137500000001808e+01,8.385200000000001808e+01,8.568012500000001808e+01,8.663325000000001808e+01,8.697700000000001808e+01,8.749262500000001808e+01,8.808637500000001808e+01,8.777387500000001808e+01,8.644575000000001808e+01,8.496137500000001808e+01,8.311762500000001808e+01,8.211762500000001808e+01,8.196137500000001808e+01,8.238325000000001808e+01,8.414887500000001808e+01,8.578950000000001808e+01,8.850825000000003229e+01,9.257075000000003229e+01,9.597700000000006071e+01,1.005707500000000607e+02,1.048051250000000607e+02,1.084301250000000607e+02,1.093520000000000607e+02,1.097582500000000607e+02,1.081801250000000607e+02,1.040707500000000607e+02,9.824262500000006071e+01,8.797700000000003229e+01,7.478950000000003229e+01,6.021137500000001808e+01,4.561762500000000387e+01,2.889887499999998965e+01,1.105512499999998255e+01,-7.351125000000028997e+00,-2.592925000000003877e+01,-4.238237500000005298e+01,-5.739800000000006719e+01,-7.360112500000008140e+01,-9.113237500000009561e+01,-1.077261250000001098e+02,-1.235230000000001098e+02,-1.386480000000001098e+02,-1.515386250000001098e+02,-1.674136250000001382e+02,-1.835542500000001382e+02,-1.972730000000001667e+02,-2.087573750000001951e+02,-2.205230000000001951e+02,-2.314136250000001951e+02,-2.431011250000001951e+02,-2.570386250000001951e+02,-2.649917500000001951e+02,-2.713823750000001951e+02,-2.762730000000001951e+02,-2.803042500000001951e+02,-2.824136250000001951e+02,-2.836011250000001951e+02,-2.823511250000001951e+02,-2.784917500000001951e+02,-2.776948750000001951e+02,-2.775542500000001951e+02,-2.794761250000001951e+02,-2.826011250000001951e+02,-2.850073750000001951e+02,-2.872105000000001951e+02,-2.896636250000001951e+02,-2.912105000000001951e+02,-2.897105000000001951e+02,-2.871480000000001951e+02,-2.823980000000001951e+02,-2.753355000000001951e+02,-2.673823750000001951e+02,-2.588511250000001951e+02,-2.490386250000001951e+02,-2.401792500000001951e+02,-2.340073750000001951e+02,-2.254761250000001951e+02,-2.159448750000001951e+02,-2.067261250000001951e+02,-1.984605000000001951e+02,-1.908198750000001951e+02,-1.823511250000001382e+02,-1.726480000000001382e+02,-1.604761250000001098e+02,-1.498198750000001098e+02,-1.398355000000001098e+02,-1.278355000000001098e+02,-1.133198750000001098e+02,-9.705425000000009561e+01,-8.255425000000008140e+01,-6.800737500000006719e+01,-5.316362500000005298e+01,-3.756987500000004587e+01,-2.281987500000003877e+01,-1.096050000000003166e+01,-5.073750000000245564e-01,9.633249999999982549e+00,2.219574999999998965e+01,3.532074999999999676e+01,4.835200000000000387e+01,6.069575000000001808e+01,7.380512500000001808e+01,8.972700000000003229e+01,1.049613750000000607e+02,1.194301250000000607e+02,1.314457500000000607e+02,1.415395000000000607e+02,1.498988750000000607e+02,1.584613750000000607e+02,1.669926250000000607e+02,1.726020000000000607e+02,1.770707500000000607e+02,1.821332500000000607e+02,1.888051250000000891e+02,1.960082500000001460e+02,2.045551250000001460e+02,2.123676250000001460e+02,2.210863750000001460e+02,2.316801250000001460e+02,2.438207500000001460e+02,2.555863750000001460e+02,2.656488750000001460e+02,2.747738750000001460e+02,2.822582500000001460e+02,2.901801250000001460e+02,2.957113750000001460e+02,2.994770000000001460e+02,3.026801250000001460e+02,3.049145000000001460e+02,3.073676250000001460e+02,3.120238750000001460e+02,3.170238750000001460e+02,3.206801250000001460e+02,3.250082500000001460e+02,3.298207500000001460e+02,3.342895000000001460e+02,3.381020000000001460e+02,3.405238750000001460e+02,3.390395000000001460e+02,3.361488750000001460e+02,3.328676250000001460e+02,3.285551250000001460e+02,3.225082500000001460e+02,3.151801250000001460e+02,3.087738750000001460e+02,3.039301250000001460e+02,3.004770000000001460e+02,2.981332500000001460e+02,2.975082500000001460e+02,2.978988750000001460e+02,2.988520000000001460e+02,3.005551250000001460e+02,3.011020000000001460e+02,3.001957500000001460e+02,3.006176250000001460e+02,3.016801250000001460e+02,3.002582500000001460e+02,2.965863750000001460e+02,2.939301250000001460e+02,2.911801250000001460e+02,2.881957500000001460e+02,2.859457500000001460e+02,2.818363750000001460e+02,2.766957500000001460e+02,2.737270000000001460e+02,2.731332500000001460e+02,2.719770000000001460e+02,2.711332500000001460e+02,2.713363750000001460e+02,2.714145000000001460e+02,2.723207500000001460e+02,2.738676250000001460e+02,2.743988750000001460e+02,2.741332500000001460e+02,2.742738750000001460e+02,2.733988750000001460e+02,2.733988750000001460e+02,2.746645000000001460e+02,2.761332500000001460e+02,2.763676250000001460e+02,2.767895000000001460e+02,2.766176250000001460e+02,2.760082500000001460e+02,2.766176250000001460e+02,2.748988750000001460e+02,2.714145000000001460e+02,2.686801250000001460e+02,2.673832500000001460e+02,2.653988750000001460e+02,2.644145000000001460e+02,2.632113750000001460e+02,2.622582500000001460e+02,2.621176250000001460e+02,2.624457500000001460e+02,2.620238750000001460e+02,2.617738750000001460e+02,2.633832500000001460e+02,2.653207500000001460e+02,2.672426250000001460e+02,2.682582500000001460e+02,2.705863750000001460e+02,2.729145000000001460e+02,2.756020000000001460e+02,2.774926250000001460e+02,2.774301250000001460e+02,2.776645000000001460e+02,2.788832500000001460e+02,2.809770000000001460e+02,2.823207500000001460e+02,2.846488750000001460e+02,2.870707500000001460e+02,2.892738750000001460e+02,2.917113750000001460e+02,2.926332500000001460e+02,2.936645000000001460e+02,2.945082500000001460e+02,2.957895000000001460e+02,2.970238750000001460e+02,2.979926250000001460e+02,3.001176250000001460e+02,3.042113750000001460e+02,3.092895000000001460e+02,3.136020000000001460e+02,3.167113750000001460e+02,3.196176250000001460e+02,3.219613750000001460e+02,3.235238750000001460e+02,3.240395000000001460e+02,3.230707500000001460e+02,3.224613750000001460e+02,3.220551250000001460e+02,3.230707500000001460e+02,3.232895000000001460e+02,3.230395000000001460e+02,3.235395000000001460e+02,3.237895000000001460e+02,3.234301250000001460e+02,3.214145000000001460e+02,3.194613750000001460e+02,3.161488750000001460e+02,3.138363750000001460e+02,3.109301250000001460e+02,3.065863750000001460e+02,3.033207500000001460e+02,3.014926250000001460e+02,3.011645000000001460e+02,2.998051250000001460e+02,2.993988750000001460e+02,2.985395000000001460e+02,2.988988750000001460e+02,3.005707500000001460e+02,3.020863750000001460e+02,3.031957500000001460e+02,3.027738750000001460e+02,3.035863750000001460e+02,3.042270000000001460e+02,3.042895000000001460e+02,3.032426250000001460e+02,3.017270000000001460e+02,2.991488750000001460e+02,2.948832500000001460e+02,2.919457500000001460e+02,2.889301250000001460e+02,2.836332500000001460e+02,2.783832500000001460e+02,2.745395000000001460e+02,2.698363750000001460e+02,2.649613750000001460e+02,2.608676250000001460e+02,2.557895000000001460e+02,2.479613750000001460e+02,2.425395000000001460e+02,2.372113750000001460e+02,2.309145000000001460e+02,2.257738750000001460e+02,2.212113750000001460e+02,2.155238750000001460e+02,2.100863750000001460e+02,2.065082500000001460e+02,2.034457500000001460e+02,1.997426250000001460e+02,1.963832500000001460e+02,1.921020000000000891e+02,1.857895000000000891e+02,1.816488750000000891e+02,1.762895000000000607e+02,1.716645000000000607e+02,1.647738750000000607e+02,1.576645000000000607e+02,1.483520000000000607e+02,1.386957500000000607e+02,1.315395000000000607e+02,1.230395000000000607e+02,1.155395000000000607e+02,1.074457500000000607e+02,1.005082500000000607e+02,9.485200000000003229e+01,9.057075000000001808e+01,8.853950000000001808e+01,8.552387500000001808e+01,8.357075000000001808e+01,8.327387500000001808e+01,8.324262500000001808e+01,8.302387500000001808e+01,8.308637500000001808e+01,8.493012500000001808e+01,8.525825000000001808e+01,8.691450000000001808e+01,8.793012500000001808e+01,8.697700000000001808e+01,8.452387500000001808e+01,8.189887500000001808e+01,7.800825000000001808e+01,7.261762500000001808e+01,6.719575000000001808e+01,5.938325000000001808e+01,5.118012500000001097e+01,4.386762500000000387e+01,3.821137499999999676e+01,3.289887499999999676e+01,2.760199999999999676e+01,2.232074999999998965e+01,1.710199999999998965e+01,1.253949999999998255e+01,7.976999999999978996e+00,9.144999999999749996e-01,-8.273000000000031662e+00,-1.742925000000003877e+01,-2.766362500000004232e+01,-3.897612500000005298e+01,-5.046050000000005298e+01,-6.152300000000006719e+01,-7.224175000000006719e+01,-8.097612500000006719e+01,-8.688237500000008140e+01,-9.233550000000008140e+01,-9.550737500000009561e+01,-9.683550000000010982e+01,-9.769487500000010982e+01,-9.596050000000010982e+01,-9.199175000000008140e+01,-8.536675000000008140e+01,-7.767925000000006719e+01,-6.936675000000006719e+01,-5.938237500000006719e+01,-4.930425000000005298e+01,-3.717925000000004587e+01,-2.636675000000003877e+01,-1.864800000000003521e+01,-1.325737500000003344e+01,-1.160112500000003166e+01,-1.302300000000003166e+01,-1.825737500000003521e+01,-2.617925000000003877e+01,-3.949175000000005298e+01,-5.522612500000006008e+01,-7.119487500000006719e+01,-8.822612500000008140e+01,-1.026011250000001098e+02,-1.136792500000001098e+02,-1.227886250000001098e+02,-1.273355000000001098e+02,-1.269136250000001098e+02,-1.248667500000001098e+02,-1.196636250000001098e+02,-1.133667500000001098e+02,-1.086011250000001098e+02,-1.039761250000001098e+02,-1.013511250000001098e+02,-1.063042500000001098e+02,-1.165855000000001098e+02,-1.291792500000001098e+02,-1.470230000000001098e+02,-1.678980000000001382e+02,-1.923511250000001667e+02,-2.213198750000001951e+02,-2.517105000000001951e+02,-2.775698750000001951e+02,-3.004448750000001951e+02,-3.229292500000001951e+02,-3.436792500000001951e+02,-3.626636250000002519e+02,-3.779136250000003656e+02,-3.911948750000003656e+02,-4.011636250000003656e+02,-4.102573750000003656e+02,-4.183667500000003656e+02,-4.242886250000003656e+02,-4.282417500000003656e+02,-4.307105000000003656e+02,-4.324917500000003656e+02,-4.324761250000003656e+02,-4.324448750000003656e+02,-4.324292500000003656e+02,-4.324136250000003656e+02,-4.324136250000003656e+02,-4.324136250000003656e+02,-4.324136250000003656e+02,-4.324136250000003656e+02,-4.323823750000003656e+02,-4.323667500000003656e+02,-4.323511250000003656e+02,-4.323198750000003656e+02,-4.322886250000003656e+02,-4.322261250000003656e+02,-4.321792500000003656e+02,-4.321323750000003656e+02,-4.321011250000003656e+02,-4.321011250000003656e+02,-4.321011250000003656e+02,-4.321480000000003656e+02,-4.321948750000003656e+02,-4.322886250000003656e+02,-4.323511250000003656e+02,-4.324136250000003656e+02,-4.324761250000003656e+02,-4.324917500000003656e+02,-4.324917500000003656e+02,-4.324448750000003656e+02,-4.323980000000003656e+02,-4.323511250000003656e+02,-4.323198750000003656e+02,-4.323042500000003656e+02,-4.322886250000003656e+02,-4.322886250000003656e+02,-4.323198750000003656e+02,-4.323355000000003656e+02,-4.323355000000003656e+02,-4.323042500000003656e+02,-4.322573750000003656e+02,-4.321948750000003656e+02,-4.321323750000003656e+02,-4.320698750000003656e+02,-4.319917500000003656e+02,-4.319761250000003656e+02,-4.319917500000003656e+02,-4.320386250000003656e+02,-4.321167500000003656e+02,-4.321792500000003656e+02,-4.322417500000003656e+02,-4.323042500000003656e+02,-4.323667500000003656e+02,-4.323823750000003656e+02,-4.323980000000003656e+02,-4.323823750000003656e+02,-4.320855000000003656e+02,-4.304136250000003656e+02,-4.276011250000003656e+02,-4.226011250000003656e+02,-4.156948750000003656e+02,-4.060386250000003656e+02,-3.935698750000003656e+02,-3.765698750000003656e+02,-3.560855000000002519e+02,-3.348198750000001951e+02,-3.108042500000001951e+02,-2.852573750000001951e+02,-2.580542500000001951e+02,-2.315386250000001951e+02,-2.043198750000001951e+02,-1.808980000000001382e+02,-1.591167500000001382e+02,-1.374136250000001098e+02,-1.169292500000001098e+02,-9.756987500000009561e+01,-7.897612500000008140e+01,-5.892925000000006719e+01,-3.971050000000005298e+01,-1.846050000000003877e+01,4.195749999999976332e+00,2.833637499999998965e+01,5.097700000000000387e+01,7.294575000000001808e+01,9.407075000000003229e+01,1.141020000000000607e+02,1.329926250000000607e+02,1.512738750000000607e+02,1.634926250000000607e+02,1.692426250000000607e+02,1.722738750000000607e+02,1.699457500000000607e+02,1.619926250000000607e+02,1.478363750000000607e+02,1.282113750000000607e+02
-9.125000000000008882e+00,-3.282812500000002132e+01,-3.859375000000002842e+01,-3.578125000000002842e+01,-2.239062500000001421e+01,-6.781250000000003553e+00,-3.749999999999998890e-01,6.578125000000004441e+00,8.656250000000007105e+00,3.500000000000001776e+00,2.531250000000001776e+00,-2.812500000000001332e+00,-6.203125000000003553e+00,-4.468750000000002665e+00,-4.921875000000002665e+00,-5.312500000000000000e-01,5.625000000000006661e-01,-7.812500000000000000e-02,-1.406250000000000000e-01,-5.750000000000003553e+00,-7.718750000000005329e+00,-7.781250000000005329e+00,-8.937500000000005329e+00,-3.031250000000001776e+00,1.656250000000000888e+00,4.250000000000002665e+00,1.067187500000000711e+01,1.170312500000000711e+01,1.332812500000000711e+01,1.379687500000000711e+01,9.203125000000005329e+00,4.187500000000002665e+00,-2.531250000000001332e+00,-5.156250000000003553e+00,-3.937500000000002665e+00,6.250000000000006661e-01,4.140625000000003553e+00,2.937500000000002220e+00,-2.921875000000001332e+00,-9.968750000000005329e+00,-1.242187500000000711e+01,-1.175000000000000711e+01,-4.109375000000001776e+00,1.953125000000001332e+00,4.468750000000003553e+00,7.734375000000005329e+00,4.640625000000003553e+00,3.953125000000002665e+00,4.203125000000002665e+00,1.093750000000000888e+00,1.656250000000000888e+00,2.187500000000000000e-01,-1.250000000000000666e+00,-9.218750000000006661e-01,-3.343750000000001776e+00,-3.406250000000002220e+00,-3.765625000000002665e+00,-3.765625000000002665e+00,-1.110223024625156540e-16,-5.625000000000004441e-01,-8.593750000000005551e-01,-1.656250000000000888e+00,-6.406250000000003553e+00,-5.250000000000003553e+00,-3.406250000000002665e+00,-1.125000000000001110e+00,4.046875000000002665e+00,4.859375000000003553e+00,3.953125000000002665e+00,3.671875000000002665e+00,2.265625000000001776e+00,1.171875000000000888e+00,2.171875000000001776e+00,-6.249999999999977796e-02,-2.703125000000001776e+00,-3.062500000000001776e+00,-5.531250000000003553e+00,-4.375000000000003553e+00,-3.750000000000002665e+00,-3.890625000000002665e+00,-2.390625000000001776e+00,-8.125000000000005551e-01,3.593750000000003109e+00,4.687500000000003553e+00,5.734375000000003553e+00,2.281250000000001776e+00,-4.593750000000002665e+00,-4.921875000000003553e+00,-7.296875000000003553e+00,-3.265625000000001332e+00,2.593750000000001776e+00,1.250000000000001110e+00,3.171875000000001776e+00,-6.093750000000008882e-01,-3.703125000000002665e+00,-8.125000000000006661e-01,9.374999999999983347e-02,4.046875000000002665e+00,6.859375000000005329e+00,4.890625000000003553e+00,1.781250000000001110e+00,-4.375000000000003331e-01,-4.437500000000002665e+00,-3.968750000000002665e+00,-9.687500000000007772e-01,-1.734375000000001332e+00,2.062500000000000888e+00,2.421875000000001332e+00,1.546875000000000888e+00,3.656250000000002665e+00,1.703125000000001110e+00,1.093750000000000833e-01,-1.812500000000001332e+00,-4.031250000000002665e+00,-5.640625000000003553e+00,-4.625000000000003553e+00,-2.140625000000001776e+00,-1.265625000000001110e+00,3.015625000000001776e+00,3.937500000000002665e+00,1.593750000000000888e+00,2.828125000000001776e+00,-1.625000000000000888e+00,-3.421875000000002220e+00,-6.093750000000005551e-01,-3.078125000000001776e+00,8.125000000000008882e-01,3.015625000000002220e+00,1.140625000000000888e+00,3.703125000000002220e+00,-2.500000000000000000e-01,-2.828125000000001332e+00,-3.531250000000002665e+00,-5.828125000000003553e+00,-2.734375000000001776e+00,-2.796875000000001776e+00,-2.234375000000000888e+00,-1.718750000000000888e+00,-3.265625000000001776e+00,1.687500000000001332e+00,5.296875000000003553e+00,8.312500000000005329e+00,1.081250000000000711e+01,5.734375000000003553e+00,1.484375000000000888e+00,-2.015625000000001332e+00,-5.921875000000003553e+00,-5.578125000000003553e+00,-6.453125000000003553e+00,-5.812500000000003553e+00,-3.046875000000001776e+00,-7.500000000000001110e-01,4.515625000000003553e+00,6.296875000000003553e+00,5.828125000000003553e+00,5.531250000000003553e+00,2.187500000000000000e-01,-2.609375000000002220e+00,-4.281250000000003553e+00,-7.765625000000005329e+00,-5.343750000000003553e+00,-3.718750000000001776e+00,-1.140625000000000000e+00,4.312500000000002665e+00,4.109375000000002665e+00,4.875000000000003553e+00,2.781250000000001776e+00,-1.734375000000001332e+00,-7.968750000000006661e-01,-1.500000000000001110e+00,8.281250000000000000e-01,4.015625000000002665e+00,2.484375000000001776e+00,2.078125000000001332e+00,6.875000000000005551e-01,3.281250000000003331e-01,1.656250000000001332e+00,2.250000000000001332e+00,1.484375000000000888e+00,-2.375000000000001776e+00,-3.703125000000002665e+00,-2.890625000000001776e+00,-1.828125000000001332e+00,2.796875000000002220e+00,2.437500000000001776e+00,-1.921875000000001332e+00,-2.468750000000001776e+00,-4.921875000000003553e+00,-2.687500000000001776e+00,4.000000000000002665e+00,4.859375000000003553e+00,6.062500000000003553e+00,5.250000000000003553e+00,1.406250000000000666e+00,6.406250000000003331e-01,3.906250000000001665e-01,-1.546875000000001332e+00,-3.265625000000002665e+00,-4.140625000000002665e+00,-6.921875000000003553e+00,-5.328125000000003553e+00,-2.937500000000001776e+00,-2.031250000000001332e+00,2.968750000000001332e+00,2.968750000000001332e+00,4.781250000000002665e+00,6.906250000000003553e+00,3.984375000000002665e+00,3.671875000000002665e+00,-9.062500000000004441e-01,-4.546875000000003553e+00,-5.390625000000003553e+00,-5.000000000000003553e+00,-1.671875000000001110e+00,-9.531250000000004441e-01,2.968750000000002220e-01,-6.250000000000005551e-01,-8.906250000000009992e-01,1.453125000000000888e+00,2.515625000000001776e+00,4.828125000000003553e+00,5.109375000000003553e+00,3.671875000000002665e+00,3.015625000000002220e+00,-2.031250000000004441e-01,-3.328125000000002665e+00,-3.484375000000002665e+00,-5.406250000000003553e+00,-2.828125000000001776e+00,4.843750000000001110e-01,-1.875000000000004996e-01,1.562500000000000666e+00,-1.015625000000000666e+00,-1.953125000000000888e+00,-2.812500000000000000e-01,2.031250000000003331e-01,4.359375000000002665e+00,4.812500000000002665e+00,4.625000000000002665e+00,5.156250000000002665e+00,2.218750000000001332e+00,2.390625000000001776e+00,1.328125000000000888e+00,-2.593750000000001332e+00,-4.937500000000003553e+00,-7.656250000000005329e+00,-7.781250000000005329e+00,-3.187500000000002665e+00,2.562500000000002220e+00,5.921875000000005329e+00,6.328125000000005329e+00,3.921875000000002665e+00,2.968750000000003331e-01,-1.906250000000001332e+00,-5.625000000000005551e-01,-1.109375000000000888e+00,-1.937500000000001554e+00,-7.187500000000005551e-01,-3.531250000000002665e+00,-1.671875000000001332e+00,4.843750000000002220e-01,6.718750000000002220e-01,3.296875000000002220e+00,2.937500000000001776e+00,2.765625000000001776e+00,1.609375000000000888e+00,1.343750000000000444e+00,1.656250000000001110e+00,1.859375000000001554e+00,3.484375000000002665e+00,1.343750000000001110e+00,-1.875000000000001332e+00,-4.421875000000002665e+00,-7.468750000000004441e+00,-6.296875000000003553e+00,-3.734375000000002220e+00,-2.421875000000001776e+00,2.031250000000002220e-01,1.375000000000000888e+00,3.281250000000002220e+00,5.437500000000003553e+00,5.281250000000003553e+00,2.218750000000001332e+00,-3.109375000000002220e+00,-8.000000000000005329e+00,-1.081250000000000711e+01,-7.734375000000005329e+00,-2.890625000000001776e+00,3.015625000000002220e+00,8.484375000000005329e+00,8.281250000000005329e+00,7.640625000000005329e+00,5.000000000000003553e+00,1.250000000000000888e+00,-4.687500000000005551e-02,-1.140625000000000888e+00,-1.015625000000000444e+00,-1.265625000000000888e+00,-1.062500000000000666e+00,-2.296875000000001332e+00,-4.562500000000002665e+00,-3.171875000000001776e+00,-1.250000000000000888e+00,1.828125000000000888e+00,5.390625000000003553e+00,3.796875000000002665e+00,-6.093749999999998890e-01,-3.687500000000001776e+00,-5.140625000000002665e+00,-1.921875000000000888e+00,2.656250000000001776e+00,4.218750000000002665e+00,3.765625000000002220e+00,-9.218750000000004441e-01,-3.031250000000001776e+00,-2.875000000000001776e+00,-3.640625000000002220e+00,1.562500000000000000e-01,-1.562500000000022204e-02,-3.125000000000004441e-01,3.812500000000001776e+00,3.593750000000001776e+00,4.625000000000003553e+00,4.406250000000003553e+00,-1.765625000000001332e+00,-4.703125000000003553e+00,-5.187500000000003553e+00,-3.625000000000003109e+00,2.453125000000000888e+00,6.046875000000003553e+00,6.937500000000004441e+00,4.234375000000002665e+00,5.781250000000006661e-01,-1.125000000000000444e+00,-3.250000000000001776e+00,-1.984375000000001332e+00,-2.531250000000001332e+00,-4.203125000000002665e+00,-4.203125000000002665e+00,-3.812500000000002665e+00,-1.609375000000001110e+00,7.968750000000006661e-01,3.734375000000002665e+00,1.906250000000001332e+00,5.625000000000005551e-01,-1.140625000000000444e+00,-5.625000000000003553e+00,-3.750000000000002220e+00,-4.656250000000003553e+00,-3.265625000000002220e+00,9.687500000000007772e-01,9.062500000000008882e-01,3.343750000000002665e+00,2.890625000000002665e+00,2.593750000000001776e+00,4.031250000000003553e+00,5.140625000000003553e+00,8.515625000000005329e+00,8.546875000000005329e+00,6.390625000000003553e+00,4.265625000000002665e+00,-1.468750000000000666e+00,-4.843750000000002665e+00,-4.453125000000002665e+00,-5.828125000000003553e+00,-3.796875000000002665e+00,-1.015625000000000666e+00,-1.593750000000001332e+00,-1.000000000000000888e+00,-6.562500000000005551e-01,-2.343750000000001776e+00,-2.812500000000001776e+00,-2.187500000000001332e+00,-2.343750000000001332e+00,-7.500000000000003331e-01,1.296875000000000888e+00,2.562500000000001776e+00,3.218750000000001776e+00,2.187500000000001332e+00,-9.375000000000011102e-02,-2.625000000000001776e+00,-3.187500000000001776e+00,-2.875000000000001776e+00,2.187500000000002220e-01,3.218750000000002665e+00,2.265625000000001776e+00,3.000000000000001776e+00,2.187500000000000000e-01,-3.656250000000002665e+00,-1.984375000000001332e+00,-3.125000000000001332e+00,-3.937500000000001776e+00,-1.203125000000000888e+00,-2.906250000000001776e+00,-4.109375000000002665e+00,-3.437500000000004441e-01,-1.562500000000000000e-01,1.546875000000000666e+00,5.593750000000003553e+00,2.734375000000001332e+00,1.265625000000000666e+00,4.843750000000000000e-01,-2.015625000000001776e+00,7.812500000000000000e-02,1.687500000000001110e+00,3.187500000000002220e+00,3.265625000000002220e+00,8.750000000000006661e-01,1.421875000000000666e+00,9.375000000000002220e-01,3.546875000000001776e+00,9.609375000000005329e+00,9.953125000000005329e+00,9.296875000000005329e+00,5.562500000000002665e+00,-4.421875000000002665e+00,-8.968750000000005329e+00,-1.035937500000000711e+01,-9.187500000000005329e+00,-7.812500000000000000e-01,2.859375000000001776e+00,5.218750000000004441e+00,4.796875000000003553e+00,-1.187500000000000222e+00,-2.218750000000000888e+00,-6.250000000000003553e+00,-6.359375000000003553e+00,-2.968750000000001776e+00,-4.421875000000002665e+00,-3.750000000000002220e-01,4.687499999999977796e-02,-2.656250000000001776e+00,6.249999999999988898e-02,-1.750000000000000888e+00,-1.546875000000000666e+00,3.078125000000001776e+00,2.218750000000001332e+00,3.500000000000002665e+00,2.921875000000002220e+00,-1.000000000000000666e+00,-4.375000000000003331e-01,-1.546875000000001110e+00,1.187500000000000666e+00,2.625000000000001776e+00,-4.687500000000007216e-01,8.437500000000002220e-01,-3.578125000000001776e+00,-4.593750000000002665e+00,-1.562500000000000347e-02,-2.968750000000001776e+00,-3.125000000000004441e-01,1.984375000000000888e+00,-2.468750000000001332e+00,9.531250000000006661e-01,-4.687500000000008882e-01,-4.640625000000003553e+00,-1.562500000000000666e+00,-2.765625000000001332e+00,1.843750000000002220e+00,9.921875000000007105e+00,1.303125000000000888e+01,1.443750000000001066e+01,9.328125000000007105e+00,6.093750000000000000e-01,-8.375000000000007105e+00,-1.153125000000000888e+01,-1.073437500000000711e+01,-7.968750000000005329e+00,-1.078125000000001110e+00,-9.375000000000000000e-02,3.125000000000000000e-02,2.156250000000001776e+00,1.593750000000001110e+00,3.781250000000002665e+00,5.500000000000003553e+00,2.578125000000001776e+00,-2.000000000000001332e+00,-5.437500000000004441e+00,-7.812500000000005329e+00,-5.328125000000003553e+00,6.250000000000000000e-02,1.765625000000001332e+00,3.859375000000002665e+00,1.093750000000000666e+00,-3.203125000000001776e+00,-1.687500000000000888e+00,-3.328125000000002220e+00,3.593750000000004441e-01,6.687500000000004441e+00,5.625000000000003553e+00,8.375000000000005329e+00,5.546875000000004441e+00,-1.531250000000000888e+00,-1.734375000000001332e+00,-5.609375000000003553e+00,-4.859375000000002665e+00,-2.140625000000001332e+00,-5.203125000000003553e+00,-3.250000000000001776e+00,-3.421875000000001776e+00,-1.546875000000000444e+00,5.296875000000003553e+00,5.828125000000004441e+00,5.703125000000004441e+00,7.968750000000013323e-01,-7.046875000000003553e+00,-9.343750000000005329e+00,-8.937500000000005329e+00,-2.484375000000001776e+00,5.187500000000003553e+00,1.117187500000000711e+01,1.309375000000000888e+01,9.093750000000005329e+00,4.062500000000002665e+00,-4.359375000000001776e+00,-8.796875000000005329e+00,-8.421875000000005329e+00,-7.750000000000005329e+00,-2.015625000000001332e+00,2.781250000000001776e+00,4.875000000000003553e+00,8.109375000000005329e+00,8.828125000000005329e+00,5.640625000000003553e+00,2.718750000000001776e+00,-2.296875000000001776e+00,-8.265625000000005329e+00,-7.265625000000004441e+00,-6.359375000000004441e+00,-3.468750000000002220e+00,1.703125000000000888e+00,-4.375000000000004441e-01,-1.031250000000000666e+00,-3.531250000000002220e+00,-5.937500000000003553e+00,-2.968750000000001776e+00,-1.328125000000001110e+00,4.859375000000002665e+00,8.625000000000005329e+00,1.196875000000000711e+01,1.660937500000001066e+01,1.403125000000000888e+01,1.317187500000000711e+01,1.000000000000000533e+01,4.875000000000002665e+00,6.578125000000003553e+00,6.546875000000003553e+00,5.328125000000003553e+00,3.984375000000003109e+00,-3.484375000000003109e+00,-7.343750000000005329e+00,-8.453125000000005329e+00,-8.125000000000005329e+00,-9.218750000000002220e-01,1.796875000000000666e+00,5.640625000000002665e+00,9.937500000000007105e+00,4.125000000000002665e+00,-1.046875000000000222e+00,-8.484375000000003553e+00,-1.784375000000001066e+01,-1.375000000000000711e+01,-2.890625000000000888e+00,4.750000000000003553e+00,1.357812500000001066e+01,1.057812500000000711e+01,-2.109375000000002665e+00,-9.656250000000007105e+00,-1.720312500000001066e+01,-2.006250000000001421e+01,-1.790625000000001066e+01,-1.248437500000000711e+01,-6.921875000000004441e+00,2.453125000000000444e+00,1.284375000000000711e+01,1.248437500000000711e+01,1.278125000000000711e+01,6.203125000000004441e+00,-1.859375000000001332e+00,-4.531250000000003331e-01,-2.937500000000001332e+00,-1.796875000000000444e+00,-4.625000000000001776e+00,-1.418750000000000711e+01,-1.662500000000001066e+01,-2.006250000000001421e+01,-1.337500000000000711e+01,1.796875000000001998e+00,7.953125000000006217e+00,1.582812500000001066e+01,1.209375000000000711e+01,-4.531250000000002220e-01,-4.359375000000002665e+00,-1.132812500000000711e+01,-9.109375000000005329e+00,-3.062500000000001776e+00,-5.156250000000004441e-01,6.328125000000004441e+00,5.500000000000004441e+00,4.140625000000002665e+00,-9.531250000000004441e-01,-1.025000000000000711e+01,-1.262500000000000888e+01,-1.439062500000000711e+01,-9.343750000000003553e+00,-5.937499999999997780e-01,4.734375000000002665e+00,1.164062500000000711e+01,1.292187500000000711e+01,8.984375000000003553e+00,5.937500000000003553e+00,-1.390625000000001332e+00,-4.218750000000002665e+00,-2.656250000000001776e+00,-5.843750000000003553e+00,-5.062500000000002665e+00,-8.343750000000005329e+00,-1.026562500000000711e+01,-2.375000000000002220e+00,3.765625000000001332e+00,1.323437500000000711e+01,1.715625000000001066e+01,1.318750000000000888e+01,9.203125000000005329e+00,1.578125000000001554e+00,-1.953125000000001332e+00,-3.250000000000002220e+00,-4.406250000000003553e+00,-1.031250000000000888e+00,4.843750000000004441e-01,9.687500000000009992e-01,-7.031249999999997780e-01,-6.078125000000003553e+00,-9.484375000000005329e+00,-1.095312500000000711e+01,-5.968750000000004441e+00,2.031249999999996114e-01,6.203125000000003553e+00,1.351562500000000711e+01,1.346875000000000711e+01,1.429687500000000888e+01,1.157812500000000711e+01,2.312500000000001332e+00,-2.953125000000001332e+00,-8.937500000000007105e+00,-1.095312500000000711e+01,-5.984375000000003553e+00,-1.484375000000001332e+00,2.546875000000001332e+00,4.343750000000002665e+00,4.406250000000002665e+00,3.000000000000001776e+00,2.187500000000001776e+00,4.390625000000002665e+00,5.750000000000002665e+00,1.089062500000000533e+01,1.573437500000000888e+01,1.435937500000000711e+01,9.843750000000005329e+00,-1.953125000000002665e+00,-1.479687500000001066e+01,-2.045312500000001421e+01,-1.993750000000001421e+01,-1.090625000000000711e+01,1.031250000000000888e+00,7.953125000000004441e+00,9.625000000000005329e+00,4.296875000000001776e+00,-2.125000000000001776e+00,-3.781250000000002665e+00,-2.703125000000001776e+00,3.609375000000002220e+00,7.656250000000005329e+00,5.515625000000004441e+00,4.234375000000003553e+00,1.093750000000000000e-01,-1.968750000000001332e+00,-2.187500000000001665e-01,-3.593750000000002220e-01,1.562500000000002220e-01,-1.312500000000000888e+00,-2.906250000000001776e+00,-5.750000000000003553e+00,-9.343750000000005329e+00,-7.484375000000004441e+00,-5.062500000000003553e+00,1.656250000000000888e+00,1.023437500000000711e+01,1.082812500000000711e+01,8.593750000000005329e+00,8.281250000000000000e-01,-7.921875000000005329e+00,-1.010937500000000711e+01,-9.937500000000007105e+00,-3.218750000000002220e+00,2.171875000000000888e+00,5.000000000000003553e+00,9.859375000000007105e+00,7.593750000000005329e+00,6.296875000000003553e+00,5.390625000000003553e+00,-2.625000000000001776e+00,-4.765625000000003553e+00,-5.281250000000003553e+00,-8.171875000000005329e+00,-2.812500000000001776e+00,7.812500000000022204e-02,1.562500000000002220e-01,4.734375000000003553e+00,3.218750000000002665e+00,3.281249999999999445e-01,3.281249999999999445e-01,-5.843750000000003553e+00,-8.468750000000005329e+00,-7.140625000000003553e+00,-7.781250000000005329e+00,1.015625000000000444e+00,9.000000000000005329e+00,1.081250000000000711e+01,1.248437500000000711e+01,4.171875000000001776e+00,-6.687500000000003553e+00,-9.406250000000007105e+00,-1.143750000000000711e+01,-7.406250000000004441e+00,2.140625000000000888e+00,3.093750000000001776e+00,5.578125000000002665e+00,6.140625000000003553e+00,1.406250000000000888e+00,4.812500000000003553e+00,3.343750000000002665e+00,4.375000000000004441e-01,-1.359375000000000222e+00,-1.045312500000000711e+01,-1.264062500000000711e+01,-1.135937500000000711e+01,-6.562500000000004441e+00,4.812500000000003553e+00,1.095312500000000711e+01,1.529687500000001066e+01,1.407812500000000711e+01,6.515625000000003553e+00,0.000000000000000000e+00,-7.281250000000005329e+00,-9.421875000000007105e+00,-6.453125000000004441e+00,-2.656250000000001776e+00,2.500000000000001776e+00,4.687500000000003553e+00,3.437500000000002220e+00,3.625000000000002220e+00,2.359375000000001332e+00,2.250000000000001332e+00,5.140625000000002665e+00,3.765625000000001776e+00,2.515625000000001332e+00,-3.281250000000004441e-01,-4.921875000000003553e+00,-5.968750000000003553e+00,-4.640625000000003553e+00,-2.312500000000001776e+00,-1.390625000000000888e+00,-7.343750000000003331e-01,-2.625000000000001332e+00,-2.546875000000001332e+00,1.562500000000004718e-01,8.281250000000008882e-01,2.281250000000001776e+00,1.265625000000001110e+00,-1.171875000000000888e+00,-3.750000000000003331e-01,1.625000000000000888e+00,3.421875000000001776e+00,7.062500000000003553e+00,7.140625000000003553e+00,4.968750000000002665e+00,3.656250000000002220e+00,-2.015625000000001332e+00,-3.468750000000002665e+00,-4.468750000000003553e+00,-4.625000000000003553e+00,3.265625000000001332e+00,2.953125000000001332e+00,4.984375000000003553e+00,6.937500000000004441e+00,-1.734375000000001110e+00,1.312500000000000888e+00,6.406250000000000000e-01,-3.125000000000002665e+00,5.156250000000001110e-01,-6.671875000000004441e+00,-8.234375000000005329e+00,-4.734375000000002665e+00,-2.218750000000001332e+00,8.468750000000005329e+00,9.921875000000007105e+00,5.468750000000003553e+00,-9.375000000000008882e-01,-1.037500000000000711e+01,-9.296875000000007105e+00,1.874999999999995559e-01,1.012500000000000533e+01,1.564062500000000888e+01,1.456250000000000888e+01,2.000000000000000888e+00,-6.781250000000003553e+00,-8.687500000000005329e+00,-9.187500000000007105e+00,6.875000000000008882e-01,1.718750000000001332e+00,-4.687500000000000000e-01,-2.625000000000001332e+00,-1.121875000000000711e+01,-9.000000000000007105e+00,-6.421875000000005329e+00,-2.468750000000001776e+00,4.078125000000002665e+00,2.671875000000001776e+00,8.281250000000008882e-01,-3.234375000000002220e+00,-5.890625000000003553e+00,-3.656250000000002665e+00,-1.625000000000001332e+00,3.609375000000002665e+00,7.312500000000005329e+00,7.390625000000005329e+00,1.132812500000000711e+01,1.078125000000000711e+01,7.671875000000005329e+00,5.468750000000003553e+00,-3.531250000000001776e+00,-8.265625000000005329e+00,-8.265625000000005329e+00,-6.671875000000003553e+00,-2.968750000000000000e-01,2.500000000000001776e+00,1.656250000000001110e+00,0.000000000000000000e+00,-2.000000000000001332e+00,-6.875000000000005551e-01,4.812500000000002665e+00,1.093750000000000711e+01,1.390625000000000888e+01,1.489062500000000888e+01,7.203125000000003553e+00,-5.062500000000003553e+00,-1.168750000000000711e+01,-2.015625000000001421e+01,-1.710937500000001066e+01,-6.578125000000003553e+00,-3.812500000000000888e+00,4.109375000000002665e+00,8.750000000000008882e-01,-7.390625000000003553e+00,-7.875000000000005329e+00,-1.484375000000000888e+01,-1.196875000000000711e+01,-9.468750000000007105e+00,-1.065625000000000711e+01,-3.515625000000002220e+00,-1.531250000000000444e+00,5.843750000000003553e+00,1.278125000000000711e+01,1.375000000000000888e+01,1.504687500000001066e+01,1.270312500000000888e+01,1.475000000000001066e+01,1.635937500000001066e+01,2.040625000000001421e+01,2.221875000000001421e+01,1.326562500000000711e+01,6.859375000000005329e+00,-6.734375000000004441e+00,-2.192187500000001421e+01,-2.503125000000002132e+01,-3.142187500000002132e+01,-2.987500000000001421e+01,-1.717187500000000711e+01,-1.046875000000000711e+01,1.265625000000001776e+00,1.340625000000001066e+01,1.364062500000000888e+01,1.389062500000000888e+01,1.370312500000000711e+01,9.968750000000005329e+00,1.618750000000001066e+01,2.878125000000001776e+01,3.531250000000002132e+01,3.531250000000002132e+01,2.176562500000001421e+01,-4.515625000000002665e+00,-2.531250000000001776e+01,-3.251562500000002132e+01,-2.739062500000001776e+01,-1.028125000000000711e+01,2.593750000000001332e+00,5.140625000000003553e+00,2.390625000000001776e+00,-8.265625000000005329e+00,-1.435937500000001066e+01,-1.526562500000001066e+01,-1.440625000000000888e+01,-8.359375000000005329e+00,-4.281250000000002665e+00,-1.750000000000001332e+00,9.375000000000006939e-02,7.812500000000005551e-02,4.687500000000002776e-02,3.125000000000002082e-02,1.562500000000001041e-02,-4.687500000000004163e-02,-4.687500000000004163e-02,-4.687500000000004163e-02,-4.687500000000004163e-02,4.687500000000004163e-02,3.125000000000002776e-02,1.562500000000001735e-02,-1.562500000000000694e-02,-1.093750000000000833e-01,-1.093750000000000833e-01,-9.375000000000008327e-02,-1.562500000000001388e-02,7.812500000000006939e-02,2.031250000000001665e-01,2.656250000000002220e-01,2.500000000000002220e-01,2.343750000000001943e-01,1.562500000000004163e-02,-1.093750000000000555e-01,-2.343750000000001665e-01,-3.593750000000002776e-01,-2.187500000000001665e-01,-1.562500000000001388e-01,-1.562500000000002776e-02,1.250000000000001110e-01,7.812500000000006939e-02,1.093750000000000833e-01,9.375000000000006939e-02,7.812500000000005551e-02,1.406250000000001110e-01,1.093750000000000833e-01,0.000000000000000000e+00,-1.250000000000001110e-01,-2.812500000000002220e-01,-3.906250000000003331e-01,-2.656250000000002220e-01,-7.812500000000004163e-02,1.718750000000001388e-01,4.687500000000003331e-01,4.531250000000003331e-01,3.437500000000002220e-01,1.406250000000001110e-01,-1.562500000000001110e-01,-2.187500000000001665e-01,-2.187500000000001665e-01,-1.562500000000001110e-01,-3.125000000000002082e-02,-1.562500000000001041e-02,0.000000000000000000e+00,-1.562500000000001041e-02,-3.125000000000001665e-01,-1.921875000000001554e+00,-4.734375000000003553e+00,-9.671875000000007105e+00,-1.545312500000001066e+01,-1.854687500000001066e+01,-1.976562500000001421e+01,-1.689062500000001421e+01,-1.200000000000000888e+01,-7.828125000000005329e+00,-4.468750000000002665e+00,-1.828125000000000888e+00,1.031250000000001554e+00,2.140625000000001776e+00,4.984375000000003553e+00,7.500000000000006217e+00,9.031250000000007105e+00,1.270312500000001066e+01,1.359375000000001066e+01,7.859375000000006217e+00,-2.968750000000000000e-01,-1.190625000000000888e+01,-2.200000000000001421e+01,-1.900000000000001421e+01,-1.146875000000000711e+01,2.328125000000002665e+00,1.693750000000001421e+01,1.784375000000001066e+01,1.653125000000001066e+01,8.750000000000005329e+00,-3.203125000000003553e+00,-3.609375000000003553e+00,-1.140625000000001110e+00,1.079687500000000533e+01,3.220312500000001421e+01,4.903125000000002842e+01,5.667187500000004263e+01,4.620312500000002842e+01,2.214062500000001421e+01
-3.381250000000001421e+01,-4.693750000000002132e+01,-7.875000000000003553e+00,5.437500000000003553e+00,-4.000000000000001776e+00,-6.125000000000003553e+00,-2.437500000000001776e+00,9.500000000000003553e+00,9.500000000000003553e+00,-3.187500000000000888e+00,-1.000000000000000000e+00,1.125000000000000444e+00,-4.625000000000002665e+00,-3.250000000000001776e+00,-9.375000000000003331e-01,-1.750000000000000666e+00,1.187500000000000444e+00,7.312500000000002665e+00,6.875000000000000000e-01,-9.000000000000003553e+00,7.500000000000008882e-01,2.062500000000000888e+00,-1.150000000000000533e+01,-4.750000000000001776e+00,6.687500000000003553e+00,4.187500000000001776e+00,2.812500000000001332e+00,3.750000000000000000e-01,5.000000000000000000e-01,7.312500000000002665e+00,8.562500000000003553e+00,3.312500000000001332e+00,-1.875000000000000444e+00,-7.625000000000001776e+00,-1.187500000000000533e+01,-2.250000000000001776e+00,1.387500000000000533e+01,1.356250000000000533e+01,-1.062500000000000444e+00,-1.106250000000000711e+01,-1.306250000000000711e+01,-8.750000000000003553e+00,3.312500000000000888e+00,9.500000000000003553e+00,5.812500000000002665e+00,-1.812500000000001110e+00,-6.250000000000002665e+00,4.125000000000002665e+00,7.812500000000003553e+00,-3.937500000000001332e+00,-1.750000000000000000e+00,4.562500000000002665e+00,-3.875000000000000888e+00,-4.937500000000001776e+00,7.625000000000003553e+00,4.875000000000002665e+00,-1.306250000000000711e+01,-7.875000000000004441e+00,1.037500000000000355e+01,3.812500000000001776e+00,-4.812500000000001776e+00,2.375000000000001776e+00,1.625000000000000888e+00,-8.000000000000003553e+00,-9.500000000000005329e+00,3.750000000000001776e+00,1.150000000000000533e+01,-1.312500000000000888e+00,-4.312500000000001776e+00,7.875000000000003553e+00,8.125000000000008882e-01,-1.118750000000000533e+01,1.937500000000000888e+00,1.368750000000000711e+01,2.187500000000001776e+00,-1.312500000000000533e+01,-1.062500000000000355e+01,7.000000000000002665e+00,1.000000000000000355e+01,-5.062500000000002665e+00,-9.062500000000003553e+00,-4.375000000000000000e-01,1.562500000000000888e+00,1.687500000000000888e+00,9.187500000000003553e+00,5.875000000000002665e+00,-5.500000000000002665e+00,-8.062500000000003553e+00,-7.375000000000003553e+00,-1.875000000000000000e-01,5.812500000000003553e+00,4.250000000000001776e+00,4.625000000000001776e+00,-2.562500000000001776e+00,-8.000000000000003553e+00,-1.437500000000000222e+00,1.062500000000000444e+00,1.875000000000000666e+00,4.625000000000001776e+00,3.875000000000001776e+00,2.875000000000001332e+00,-2.250000000000000888e+00,-8.062500000000003553e+00,-7.500000000000000000e-01,2.562500000000001776e+00,-2.625000000000000888e+00,4.250000000000001776e+00,4.250000000000001776e+00,-6.875000000000003553e+00,-2.937500000000001776e+00,8.062500000000003553e+00,7.187500000000003553e+00,-4.375000000000001776e+00,-1.087500000000000533e+01,-8.125000000000008882e-01,8.312500000000003553e+00,-3.125000000000001776e+00,-9.937500000000005329e+00,4.250000000000001776e+00,7.687500000000003553e+00,8.125000000000003331e-01,1.437500000000000444e+00,-3.375000000000001332e+00,-4.687500000000001776e+00,1.125000000000000222e+00,6.250000000000000000e-01,1.750000000000000666e+00,-1.500000000000000888e+00,-3.500000000000001776e+00,7.250000000000003553e+00,5.625000000000002665e+00,-5.750000000000002665e+00,-5.062500000000001776e+00,-3.125000000000001110e-01,-2.250000000000001332e+00,-3.062500000000001332e+00,6.250000000000003553e+00,6.562500000000003553e+00,-7.812500000000003553e+00,-1.206250000000000355e+01,-1.124999999999999556e+00,1.456250000000000533e+01,1.556250000000000533e+01,-2.312500000000000888e+00,-9.312500000000003553e+00,-3.187500000000001332e+00,-5.625000000000004441e-01,3.375000000000001776e+00,2.937500000000001332e+00,-7.750000000000003553e+00,-1.037500000000000533e+01,3.500000000000000888e+00,9.625000000000003553e+00,-1.062500000000000444e+00,3.750000000000000000e-01,7.875000000000003553e+00,-2.625000000000001776e+00,-6.187500000000003553e+00,3.437500000000001332e+00,3.749999999999995559e-01,-8.250000000000003553e+00,-5.250000000000001776e+00,5.375000000000001776e+00,4.562500000000000888e+00,-4.500000000000002665e+00,3.062500000000001776e+00,1.075000000000000533e+01,-1.750000000000000888e+00,-1.281250000000000711e+01,-4.875000000000002665e+00,1.050000000000000355e+01,6.250000000000002665e+00,-6.812500000000003553e+00,2.187500000000000888e+00,8.062500000000003553e+00,-8.937500000000005329e+00,-1.062500000000000533e+01,1.081250000000000533e+01,1.362500000000000711e+01,-3.312500000000000888e+00,-9.562500000000003553e+00,-9.062500000000003553e+00,-3.125000000000000888e+00,1.231250000000000355e+01,1.118750000000000355e+01,-4.000000000000001776e+00,-8.687500000000003553e+00,-7.125000000000003553e+00,-5.625000000000008882e-01,4.625000000000001776e+00,2.875000000000001332e+00,8.250000000000003553e+00,4.687500000000001776e+00,-1.225000000000000533e+01,-5.625000000000001776e+00,1.237500000000000533e+01,4.437500000000001776e+00,-8.000000000000003553e+00,-3.062500000000001332e+00,6.249999999999977796e-02,-2.750000000000001776e+00,-2.562500000000000888e+00,6.875000000000006661e-01,1.812500000000000888e+00,2.500000000000000555e-01,4.125000000000001776e+00,8.125000000000000000e-01,-5.312500000000002665e+00,7.125000000000002665e+00,1.093750000000000355e+01,-7.437500000000002665e+00,-1.425000000000000711e+01,-1.812500000000000888e+00,4.875000000000002665e+00,4.375000000000001776e+00,6.000000000000002665e+00,-4.000000000000001776e+00,-1.387500000000000711e+01,6.250000000000000000e-01,1.543750000000000711e+01,3.312500000000001776e+00,-1.093750000000000533e+01,4.375000000000000000e-01,1.068750000000000533e+01,-8.125000000000008882e-01,-4.562500000000002665e+00,1.437500000000000666e+00,-5.500000000000002665e+00,-6.750000000000003553e+00,4.250000000000001776e+00,7.250000000000003553e+00,1.937500000000000888e+00,-4.750000000000001776e+00,-4.750000000000001776e+00,3.125000000000001110e-01,2.125000000000000888e+00,9.375000000000004441e-01,1.875000000000000833e-01,5.000000000000001776e+00,4.375000000000001776e+00,-4.687500000000001776e+00,-3.125000000000001332e+00,3.187500000000001332e+00,4.000000000000001776e+00,3.312500000000001776e+00,-5.375000000000003553e+00,-1.331250000000000711e+01,-4.750000000000002665e+00,5.562500000000002665e+00,7.750000000000003553e+00,1.006250000000000355e+01,2.250000000000000000e+00,-1.343750000000000533e+01,-7.437500000000002665e+00,9.750000000000003553e+00,5.687500000000002665e+00,-3.000000000000000888e+00,-2.500000000000000888e+00,-5.062500000000002665e+00,-1.062500000000000444e+00,4.937500000000001776e+00,1.062500000000000444e+00,-1.250000000000000444e+00,-2.500000000000001665e-01,5.625000000000002220e-01,4.062500000000001776e+00,3.750000000000001776e+00,-6.187500000000003553e+00,-7.250000000000003553e+00,6.750000000000003553e+00,1.087500000000000533e+01,7.500000000000004441e-01,-8.125000000000003553e+00,-8.875000000000003553e+00,-2.125000000000000888e+00,2.687500000000001332e+00,3.312500000000001776e+00,2.875000000000001332e+00,-4.062500000000001776e+00,-7.812500000000002665e+00,3.312500000000002665e+00,1.293750000000000711e+01,5.500000000000003553e+00,-5.937500000000001776e+00,-7.187500000000002665e+00,-4.375000000000001776e+00,-4.562500000000001776e+00,-3.250000000000001332e+00,4.062500000000001776e+00,6.812500000000002665e+00,3.437500000000001776e+00,4.125000000000001776e+00,-6.250000000000008882e-01,-6.062500000000002665e+00,3.312500000000001776e+00,6.062500000000002665e+00,-7.312500000000003553e+00,-6.187500000000002665e+00,8.250000000000003553e+00,3.937500000000002220e+00,-5.812500000000002665e+00,-1.875000000000000888e+00,-4.562500000000001776e+00,-6.625000000000001776e+00,9.187500000000003553e+00,1.550000000000000533e+01,6.250000000000000000e-01,-1.137500000000000533e+01,-1.200000000000000533e+01,-3.937500000000001776e+00,9.625000000000003553e+00,1.387500000000000711e+01,1.250000000000000888e+00,-9.562500000000003553e+00,-4.750000000000001776e+00,-1.000000000000000444e+00,6.250000000000000000e-02,6.125000000000002665e+00,1.500000000000000000e+00,-5.625000000000003553e+00,-3.187500000000001332e+00,-6.249999999999977796e-02,8.187500000000003553e+00,9.250000000000003553e+00,-4.437500000000001776e+00,-5.875000000000002665e+00,-1.625000000000000444e+00,-8.500000000000003553e+00,-3.500000000000002220e+00,1.350000000000000533e+01,1.256250000000000355e+01,-3.250000000000000888e+00,-8.500000000000003553e+00,-3.937500000000001776e+00,2.000000000000000444e+00,6.687500000000002665e+00,-1.437500000000000000e+00,-8.125000000000003553e+00,2.187500000000000888e+00,3.437500000000000888e+00,-9.750000000000003553e+00,-4.625000000000001776e+00,1.281250000000000533e+01,8.437500000000003553e+00,-6.500000000000002665e+00,-8.437500000000003553e+00,8.750000000000008882e-01,5.812500000000002665e+00,-3.750000000000001776e+00,-6.312500000000002665e+00,4.375000000000004441e-01,6.875000000000006661e-01,5.125000000000001776e+00,7.250000000000002665e+00,-5.125000000000002665e+00,-1.006250000000000533e+01,5.125000000000001776e+00,1.187500000000000533e+01,-3.125000000000000000e-01,-6.875000000000000000e-01,6.437500000000003553e+00,-1.437500000000000444e+00,-5.062500000000001776e+00,-2.000000000000000888e+00,-5.187500000000002665e+00,1.625000000000000000e+00,6.312500000000001776e+00,-5.875000000000003553e+00,-3.625000000000001776e+00,8.000000000000003553e+00,-1.625000000000001776e+00,-7.625000000000004441e+00,4.187500000000001776e+00,1.750000000000000888e+00,-8.187500000000003553e+00,1.375000000000000888e+00,9.000000000000003553e+00,-2.875000000000002220e+00,-5.000000000000002665e+00,9.062500000000003553e+00,4.812500000000001776e+00,-1.337500000000000533e+01,-8.312500000000003553e+00,8.875000000000003553e+00,4.875000000000002665e+00,-1.375000000000000666e+00,4.625000000000001776e+00,-2.437500000000001776e+00,-6.437500000000003553e+00,4.937500000000001776e+00,-1.187500000000001776e+00,-7.625000000000003553e+00,5.375000000000003553e+00,4.062500000000002665e+00,-5.750000000000002665e+00,-3.562500000000001776e+00,-2.875000000000001332e+00,3.812500000000002220e+00,9.250000000000005329e+00,-3.875000000000001776e+00,-2.750000000000001776e+00,9.000000000000003553e+00,-4.875000000000003553e+00,-1.350000000000000711e+01,6.937500000000003553e+00,1.362500000000000711e+01,-4.812500000000002665e+00,-5.312500000000002665e+00,6.625000000000002665e+00,-2.750000000000001776e+00,-7.437500000000003553e+00,5.375000000000002665e+00,8.000000000000003553e+00,6.375000000000003553e+00,5.125000000000003553e+00,-3.000000000000001776e+00,-5.562500000000003553e+00,-7.812500000000004441e+00,-1.081250000000000533e+01,6.875000000000008882e-01,1.225000000000000711e+01,8.312500000000003553e+00,-3.750000000000001776e+00,-6.250000000000001776e+00,1.750000000000001110e+00,1.062500000000000444e+00,-3.500000000000001776e+00,-5.437500000000002665e+00,-2.625000000000001332e+00,7.062500000000003553e+00,2.812500000000001776e+00,-5.500000000000002665e+00,-9.375000000000004441e-01,-1.187500000000000444e+00,1.062500000000000888e+00,4.312500000000001776e+00,-7.000000000000003553e+00,-2.187500000000000888e+00,1.637500000000000711e+01,5.437500000000000888e+00,-1.793750000000001066e+01,-1.068750000000000711e+01,1.212500000000000711e+01,1.056250000000000533e+01,-1.125000000000000444e+00,-3.875000000000001776e+00,-8.125000000000003553e+00,-6.250000000000000000e-02,6.812500000000003553e+00,-4.687500000000001776e+00,-4.375000000000000000e-01,5.687500000000002665e+00,-5.562500000000002665e+00,-2.375000000000000888e+00,4.500000000000001776e+00,2.125000000000000888e+00,4.375000000000001110e-01,-8.500000000000003553e+00,-7.937500000000003553e+00,6.500000000000002665e+00,1.043750000000000355e+01,7.812500000000003553e+00,7.000000000000003553e+00,1.312500000000000444e+00,-7.187500000000002665e+00,-1.187500000000000533e+01,-9.750000000000005329e+00,4.312500000000001776e+00,1.018750000000000533e+01,-5.187500000000001776e+00,-3.437500000000001776e+00,9.187500000000003553e+00,-5.500000000000003553e+00,-1.137500000000000533e+01,1.175000000000000711e+01,1.543750000000000711e+01,-4.062500000000002665e+00,-9.937500000000005329e+00,-6.812500000000003553e+00,-6.250000000000003553e+00,2.125000000000000444e+00,1.250000000000000533e+01,5.625000000000002665e+00,-9.500000000000003553e+00,-3.687500000000001776e+00,5.000000000000002665e+00,-5.250000000000002665e+00,-2.375000000000001776e+00,5.687500000000002665e+00,-1.750000000000000888e+00,4.562500000000001776e+00,1.218750000000000533e+01,-9.375000000000000000e-01,-1.125000000000000533e+01,-7.625000000000004441e+00,3.437500000000001776e+00,6.062500000000002665e+00,-1.875000000000002220e-01,-1.750000000000000666e+00,-6.500000000000001776e+00,-6.500000000000001776e+00,3.812500000000001332e+00,6.875000000000003553e+00,7.375000000000003553e+00,6.250000000000001776e+00,-5.000000000000003553e+00,-1.518750000000000711e+01,-1.018750000000000355e+01,5.437500000000002665e+00,9.250000000000005329e+00,1.250000000000004441e-01,1.000000000000000888e+00,1.143750000000000533e+01,7.000000000000003553e+00,-8.375000000000003553e+00,-8.437500000000003553e+00,-4.687500000000001776e+00,-5.250000000000002665e+00,5.687500000000002665e+00,7.437500000000003553e+00,-6.250000000000003553e+00,-2.500000000000001776e+00,9.937500000000005329e+00,5.937500000000003553e+00,-8.125000000000002220e-01,-8.125000000000004441e-01,-1.750000000000001110e+00,-7.250000000000002665e+00,-1.075000000000000355e+01,3.437500000000001776e+00,1.375000000000000533e+01,-2.000000000000001776e+00,-8.125000000000003553e+00,3.312500000000001332e+00,1.562500000000000888e+00,-9.500000000000003553e+00,-5.875000000000003553e+00,8.562500000000003553e+00,9.125000000000003553e+00,-3.750000000000002220e-01,-4.687500000000001776e+00,4.250000000000002665e+00,2.043750000000000711e+01,8.375000000000003553e+00,-1.781250000000000711e+01,-9.937500000000003553e+00,1.093750000000000533e+01,1.287500000000000533e+01,5.562500000000001776e+00,-3.312500000000001776e+00,-1.087500000000000533e+01,-1.131250000000000533e+01,1.250000000000000000e-01,9.625000000000003553e+00,2.187500000000000888e+00,-4.062500000000000888e+00,-4.062500000000000888e+00,3.375000000000001776e+00,2.068750000000001066e+01,6.250000000000003553e+00,-2.750000000000001066e+01,-2.212500000000000711e+01,-4.250000000000001776e+00,7.625000000000003553e+00,3.193750000000001066e+01,1.887500000000000355e+01,-2.450000000000001066e+01,-2.000000000000000711e+01,5.187500000000002665e+00,6.875000000000000000e-01,-5.687500000000002665e+00,-4.500000000000002665e+00,-1.112500000000000533e+01,-5.250000000000001776e+00,1.075000000000000533e+01,1.531250000000000711e+01,1.362500000000000711e+01,-2.625000000000000000e+00,-1.743750000000000711e+01,-5.937500000000002665e+00,7.250000000000002665e+00,8.312500000000003553e+00,2.937500000000001776e+00,-4.250000000000001776e+00,-1.087500000000000533e+01,-1.368750000000000711e+01,-4.187500000000001776e+00,-3.812500000000001332e+00,-3.500000000000000444e+00,2.581250000000000711e+01,2.618750000000000711e+01,-1.418750000000000711e+01,-2.431250000000001066e+01,-5.875000000000003553e+00,6.687500000000003553e+00,7.375000000000003553e+00,4.375000000000002220e-01,-8.625000000000003553e+00,-7.250000000000003553e+00,1.568750000000000711e+01,2.187500000000000711e+01,-9.312500000000005329e+00,-3.043750000000001421e+01,-1.318750000000000533e+01,1.525000000000000888e+01,1.350000000000000711e+01,-9.125000000000003553e+00,-1.087500000000000533e+01,7.500000000000002665e+00,2.218750000000001066e+01,1.312500000000000711e+01,-1.775000000000000711e+01,-2.456250000000001066e+01,3.812500000000000000e+00,2.237500000000000711e+01,7.812500000000003553e+00,-1.900000000000000711e+01,-1.593750000000000711e+01,3.500000000000000888e+00,-8.750000000000008882e-01,1.687500000000001776e+00,2.300000000000001066e+01,1.637500000000000711e+01,-1.575000000000000711e+01,-1.768750000000000711e+01,1.306250000000000711e+01,1.500000000000000711e+01,-1.206250000000000711e+01,-1.475000000000000888e+01,2.062500000000001332e+00,1.037500000000000533e+01,1.000000000000000355e+01,5.625000000000000000e-01,-1.525000000000000533e+01,-1.662500000000000711e+01,2.000000000000000888e+00,1.206250000000000711e+01,3.500000000000001776e+00,-4.937500000000001776e+00,1.125000000000000444e+00,1.412500000000000533e+01,6.562500000000001776e+00,-4.437500000000002665e+00,4.875000000000002665e+00,-2.125000000000000000e+00,-2.056250000000001066e+01,-7.187500000000005329e+00,1.381250000000000533e+01,9.375000000000003553e+00,-1.750000000000000444e+00,-5.375000000000002665e+00,-4.437500000000001776e+00,6.312500000000003553e+00,1.093750000000000533e+01,-5.687500000000001776e+00,-1.193750000000000533e+01,5.750000000000001776e+00,1.918750000000000711e+01,1.425000000000000533e+01,-8.750000000000000000e-01,-1.212500000000000533e+01,-1.737500000000000711e+01,-1.493750000000000533e+01,2.125000000000000888e+00,1.056250000000000355e+01,-1.750000000000000444e+00,1.875000000000001776e+00,2.100000000000001066e+01,5.125000000000003553e+00,-3.281250000000001421e+01,-2.056250000000000711e+01,2.731250000000001421e+01,2.493750000000001066e+01,-9.750000000000003553e+00,-9.562500000000003553e+00,-1.875000000000002220e-01,-3.625000000000001776e+00,4.875000000000002665e+00,9.625000000000003553e+00,-6.250000000000002665e+00,-1.131250000000000355e+01,5.375000000000002665e+00,1.012500000000000355e+01,-2.687500000000000888e+00,-1.275000000000000533e+01,-1.300000000000000533e+01,2.875000000000001776e+00,1.550000000000000711e+01,5.875000000000002665e+00,1.125000000000000000e+00,6.750000000000002665e+00,-1.875000000000000000e+00,-1.768750000000000711e+01,-1.387500000000000711e+01,7.187500000000001776e+00,1.506250000000000711e+01,4.062500000000001776e+00,-1.037500000000000355e+01,-8.250000000000003553e+00,1.718750000000000711e+01,1.756250000000000711e+01,-1.343750000000000711e+01,-1.381250000000000711e+01,2.250000000000001332e+00,3.750000000000000000e-01,2.750000000000000888e+00,3.125000000000000000e-01,-9.062500000000003553e+00,1.500000000000001776e+00,1.293750000000000711e+01,4.750000000000002665e+00,-1.000000000000000355e+01,-1.068750000000000355e+01,8.750000000000003553e+00,9.250000000000005329e+00,-1.637500000000000711e+01,-1.675000000000000711e+01,6.187500000000002665e+00,2.093750000000001066e+01,1.737500000000000711e+01,-5.500000000000001776e+00,-1.387500000000000533e+01,-2.625000000000001332e+00,-7.187500000000003553e+00,-6.812500000000003553e+00,9.562500000000003553e+00,6.437500000000002665e+00,-2.750000000000001332e+00,1.500000000000000444e+00,4.812500000000001776e+00,-2.375000000000000888e+00,-1.150000000000000533e+01,6.125000000000003553e+00,2.418750000000001421e+01,-3.437500000000001776e+00,-3.087500000000001421e+01,-1.325000000000000711e+01,1.412500000000000355e+01,9.687500000000003553e+00,-7.062500000000003553e+00,2.937500000000000888e+00,1.656250000000000711e+01,5.812500000000002665e+00,-5.687500000000002665e+00,-5.187500000000002665e+00,-6.187500000000002665e+00,-9.500000000000003553e+00,-3.125000000000000000e-01,1.381250000000000533e+01,6.875000000000002665e+00,-9.125000000000003553e+00,-5.812500000000003553e+00,6.812500000000001776e+00,8.187500000000003553e+00,-4.500000000000002665e+00,-1.056250000000000533e+01,9.250000000000005329e+00,1.850000000000000711e+01,-7.562500000000005329e+00,-2.250000000000001066e+01,-4.000000000000001776e+00,1.175000000000000533e+01,9.187500000000005329e+00,6.875000000000004441e-01,-1.031250000000000355e+01,-1.100000000000000355e+01,4.125000000000002665e+00,1.243750000000000711e+01,2.125000000000000888e+00,-8.437500000000003553e+00,-5.625000000000008882e-01,5.750000000000002665e+00,-7.562500000000002665e+00,-6.062500000000002665e+00,1.631250000000000711e+01,9.562500000000005329e+00,-1.325000000000000533e+01,-2.750000000000000000e+00,1.418750000000000711e+01,6.875000000000000000e-01,-1.506250000000000711e+01,-3.812500000000001776e+00,3.750000000000001332e+00,-1.312500000000000666e+00,1.400000000000000711e+01,9.625000000000003553e+00,-1.937500000000000711e+01,-4.250000000000000000e+00,1.350000000000000711e+01,-3.937500000000002220e+00,-4.437500000000001776e+00,9.312500000000003553e+00,2.812500000000000888e+00,-1.875000000000000711e+01,-1.718750000000000711e+01,1.243750000000000711e+01,2.318750000000001066e+01,1.050000000000000533e+01,-5.312500000000001776e+00,-1.706250000000000711e+01,-1.225000000000000711e+01,-3.875000000000001332e+00,1.562500000000000888e+00,2.193750000000000711e+01,2.812500000000001066e+01,-6.000000000000003553e+00,-2.706250000000001066e+01,-1.250000000000000355e+01,3.750000000000001332e+00,1.012500000000000355e+01,6.187500000000003553e+00,1.812500000000000888e+00,-3.875000000000002665e+00,-9.250000000000003553e+00,-2.687500000000000888e+00,-3.750000000000000888e+00,-5.000000000000001776e+00,8.250000000000003553e+00,9.437500000000003553e+00,-1.000000000000000666e+00,-3.000000000000001776e+00,-4.937500000000001776e+00,-1.125000000000000355e+01,-1.874999999999991118e-01,1.731250000000000711e+01,2.562500000000000000e+00,-1.381250000000000533e+01,5.125000000000001776e+00,1.381250000000000533e+01,-9.375000000000000000e-01,-8.125000000000000000e-01,8.250000000000003553e+00,1.437500000000000888e+00,-1.975000000000000711e+01,-2.043750000000000711e+01,1.400000000000000533e+01,2.950000000000001421e+01,-2.625000000000001776e+00,-2.700000000000001421e+01,-3.937500000000003553e+00,2.131250000000000711e+01,1.875000000000001776e+00,-2.081250000000000711e+01,4.625000000000001776e+00,3.112500000000001421e+01,7.875000000000003553e+00,-1.412500000000000711e+01,-7.187500000000002665e+00,-8.750000000000003553e+00,-1.006250000000000355e+01,-4.187500000000001776e+00,5.000000000000000000e-01,1.400000000000000711e+01,1.081250000000000533e+01,-8.062500000000003553e+00,-1.406250000000000711e+01,-9.812500000000003553e+00,2.937500000000000888e+00,6.250000000000002665e+00,-2.625000000000000888e+00,-7.250000000000002665e+00,-9.562500000000003553e+00,9.375000000000008882e-01,1.368750000000000711e+01,1.050000000000000533e+01,4.062500000000001776e+00,-1.500000000000000888e+00,-6.375000000000003553e+00,1.500000000000000000e+00,1.612500000000000711e+01,1.087500000000000355e+01,2.812500000000000444e+00,8.437500000000001776e+00,-4.937500000000001776e+00,-1.462500000000000533e+01,-2.187500000000000888e+00,-9.687500000000003553e+00,-1.593750000000000533e+01,-5.812500000000002665e+00,-6.312500000000003553e+00,5.750000000000002665e+00,1.506250000000000711e+01,-3.437500000000000888e+00,1.687500000000000000e+00,1.725000000000000711e+01,-2.312500000000000000e+00,-1.100000000000000355e+01,7.500000000000000000e-01,3.312500000000001776e+00,2.893750000000001421e+01,5.193750000000002842e+01,2.437500000000003553e+00,-5.962500000000002842e+01,-4.281250000000001421e+01,1.168750000000000533e+01,2.206250000000000711e+01,-1.312500000000001776e+00,-1.250000000000008882e-01,1.212500000000000533e+01,-4.187500000000000888e+00,-1.737500000000000711e+01,-7.375000000000003553e+00,-1.250000000000000555e-01,0.000000000000000000e+00,1.250000000000000555e-01,6.250000000000002776e-02,0.000000000000000000e+00,0.000000000000000000e+00,0.000000000000000000e+00,0.000000000000000000e+00,0.000000000000000000e+00,6.250000000000002776e-02,6.250000000000002776e-02,-1.875000000000001110e-01,-1.875000000000001110e-01,1.875000000000001110e-01,1.875000000000001110e-01,-6.250000000000002776e-02,-6.250000000000002776e-02,0.000000000000000000e+00,-6.250000000000002776e-02,-1.250000000000000555e-01,0.000000000000000000e+00,1.250000000000000555e-01,0.000000000000000000e+00,-6.250000000000002776e-02,2.500000000000001110e-01,3.125000000000001110e-01,-1.250000000000000833e-01,-1.875000000000001110e-01,0.000000000000000000e+00,-6.250000000000002776e-02,-1.875000000000000833e-01,-2.500000000000001110e-01,6.250000000000005551e-02,3.750000000000002220e-01,1.250000000000000833e-01,-1.875000000000000833e-01,-1.875000000000000833e-01,6.250000000000002776e-02,2.500000000000001110e-01,6.250000000000002776e-02,-6.250000000000002776e-02,6.250000000000002776e-02,-6.250000000000002776e-02,-2.500000000000001110e-01,-1.875000000000000833e-01,-1.875000000000001110e-01,-2.775557561562891351e-17,3.750000000000001665e-01,3.750000000000001665e-01,2.500000000000001110e-01,2.775557561562891351e-17,-3.750000000000001665e-01,-2.500000000000001110e-01,6.250000000000002776e-02,6.250000000000002776e-02,0.000000000000000000e+00,0.000000000000000000e+00,0.000000000000000000e+00,0.000000000000000000e+00,0.000000000000000000e+00,-6.250000000000002776e-02,-6.250000000000002776e-02,1.250000000000000555e-01,-1.000000000000000444e+00,-7.812500000000003553e+00,-1.456250000000000711e+01,-7.937500000000003553e+00,2.687500000000000444e+00,4.000000000000001776e+00,1.625000000000002220e+00,-4.812500000000000888e+00,-1.137500000000000711e+01,3.499999999999999112e+00,2.168750000000001066e+01,-5.000000000000000000e-01,-2.356250000000001066e+01,4.812500000000003553e+00,2.793750000000001421e+01,4.562500000000001776e+00,-9.625000000000003553e+00,2.187500000000000888e+00,-2.187500000000001776e+00,-2.343750000000001066e+01,-2.287500000000001066e+01,9.937500000000003553e+00,2.718750000000001421e+01,1.156250000000000533e+01,1.000000000000000222e+00,-5.000000000000002665e+00,-5.687500000000002665e+00,5.687500000000002665e+00,-3.000000000000000888e+00,-1.393750000000000711e+01,2.125000000000000888e+00,1.562500000000000711e+01,2.668750000000001066e+01,4.656250000000002132e+01,2.700000000000001421e+01
-3.875000000000001421e+01,-2.775000000000000711e+01,2.125000000000000355e+01,1.500000000000000888e+00,-1.525000000000000355e+01,1.650000000000000355e+01,-1.775000000000000355e+01,7.000000000000001776e+00,1.800000000000000355e+01,-2.150000000000000711e+01,5.750000000000001776e+00,1.425000000000000355e+01,-2.750000000000000711e+01,2.750000000000000711e+01,-2.625000000000000711e+01,2.275000000000000711e+01,-1.975000000000000355e+01,1.300000000000000355e+01,6.500000000000000888e+00,-1.850000000000000355e+01,5.500000000000001776e+00,1.400000000000000178e+01,-1.850000000000000355e+01,-5.250000000000001776e+00,2.450000000000000711e+01,-2.550000000000000711e+01,2.125000000000000711e+01,-8.000000000000001776e+00,-6.750000000000001776e+00,1.700000000000000355e+01,-1.475000000000000355e+01,2.125000000000000355e+01,-2.350000000000000711e+01,2.175000000000000711e+01,-2.375000000000000711e+01,6.750000000000001776e+00,4.500000000000000888e+00,5.750000000000001776e+00,2.250000000000000000e+00,-1.400000000000000355e+01,1.075000000000000355e+01,-1.800000000000000355e+01,9.000000000000001776e+00,8.000000000000001776e+00,-1.150000000000000355e+01,1.800000000000000355e+01,-2.075000000000000711e+01,5.750000000000001776e+00,1.600000000000000355e+01,-1.700000000000000355e+01,1.000000000000000444e+00,1.250000000000000178e+01,-1.100000000000000178e+01,2.500000000000000000e-01,-1.500000000000000222e+00,1.625000000000000355e+01,-1.550000000000000355e+01,-1.025000000000000178e+01,1.825000000000000355e+01,2.750000000000000000e+00,-2.250000000000000711e+01,2.600000000000000711e+01,-1.750000000000000355e+01,1.075000000000000355e+01,-1.300000000000000355e+01,-5.000000000000000000e-01,1.650000000000000355e+01,-6.750000000000001776e+00,-1.100000000000000178e+01,1.375000000000000355e+01,4.250000000000000888e+00,-1.725000000000000355e+01,2.750000000000000888e+00,1.700000000000000355e+01,-1.200000000000000178e+01,7.000000000000001776e+00,-1.800000000000000355e+01,8.500000000000001776e+00,1.550000000000000355e+01,-2.000000000000000711e+01,1.100000000000000355e+01,-1.475000000000000355e+01,2.125000000000000355e+01,-2.225000000000000711e+01,1.575000000000000355e+01,7.000000000000000888e+00,-1.800000000000000355e+01,1.275000000000000355e+01,-8.750000000000001776e+00,-8.750000000000003553e+00,2.500000000000000711e+01,-2.600000000000000711e+01,2.100000000000000711e+01,-2.250000000000000888e+00,-1.950000000000000355e+01,2.325000000000000711e+01,-2.000000000000000355e+01,1.500000000000000355e+01,-9.250000000000001776e+00,1.125000000000000355e+01,-1.100000000000000355e+01,1.400000000000000355e+01,-1.425000000000000355e+01,-3.250000000000000888e+00,2.125000000000000711e+01,-2.550000000000000711e+01,1.200000000000000355e+01,1.275000000000000355e+01,-2.525000000000000711e+01,1.900000000000000711e+01,-1.500000000000000355e+01,2.250000000000000711e+01,-1.850000000000000355e+01,8.750000000000001776e+00,-1.650000000000000355e+01,2.150000000000000711e+01,-6.750000000000001776e+00,-1.150000000000000178e+01,4.500000000000000888e+00,1.675000000000000355e+01,-2.425000000000000711e+01,2.075000000000000711e+01,-5.750000000000001776e+00,-1.550000000000000355e+01,2.425000000000000711e+01,-2.050000000000000355e+01,8.750000000000001776e+00,9.000000000000001776e+00,-2.375000000000000711e+01,2.050000000000000355e+01,1.750000000000000888e+00,-1.500000000000000355e+01,1.375000000000000355e+01,-1.550000000000000355e+01,1.750000000000000355e+01,-1.825000000000000355e+01,7.250000000000000888e+00,1.375000000000000355e+01,-1.800000000000000355e+01,5.000000000000001776e+00,-5.500000000000001776e+00,2.000000000000000888e+00,1.850000000000000355e+01,-1.075000000000000355e+01,-8.250000000000001776e+00,1.225000000000000355e+01,-1.225000000000000355e+01,6.500000000000001776e+00,4.500000000000000888e+00,-6.750000000000001776e+00,-2.000000000000000444e+00,-7.000000000000000888e+00,2.100000000000000355e+01,-1.325000000000000355e+01,-4.500000000000000888e+00,1.625000000000000355e+01,-4.500000000000000888e+00,-1.675000000000000355e+01,2.300000000000000711e+01,-1.450000000000000355e+01,5.250000000000000888e+00,-7.750000000000001776e+00,1.500000000000000888e+00,1.300000000000000355e+01,-1.375000000000000355e+01,-3.000000000000000000e+00,2.300000000000000711e+01,-1.975000000000000355e+01,9.750000000000001776e+00,-1.650000000000000355e+01,1.225000000000000355e+01,1.125000000000000178e+01,-2.025000000000000355e+01,6.000000000000000888e+00,1.300000000000000355e+01,-9.500000000000001776e+00,-1.150000000000000178e+01,9.250000000000001776e+00,1.450000000000000355e+01,-1.475000000000000355e+01,1.000000000000000222e+00,4.000000000000000888e+00,-1.575000000000000355e+01,1.350000000000000355e+01,1.100000000000000178e+01,-1.675000000000000355e+01,7.500000000000001776e+00,-3.000000000000000888e+00,-1.175000000000000355e+01,2.325000000000000711e+01,-2.025000000000000355e+01,1.000000000000000178e+01,1.175000000000000355e+01,-1.625000000000000355e+01,-6.500000000000000888e+00,1.750000000000000355e+01,-2.500000000000000000e-01,-1.225000000000000355e+01,4.750000000000000888e+00,6.000000000000000888e+00,-1.550000000000000355e+01,1.950000000000000355e+01,-2.475000000000000711e+01,2.775000000000000711e+01,-2.225000000000000711e+01,9.250000000000001776e+00,1.125000000000000178e+01,-2.275000000000000711e+01,1.200000000000000355e+01,1.300000000000000355e+01,-1.575000000000000355e+01,3.500000000000000888e+00,-1.325000000000000355e+01,2.500000000000000711e+01,-2.600000000000000711e+01,2.300000000000000711e+01,-5.250000000000000888e+00,-1.400000000000000355e+01,5.500000000000000888e+00,4.500000000000000888e+00,1.275000000000000355e+01,-2.425000000000000711e+01,1.025000000000000178e+01,5.250000000000000888e+00,3.500000000000000888e+00,-1.950000000000000711e+01,2.250000000000000711e+01,-1.050000000000000178e+01,-1.275000000000000355e+01,2.150000000000000711e+01,-1.700000000000000355e+01,1.750000000000000355e+01,-1.225000000000000355e+01,-1.750000000000000000e+00,8.500000000000001776e+00,-1.100000000000000355e+01,1.350000000000000355e+01,-1.175000000000000355e+01,5.250000000000000888e+00,7.250000000000001776e+00,-7.000000000000001776e+00,-7.250000000000001776e+00,1.800000000000000355e+01,-2.025000000000000355e+01,2.175000000000000711e+01,-1.425000000000000355e+01,2.750000000000000888e+00,-1.375000000000000355e+01,2.050000000000000711e+01,-1.525000000000000355e+01,1.250000000000000355e+01,4.250000000000000888e+00,-1.125000000000000178e+01,-6.250000000000001776e+00,9.250000000000001776e+00,1.150000000000000355e+01,-2.625000000000000711e+01,2.800000000000000711e+01,-2.175000000000000711e+01,2.500000000000000888e+00,1.450000000000000355e+01,-1.825000000000000355e+01,1.750000000000000355e+01,-1.675000000000000355e+01,1.550000000000000355e+01,-1.425000000000000355e+01,1.575000000000000355e+01,-6.500000000000001776e+00,-1.200000000000000178e+01,1.350000000000000355e+01,-7.500000000000000000e-01,3.500000000000000888e+00,-8.000000000000001776e+00,3.500000000000000888e+00,-1.175000000000000178e+01,1.900000000000000355e+01,-2.000000000000000355e+01,2.025000000000000355e+01,-1.200000000000000178e+01,-1.000000000000000444e+00,-1.250000000000000000e+00,7.500000000000001776e+00,6.750000000000001776e+00,-1.425000000000000355e+01,9.750000000000001776e+00,-1.175000000000000355e+01,1.000000000000000355e+01,-1.175000000000000355e+01,6.000000000000001776e+00,5.250000000000000888e+00,-3.750000000000000888e+00,-1.500000000000000222e+00,1.525000000000000355e+01,-2.575000000000000711e+01,1.875000000000000355e+01,-4.250000000000000000e+00,5.500000000000001776e+00,-2.150000000000000711e+01,2.200000000000000711e+01,-1.500000000000000000e+00,-1.250000000000000355e+01,8.250000000000001776e+00,2.750000000000000444e+00,-1.650000000000000355e+01,1.075000000000000355e+01,1.025000000000000178e+01,-5.500000000000000888e+00,-4.000000000000000888e+00,-2.500000000000001110e-01,-8.750000000000001776e+00,1.000000000000000178e+01,1.750000000000000444e+00,6.750000000000001776e+00,-1.325000000000000355e+01,5.000000000000000000e-01,1.050000000000000355e+01,-1.775000000000000355e+01,1.525000000000000355e+01,3.250000000000000888e+00,-1.950000000000000711e+01,2.125000000000000711e+01,-1.875000000000000355e+01,9.500000000000001776e+00,8.750000000000001776e+00,-5.500000000000000888e+00,-1.275000000000000355e+01,2.175000000000000711e+01,-2.075000000000000711e+01,2.500000000000000000e+00,6.250000000000001776e+00,7.250000000000001776e+00,-1.750000000000000888e+00,-1.375000000000000355e+01,1.725000000000000355e+01,-2.075000000000000355e+01,2.050000000000000355e+01,-4.750000000000000888e+00,-1.150000000000000355e+01,7.500000000000001776e+00,5.000000000000000888e+00,-5.500000000000000888e+00,-1.275000000000000355e+01,1.750000000000000355e+01,5.000000000000000888e+00,-1.725000000000000355e+01,1.550000000000000355e+01,-2.200000000000000711e+01,2.525000000000000711e+01,-1.025000000000000178e+01,-1.475000000000000355e+01,2.650000000000000711e+01,-2.700000000000000711e+01,2.000000000000000355e+01,-6.500000000000000888e+00,8.000000000000001776e+00,-1.700000000000000355e+01,5.500000000000000888e+00,1.425000000000000355e+01,-9.500000000000001776e+00,-5.000000000000000888e+00,1.325000000000000355e+01,-2.000000000000000000e+00,-1.625000000000000355e+01,2.325000000000000711e+01,-2.100000000000000711e+01,3.500000000000000888e+00,1.450000000000000355e+01,-1.175000000000000178e+01,-7.750000000000001776e+00,1.650000000000000355e+01,-1.500000000000000000e+00,-1.825000000000000711e+01,1.725000000000000355e+01,-5.000000000000000000e-01,-1.025000000000000178e+01,2.500000000000000000e-01,1.250000000000000355e+01,-4.500000000000001776e+00,-1.175000000000000178e+01,1.225000000000000355e+01,7.000000000000000888e+00,-1.375000000000000355e+01,-5.000000000000000888e+00,8.750000000000001776e+00,9.750000000000001776e+00,-2.225000000000000711e+01,2.000000000000000711e+01,2.500000000000000000e-01,-2.325000000000000711e+01,2.400000000000000711e+01,-3.250000000000000888e+00,-1.850000000000000355e+01,1.600000000000000355e+01,5.500000000000001776e+00,-1.925000000000000355e+01,1.475000000000000355e+01,-4.500000000000000888e+00,-1.325000000000000355e+01,2.875000000000000711e+01,-1.700000000000000355e+01,-1.000000000000000355e+01,2.475000000000000711e+01,-1.075000000000000355e+01,-1.250000000000000178e+01,6.000000000000000888e+00,1.525000000000000355e+01,-8.500000000000001776e+00,-1.450000000000000355e+01,2.275000000000000711e+01,-6.500000000000000888e+00,-1.750000000000000355e+01,2.150000000000000711e+01,-7.500000000000001776e+00,-1.000000000000000222e+00,1.250000000000000178e+01,-1.000000000000000178e+01,-3.000000000000000888e+00,1.100000000000000178e+01,-2.075000000000000355e+01,7.750000000000000888e+00,9.250000000000003553e+00,-8.750000000000001776e+00,1.825000000000000355e+01,-3.200000000000000711e+01,2.925000000000000711e+01,-1.425000000000000355e+01,-1.750000000000000444e+00,1.175000000000000355e+01,-2.275000000000000711e+01,2.000000000000000355e+01,7.500000000000008882e-01,-1.550000000000000355e+01,1.150000000000000178e+01,2.000000000000000444e+00,-1.950000000000000355e+01,3.075000000000000711e+01,-2.125000000000000355e+01,-6.250000000000000888e+00,2.100000000000000355e+01,-1.000000000000000000e+00,-1.025000000000000178e+01,-9.000000000000001776e+00,8.750000000000001776e+00,1.825000000000000355e+01,-3.075000000000000711e+01,2.975000000000000711e+01,-2.075000000000000355e+01,-6.250000000000002665e+00,2.875000000000000711e+01,-2.450000000000000711e+01,-1.500000000000000000e+00,2.550000000000000711e+01,-2.550000000000000711e+01,2.250000000000000000e+00,2.125000000000000711e+01,-3.150000000000000711e+01,3.300000000000000711e+01,-2.175000000000000711e+01,-4.500000000000000000e+00,1.400000000000000355e+01,-6.750000000000001776e+00,8.750000000000001776e+00,-4.250000000000000888e+00,8.750000000000001776e+00,-9.750000000000001776e+00,0.000000000000000000e+00,-1.000000000000000222e+00,-1.325000000000000355e+01,2.975000000000000711e+01,-1.825000000000000355e+01,-1.075000000000000355e+01,2.600000000000000711e+01,-1.000000000000000355e+01,-1.800000000000000355e+01,1.675000000000000355e+01,9.500000000000001776e+00,-9.500000000000001776e+00,-6.250000000000001776e+00,1.100000000000000355e+01,-1.775000000000000355e+01,1.225000000000000178e+01,-5.250000000000000888e+00,1.600000000000000355e+01,-1.375000000000000178e+01,-9.750000000000003553e+00,2.475000000000000711e+01,-1.625000000000000355e+01,-1.075000000000000355e+01,3.025000000000000711e+01,-2.575000000000000711e+01,3.500000000000000000e+00,2.325000000000000711e+01,-2.300000000000000711e+01,1.300000000000000355e+01,-1.425000000000000355e+01,2.750000000000000888e+00,1.500000000000000355e+01,-1.875000000000000355e+01,1.250000000000000355e+01,-1.000000000000000000e+00,-1.800000000000000355e+01,2.075000000000000711e+01,-9.500000000000003553e+00,1.750000000000000444e+00,1.250000000000000178e+01,-1.375000000000000355e+01,7.500000000000001776e+00,-1.925000000000000355e+01,1.375000000000000355e+01,3.500000000000000888e+00,-5.250000000000000888e+00,1.250000000000000000e+00,-7.500000000000000000e-01,1.700000000000000355e+01,-1.750000000000000355e+01,-2.250000000000000444e+00,1.325000000000000355e+01,-2.025000000000000711e+01,9.250000000000003553e+00,1.275000000000000178e+01,-1.600000000000000355e+01,5.000000000000008882e-01,8.750000000000001776e+00,3.250000000000000888e+00,-1.175000000000000355e+01,1.575000000000000355e+01,-1.750000000000000355e+01,1.600000000000000355e+01,-1.725000000000000355e+01,-1.750000000000000000e+00,2.100000000000000355e+01,-6.750000000000000888e+00,-1.975000000000000355e+01,2.925000000000000711e+01,-2.500000000000000711e+01,2.350000000000000711e+01,-3.500000000000000711e+01,3.175000000000000711e+01,-9.500000000000001776e+00,-1.750000000000000444e+00,8.500000000000001776e+00,-1.875000000000000711e+01,2.175000000000000711e+01,1.025000000000000178e+01,-2.325000000000000355e+01,-3.250000000000000888e+00,1.850000000000000355e+01,-1.150000000000000178e+01,1.500000000000000355e+01,-1.025000000000000355e+01,7.500000000000000000e-01,-3.250000000000000444e+00,-9.000000000000001776e+00,1.750000000000000355e+01,-3.250000000000000000e+00,-1.425000000000000355e+01,2.425000000000000711e+01,-3.225000000000000711e+01,2.750000000000000711e+01,1.425000000000000355e+01,-3.450000000000000711e+01,-2.500000000000000000e-01,1.350000000000000355e+01,-1.725000000000000355e+01,6.500000000000000888e+00,5.425000000000001421e+01,-7.275000000000001421e+01,3.225000000000000711e+01,-1.400000000000000355e+01,1.925000000000000355e+01,-2.850000000000000711e+01,2.500000000000000711e+01,-1.475000000000000355e+01,-1.425000000000000355e+01,2.950000000000000711e+01,-1.950000000000000355e+01,1.575000000000000355e+01,1.150000000000000178e+01,-3.750000000000000711e+01,2.700000000000000711e+01,-1.450000000000000355e+01,1.075000000000000355e+01,2.500000000000000888e+00,-1.025000000000000355e+01,9.250000000000003553e+00,-1.325000000000000355e+01,-7.500000000000001776e+00,2.800000000000000711e+01,-4.000000000000001421e+01,2.000000000000000711e+01,4.150000000000000711e+01,-5.075000000000001421e+01,1.875000000000000355e+01,-1.325000000000000178e+01,4.750000000000000888e+00,1.275000000000000355e+01,-1.850000000000000355e+01,2.125000000000000355e+01,-2.800000000000000711e+01,1.125000000000000178e+01,2.750000000000000711e+01,-2.400000000000000355e+01,1.500000000000000444e+00,-2.050000000000000355e+01,1.975000000000000355e+01,9.250000000000001776e+00,-1.400000000000000355e+01,-4.000000000000000000e+00,6.750000000000000888e+00,2.500000000000000000e-01,1.850000000000000355e+01,-9.750000000000003553e+00,-2.725000000000000355e+01,2.225000000000000355e+01,-3.250000000000000888e+00,1.350000000000000355e+01,-6.750000000000001776e+00,-3.200000000000000711e+01,4.175000000000001421e+01,-2.525000000000000711e+01,-7.500000000000000000e-01,1.600000000000000355e+01,6.500000000000001776e+00,-1.750000000000000000e+00,-2.975000000000000711e+01,2.450000000000000355e+01,1.025000000000000355e+01,-1.500000000000000355e+01,-9.750000000000003553e+00,1.525000000000000355e+01,-1.175000000000000178e+01,1.775000000000000355e+01,-1.025000000000000178e+01,6.250000000000001776e+00,-2.050000000000000355e+01,6.750000000000001776e+00,1.475000000000000355e+01,-1.575000000000000355e+01,1.625000000000000355e+01,-2.225000000000000711e+01,2.000000000000000355e+01,8.750000000000003553e+00,-2.575000000000000711e+01,1.900000000000000711e+01,5.750000000000000000e+00,-2.325000000000000355e+01,-2.500000000000000000e-01,1.625000000000000355e+01,-5.000000000000000888e+00,2.000000000000000444e+00,-5.250000000000001776e+00,5.750000000000001776e+00,-1.600000000000000355e+01,3.075000000000000711e+01,-1.950000000000000355e+01,-4.500000000000001776e+00,5.250000000000001776e+00,5.500000000000001776e+00,7.000000000000000888e+00,-7.500000000000000000e-01,-9.250000000000001776e+00,4.500000000000000888e+00,-1.500000000000000355e+01,1.250000000000000000e+00,1.650000000000000355e+01,-9.500000000000001776e+00,-8.750000000000001776e+00,1.775000000000000355e+01,1.050000000000000178e+01,-2.000000000000000355e+01,-2.475000000000000711e+01,2.800000000000000711e+01,2.375000000000000711e+01,-3.475000000000000711e+01,9.000000000000001776e+00,1.050000000000000178e+01,-1.900000000000000355e+01,1.100000000000000178e+01,4.500000000000001776e+00,1.000000000000000000e+00,-1.750000000000000355e+01,1.000000000000000178e+01,1.125000000000000178e+01,-1.450000000000000355e+01,8.500000000000001776e+00,-1.275000000000000355e+01,-4.250000000000001776e+00,2.200000000000000711e+01,-8.500000000000001776e+00,-6.250000000000000888e+00,1.575000000000000355e+01,-9.000000000000001776e+00,2.000000000000000444e+00,-1.825000000000000355e+01,1.050000000000000355e+01,1.300000000000000355e+01,-1.525000000000000355e+01,1.950000000000000711e+01,-3.275000000000000711e+01,2.050000000000000355e+01,1.875000000000000355e+01,-1.775000000000000355e+01,-2.050000000000000355e+01,3.925000000000000711e+01,-3.700000000000000711e+01,2.125000000000000355e+01,2.000000000000000888e+00,-1.575000000000000355e+01,4.250000000000000888e+00,1.200000000000000355e+01,-6.500000000000001776e+00,4.500000000000000888e+00,-1.225000000000000355e+01,-4.000000000000000000e+00,3.525000000000000711e+01,-3.750000000000001421e+01,3.750000000000001776e+00,7.500000000000001776e+00,-4.750000000000001776e+00,2.125000000000000711e+01,-6.500000000000001776e+00,-2.050000000000000711e+01,1.875000000000000711e+01,-2.750000000000000888e+00,-2.350000000000000355e+01,2.725000000000000711e+01,-3.000000000000000888e+00,-1.650000000000000355e+01,2.425000000000000711e+01,-2.425000000000000711e+01,2.650000000000000711e+01,-2.175000000000000711e+01,-8.750000000000001776e+00,3.775000000000000711e+01,-1.350000000000000178e+01,-1.900000000000000355e+01,1.000000000000000000e+00,2.750000000000000000e+00,1.950000000000000711e+01,-2.300000000000000711e+01,1.750000000000000000e+00,2.200000000000000711e+01,-1.425000000000000355e+01,7.250000000000001776e+00,-1.000000000000000355e+01,8.750000000000001776e+00,-1.050000000000000178e+01,-2.500000000000000888e+00,1.000000000000000178e+01,7.000000000000001776e+00,-1.225000000000000355e+01,-3.000000000000000888e+00,1.100000000000000355e+01,-7.250000000000001776e+00,1.450000000000000355e+01,-2.275000000000000711e+01,4.000000000000000000e+00,2.750000000000000711e+01,-2.050000000000000355e+01,-2.250000000000000444e+00,-1.225000000000000355e+01,2.700000000000000711e+01,-2.100000000000000711e+01,2.025000000000000711e+01,-1.400000000000000355e+01,-5.750000000000001776e+00,5.750000000000001776e+00,3.250000000000000888e+00,6.000000000000001776e+00,-1.100000000000000355e+01,-2.250000000000000888e+00,1.400000000000000355e+01,-6.750000000000001776e+00,-1.400000000000000355e+01,1.250000000000000355e+01,2.275000000000000355e+01,-3.800000000000000711e+01,1.775000000000000355e+01,5.000000000000000000e-01,9.750000000000003553e+00,-1.825000000000000355e+01,-2.500000000000000888e+00,1.975000000000000355e+01,-1.600000000000000355e+01,-1.125000000000000355e+01,5.925000000000001421e+01,-6.925000000000001421e+01,2.100000000000000711e+01,2.825000000000000355e+01,-3.825000000000000711e+01,2.275000000000000711e+01,-1.125000000000000355e+01,1.550000000000000355e+01,-1.000000000000000355e+01,-1.950000000000000355e+01,1.225000000000000355e+01,2.375000000000000355e+01,-3.075000000000000711e+01,4.375000000000001421e+01,-5.575000000000001421e+01,3.850000000000001421e+01,-3.200000000000000711e+01,2.725000000000000711e+01,-3.075000000000000711e+01,5.525000000000001421e+01,-2.575000000000000711e+01,-2.025000000000000355e+01,2.125000000000000355e+01,-2.400000000000000711e+01,2.525000000000000711e+01,-6.750000000000000888e+00,-9.250000000000001776e+00,2.525000000000000355e+01,-3.650000000000000711e+01,2.275000000000000711e+01,-7.500000000000008882e-01,-2.350000000000000355e+01,2.900000000000000711e+01,-1.475000000000000355e+01,1.275000000000000355e+01,-1.725000000000000355e+01,1.850000000000000355e+01,-1.875000000000000355e+01,5.000000000000000000e-01,8.750000000000001776e+00,1.775000000000000355e+01,-3.750000000000000711e+01,1.825000000000000355e+01,1.700000000000000355e+01,-2.475000000000000711e+01,1.675000000000000355e+01,-8.500000000000001776e+00,1.225000000000000355e+01,-7.250000000000002665e+00,-2.150000000000000355e+01,1.000000000000000178e+01,2.400000000000000711e+01,-6.750000000000001776e+00,-1.750000000000000355e+01,-6.000000000000001776e+00,2.400000000000000711e+01,1.000000000000001776e+00,-2.125000000000000711e+01,-3.500000000000001776e+00,3.025000000000000711e+01,2.500000000000000000e+00,-3.175000000000000711e+01,2.600000000000000711e+01,-1.025000000000000355e+01,-1.925000000000000355e+01,3.125000000000000711e+01,-3.475000000000000711e+01,2.200000000000000355e+01,1.675000000000000355e+01,-3.525000000000000711e+01,3.050000000000000711e+01,-3.175000000000000711e+01,1.200000000000000355e+01,1.650000000000000355e+01,-2.975000000000000711e+01,2.875000000000000711e+01,-2.500000000000000711e+01,1.000000000000000000e+00,2.250000000000000711e+01,-2.100000000000000355e+01,2.475000000000000711e+01,-2.200000000000000711e+01,1.725000000000000355e+01,-2.100000000000000711e+01,1.825000000000000355e+01,1.200000000000000355e+01,-2.625000000000000711e+01,2.450000000000000711e+01,4.500000000000000000e+00,-3.825000000000000711e+01,3.450000000000000711e+01,-9.500000000000001776e+00,-2.925000000000000711e+01,3.550000000000000711e+01,-2.675000000000000711e+01,-2.750000000000000000e+00,3.350000000000000711e+01,-2.300000000000000355e+01,-1.100000000000000355e+01,3.700000000000000711e+01,-1.675000000000000355e+01,-1.900000000000000355e+01,3.025000000000000711e+01,-2.100000000000000711e+01,-1.750000000000000000e+00,4.425000000000000711e+01,3.000000000000000000e+00,-4.175000000000000711e+01,-1.650000000000000355e+01,2.175000000000000355e+01,4.750000000000000888e+00,5.000000000000001776e+00,-3.075000000000000711e+01,4.700000000000001421e+01,-2.875000000000000711e+01,-5.000000000000001110e-01,5.000000000000001110e-01,-5.000000000000001110e-01,2.500000000000000555e-01,0.000000000000000000e+00,0.000000000000000000e+00,0.000000000000000000e+00,0.000000000000000000e+00,0.000000000000000000e+00,0.000000000000000000e+00,0.000000000000000000e+00,0.000000000000000000e+00,0.000000000000000000e+00,2.500000000000000555e-01,-7.500000000000002220e-01,7.500000000000002220e-01,-2.500000000000000555e-01,0.000000000000000000e+00,0.000000000000000000e+00,0.000000000000000000e+00,0.000000000000000000e+00,0.000000000000000000e+00,-2.500000000000000555e-01,5.000000000000001110e-01,-5.000000000000001110e-01,5.000000000000001110e-01,-7.500000000000002220e-01,1.250000000000000444e+00,-1.000000000000000222e+00,2.500000000000000555e-01,2.500000000000000555e-01,-5.000000000000001110e-01,5.000000000000001110e-01,-5.000000000000001110e-01,0.000000000000000000e+00,5.000000000000001110e-01,-2.500000000000000555e-01,0.000000000000000000e+00,0.000000000000000000e+00,-2.500000000000000555e-01,5.000000000000001110e-01,-2.500000000000000555e-01,0.000000000000000000e+00,0.000000000000000000e+00,2.500000000000000555e-01,-5.000000000000001110e-01,2.500000000000000555e-01,0.000000000000000000e+00,-5.000000000000001110e-01,7.500000000000002220e-01,-2.500000000000000555e-01,0.000000000000000000e+00,5.000000000000001110e-01,-7.500000000000002220e-01,2.500000000000000555e-01,0.000000000000000000e+00,0.000000000000000000e+00,0.000000000000000000e+00,0.000000000000000000e+00,0.000000000000000000e+00,0.000000000000000000e+00,0.000000000000000000e+00,0.000000000000000000e+00,0.000000000000000000e+00,-2.500000000000000555e-01,7.500000000000002220e-01,-1.000000000000000222e+00,-3.500000000000000888e+00,-1.400000000000000355e+01,2.200000000000000355e+01,-2.075000000000000355e+01,2.125000000000000355e+01,-1.850000000000000355e+01,1.400000000000000355e+01,-2.850000000000000711e+01,3.725000000000000711e+01,-1.500000000000000000e+00,-3.075000000000000711e+01,9.500000000000000000e+00,2.100000000000000711e+01,2.750000000000000000e+00,-3.250000000000000711e+01,3.825000000000000711e+01,-2.850000000000000711e+01,2.050000000000000711e+01,-4.025000000000000711e+01,2.000000000000000355e+01,1.650000000000000355e+01,-5.750000000000001776e+00,-7.000000000000001776e+00,2.275000000000000711e+01,-3.850000000000001421e+01,3.125000000000000711e+01,-7.500000000000008882e-01,-3.050000000000000711e+01,2.800000000000000711e+01,-1.300000000000000355e+01,1.525000000000000355e+01,-2.000000000000000000e+00,4.725000000000001421e+01
