3.837300000000001177e+01,3.590425000000001177e+01,3.315425000000001177e+01,2.943550000000001177e+01,2.327925000000000466e+01,1.565425000000000111e+01,6.091749999999994003e+00,-4.408250000000011326e+00,-1.604887500000001666e+01,-2.679887500000002376e+01,-3.731450000000003087e+01,-4.708012500000003797e+01,-5.542387500000005218e+01,-6.290825000000005218e+01,-7.008012500000005218e+01,-7.742387500000005218e+01,-8.597075000000006639e+01,-9.684575000000008060e+01,-1.106738750000000948e+02,-1.280801250000000948e+02,-1.474551250000000948e+02,-1.691895000000001232e+02,-1.925020000000001801e+02,-2.162207500000001801e+02,-2.376426250000001801e+02,-2.567676250000001801e+02,-2.712363750000001801e+02,-2.809238750000001801e+02,-2.871582500000001801e+02,-2.887051250000001801e+02,-2.855332500000001801e+02,-2.786113750000001801e+02,-2.705020000000001801e+02,-2.602988750000001801e+02,-2.495645000000001801e+02,-2.381738750000001801e+02,-2.262520000000001801e+02,-2.145645000000001801e+02,-2.046738750000001801e+02,-1.958301250000001801e+02,-1.865645000000001232e+02,-1.787988750000001232e+02,-1.718770000000000948e+02,-1.656426250000000948e+02,-1.611582500000000948e+02,-1.576270000000000948e+02,-1.530645000000000948e+02,-1.479863750000000948e+02,-1.432832500000000948e+02,-1.373613750000000948e+02,-1.306582500000000948e+02,-1.239238750000000948e+02,-1.148770000000000948e+02,-1.050332500000000948e+02,-9.509575000000009481e+01,-8.570512500000006639e+01,-7.728325000000005218e+01,-6.928325000000005218e+01,-6.198637500000005218e+01,-5.483012500000005218e+01,-4.983012500000005218e+01,-4.489262500000003797e+01,-4.061137500000003087e+01,-3.695512500000003087e+01,-3.233012500000003087e+01,-2.775200000000003087e+01,-2.339262500000002376e+01,-1.906450000000002376e+01,-1.342387500000001666e+01,-7.830125000000013991e+00,-2.455125000000011326e+00,4.294874999999993115e+00,1.071674999999999756e+01,1.737300000000000111e+01,2.484175000000000466e+01,3.274800000000001177e+01,3.998237500000001887e+01,4.715425000000002598e+01,5.521675000000003308e+01,6.245112500000003308e+01,7.012300000000003308e+01,7.770112500000003308e+01,8.509175000000004729e+01,9.234175000000004729e+01,1.006542500000000757e+02,1.079667500000000757e+02,1.140605000000000757e+02,1.204511250000000757e+02,1.261855000000000757e+02,1.300605000000000757e+02,1.324198750000000757e+02,1.331542500000000757e+02,1.312948750000000757e+02,1.298573750000000757e+02,1.285292500000000757e+02,1.262323750000000757e+02,1.233573750000000757e+02,1.212167500000000757e+02,1.195448750000000757e+02,1.182636250000000757e+02,1.173417500000000757e+02,1.151698750000000757e+02,1.118261250000000757e+02,1.068417500000000757e+02,1.004823750000000757e+02,9.312300000000007572e+01,8.504487500000004729e+01,7.613862500000003308e+01,6.829487500000003308e+01,6.135737500000003308e+01,5.516987500000003308e+01,5.104487500000003308e+01,4.973237500000003308e+01,5.093550000000003308e+01,5.402925000000003308e+01,6.024800000000003308e+01,6.773237500000003308e+01,7.715425000000003308e+01,8.866987500000004729e+01,1.019667500000000757e+02,1.159823750000000757e+02,1.312636250000000757e+02,1.478105000000000757e+02,1.638261250000000757e+02,1.804355000000001041e+02,1.965448750000001610e+02,2.129511250000001610e+02,2.293105000000001610e+02,2.459823750000001610e+02,2.617948750000001610e+02,2.759980000000001610e+02,2.902167500000001610e+02,3.036230000000001610e+02,3.169823750000001610e+02,3.298573750000001610e+02,3.427323750000001610e+02,3.553261250000001610e+02,3.681230000000001610e+02,3.819042500000002747e+02,3.965917500000002747e+02,4.114042500000002747e+02,4.262011250000002747e+02,4.410448750000003884e+02,4.540136250000003884e+02,4.647011250000003884e+02,4.734823750000003884e+02,4.811542500000003884e+02,4.858730000000003884e+02,4.889667500000003884e+02,4.910917500000003884e+02,4.912792500000003884e+02,4.914042500000003884e+02,4.914355000000003884e+02,4.914355000000003884e+02,4.899980000000003884e+02,4.892636250000003884e+02,4.885761250000003884e+02,4.869511250000003315e+02,4.854980000000003315e+02,4.835292500000003315e+02,4.818105000000003315e+02,4.788730000000003315e+02,4.769042500000003315e+02,4.738730000000003315e+02,4.697167500000003315e+02,4.660292500000003315e+02,4.615448750000003315e+02,4.565292500000003315e+02,4.512792500000003315e+02,4.476855000000003315e+02,4.427792500000003315e+02,4.385917500000003315e+02,4.347167500000003315e+02,4.292636250000003315e+02,4.238417500000003315e+02,4.183886250000003315e+02,4.125292500000003315e+02,4.041386250000002747e+02,3.956542500000002747e+02,3.865448750000002747e+02,3.778886250000001610e+02,3.707167500000001610e+02,3.630292500000001610e+02,3.552948750000001610e+02,3.474198750000001610e+02,3.407948750000001610e+02,3.349980000000001610e+02,3.283261250000001610e+02,3.207480000000001610e+02,3.125605000000001610e+02,3.052480000000001610e+02,2.980917500000001610e+02,2.910292500000001610e+02,2.841855000000001610e+02,2.761542500000001610e+02,2.695761250000001610e+02,2.639042500000001610e+02,2.574198750000001610e+02,2.508105000000001610e+02,2.451698750000001610e+02,2.391230000000001610e+02,2.330136250000001610e+02,2.286073750000001610e+02,2.238105000000001610e+02,2.191542500000001610e+02,2.156386250000001610e+02,2.120605000000001610e+02,2.080292500000001610e+02,2.049511250000001610e+02,2.022011250000001610e+02,1.993417500000001610e+02,1.969042500000001610e+02,1.937011250000001610e+02,1.906855000000001041e+02,1.883105000000001041e+02,1.852480000000000757e+02,1.817636250000000757e+02,1.784511250000000757e+02,1.740761250000000757e+02,1.687948750000000757e+02,1.637323750000000757e+02,1.574667500000000757e+02,1.496542500000000757e+02,1.413730000000000757e+02,1.330136250000000757e+02,1.227323750000000757e+02,1.114355000000000757e+02,9.954487500000007572e+01,8.682612500000004729e+01,7.515425000000003308e+01,6.332612500000003308e+01,5.179487500000001887e+01,3.938862500000001887e+01,2.912300000000001177e+01,2.051362500000000466e+01,1.304487499999999756e+01,7.638624999999994003e+00,2.544874999999992227e+00,-5.020000000000098828e-01,-2.455125000000011326e+00,-2.689500000000011326e+00,-4.377000000000012214e+00,-6.798875000000013991e+00,-9.939500000000016655e+00,-1.503325000000002021e+01,-2.137700000000002376e+01,-2.972075000000003087e+01,-3.945512500000003797e+01,-5.118950000000003797e+01,-6.293950000000005218e+01,-7.433012500000005218e+01,-8.506450000000006639e+01,-9.468950000000009481e+01,-1.041426250000000948e+02,-1.115957500000000948e+02,-1.172520000000000948e+02,-1.207207500000000948e+02,-1.218145000000000948e+02,-1.221895000000000948e+02,-1.215488750000000948e+02,-1.202207500000000948e+02,-1.176113750000000948e+02,-1.162676250000000948e+02,-1.166426250000000948e+02,-1.173457500000000948e+02,-1.201738750000000948e+02,-1.238770000000000948e+02,-1.283457500000000948e+02,-1.344082500000000948e+02,-1.405957500000000948e+02,-1.462051250000000948e+02,-1.495488750000000948e+02,-1.532207500000000948e+02,-1.548926250000000948e+02,-1.544395000000000948e+02,-1.528770000000000948e+02,-1.489082500000000948e+02,-1.441895000000000948e+02,-1.372207500000000948e+02,-1.305645000000000948e+02,-1.228145000000000948e+02,-1.151113750000000948e+02,-1.082207500000000948e+02,-1.025645000000000948e+02,-9.783012500000009481e+01,-9.358012500000006639e+01,-9.165825000000006639e+01,-9.081450000000005218e+01,-9.029887500000005218e+01,-9.109575000000005218e+01,-9.309575000000006639e+01,-9.423637500000006639e+01,-9.598637500000009481e+01,-9.836137500000009481e+01,-1.001270000000000948e+02,-1.012051250000000948e+02,-1.031738750000000948e+02,-1.040957500000000948e+02,-1.037832500000000948e+02,-1.032051250000000948e+02,-1.017207500000000948e+02,-9.956450000000009481e+01,-9.720512500000009481e+01,-9.364262500000008060e+01,-8.762700000000006639e+01,-8.076762500000005218e+01,-7.278325000000005218e+01,-6.472075000000005218e+01,-5.506450000000005218e+01,-4.373637500000003797e+01,-3.168950000000003087e+01,-2.001762500000002376e+01,-9.298875000000016655e+00,2.167499999999902283e-01,8.513624999999995779e+00,1.631050000000000111e+01,2.221675000000000466e+01,2.582612500000001177e+01,2.804487500000001177e+01,2.854487500000001177e+01,2.638862500000001177e+01,2.318550000000000466e+01,1.860737500000000466e+01,1.285737499999999756e+01,5.872999999999994003e+00,-2.142625000000011326e+00,-1.103325000000001666e+01,-1.993950000000002376e+01,-2.701762500000002731e+01,-3.376762500000003087e+01,-4.039262500000003797e+01,-4.686137500000004508e+01,-5.297075000000005218e+01,-5.884575000000005218e+01,-6.370512500000005218e+01,-6.898637500000005218e+01,-7.642387500000005218e+01,-8.440825000000006639e+01,-9.222075000000006639e+01,-1.003770000000000948e+02,-1.091426250000000948e+02,-1.165488750000000948e+02,-1.229082500000000948e+02,-1.263457500000000948e+02,-1.246582500000000948e+02,-1.189395000000000948e+02,-1.102363750000000948e+02,-9.765825000000008060e+01,-8.259575000000006639e+01,-6.786137500000005218e+01,-5.565825000000004508e+01,-4.798637500000003797e+01,-4.664262500000003797e+01,-5.150200000000005218e+01,-6.159575000000005218e+01,-7.681450000000006639e+01,-9.465825000000006639e+01,-1.124707500000000948e+02,-1.280801250000000948e+02,-1.398145000000000948e+02,-1.467676250000000948e+02,-1.496270000000000948e+02,-1.492988750000000948e+02,-1.477363750000000948e+02,-1.458145000000000948e+02,-1.469082500000000948e+02,-1.537363750000000948e+02,-1.672207500000001232e+02,-1.886582500000001517e+02,-2.166582500000001801e+02,-2.493613750000001801e+02,-2.829238750000001801e+02,-3.154238750000001801e+02,-3.418770000000001801e+02,-3.540020000000001801e+02,-3.501426250000001801e+02,-3.281895000000001801e+02,-2.875957500000001801e+02,-2.296738750000001801e+02,-1.608926250000001232e+02,-8.604887500000008060e+01,-1.070512500000001843e+01,5.406050000000001887e+01,1.055292500000000473e+02,1.414980000000000757e+02,1.589355000000000757e+02,1.580917500000000757e+02,1.455448750000000757e+02,1.250605000000000757e+02,9.940425000000004729e+01,7.368550000000003308e+01,5.043550000000001887e+01,3.035737500000000821e+01,1.499800000000000111e+01,4.279249999999993115e+00,-5.189500000000012214e+00,-1.420512500000001666e+01,-2.247075000000002376e+01,-2.929887500000003087e+01,-3.679887500000003797e+01,-4.487700000000003797e+01,-5.151762500000005218e+01,-5.733012500000005218e+01,-6.026762500000005218e+01,-6.017387500000005218e+01,-5.756450000000005218e+01,-5.417387500000005218e+01,-4.803325000000004508e+01,-3.868950000000003797e+01,-2.897075000000002731e+01,-1.851762500000002021e+01,-9.267625000000016655e+00,-1.564500000000010882e+00,4.591749999999994003e+00,9.638624999999997556e+00,1.273237500000000111e+01,1.257612499999999933e+01,1.056049999999999756e+01,7.904249999999995779e+00,4.982374999999994003e+00,9.042499999999907834e-01,-3.595750000000012214e+00,-7.439500000000014879e+00,-1.198637500000001666e+01,-1.487700000000002021e+01,-1.670512500000002021e+01,-1.872075000000002021e+01,-2.050200000000002021e+01,-2.086137500000002021e+01,-2.117387500000002021e+01,-2.248637500000002376e+01,-2.284575000000002376e+01,-2.372075000000002731e+01,-2.495512500000003087e+01,-2.636137500000003087e+01,-2.818950000000003087e+01,-3.075200000000003087e+01,-3.311137500000003087e+01,-3.428325000000003087e+01,-3.478325000000003087e+01,-3.592387500000003087e+01,-3.684575000000003087e+01,-3.784575000000003087e+01,-3.890825000000003087e+01,-3.873637500000003087e+01,-3.861137500000003087e+01,-3.903325000000003087e+01,-4.011137500000003087e+01,-4.040825000000003087e+01,-4.011137500000003087e+01,-4.000200000000003087e+01,-3.884575000000003087e+01,-3.912700000000003087e+01,-3.889262500000003087e+01,-3.847075000000003087e+01,-3.886137500000003087e+01,-3.948637500000003087e+01,-4.083012500000003087e+01,-4.109575000000003087e+01,-4.275200000000003087e+01,-4.389262500000003087e+01,-4.628325000000003797e+01,-4.928325000000005218e+01,-5.101762500000005218e+01,-5.286137500000005218e+01,-5.531450000000005218e+01,-5.836137500000005218e+01,-6.070512500000005218e+01,-6.258012500000005218e+01,-6.314262500000005218e+01,-6.279887500000005218e+01,-6.334575000000005218e+01,-6.304887500000005218e+01,-6.201762500000005218e+01,-6.139262500000005218e+01,-6.058012500000005218e+01,-6.065825000000005218e+01,-6.128325000000005218e+01,-6.298637500000005218e+01,-6.401762500000005218e+01,-6.536137500000005218e+01,-6.658012500000005218e+01,-6.697075000000005218e+01,-6.686137500000005218e+01,-6.623637500000005218e+01,-6.509575000000005218e+01,-6.323637500000005218e+01,-6.128325000000005218e+01,-5.951762500000005218e+01,-5.761137500000005218e+01,-5.622075000000005218e+01,-5.517387500000005218e+01,-5.348637500000005218e+01,-5.164262500000005218e+01,-4.892387500000005218e+01,-4.643950000000003797e+01,-4.414262500000003797e+01,-4.206450000000003087e+01,-3.954887500000003087e+01,-3.803325000000003087e+01,-3.708012500000003087e+01,-3.659575000000003087e+01,-3.745512500000003087e+01,-3.887700000000003087e+01,-3.975200000000003087e+01,-3.976762500000003087e+01,-4.050200000000003087e+01,-3.983012500000003087e+01,-3.878325000000003087e+01,-3.833012500000003087e+01,-3.723637500000003087e+01,-3.648637500000003087e+01,-3.708012500000003087e+01,-3.965825000000003087e+01,-4.251762500000003087e+01,-4.684575000000003797e+01,-5.204887500000005218e+01,-5.659575000000005218e+01,-6.059575000000005218e+01,-6.245512500000005218e+01,-6.247075000000005218e+01,-5.954887500000005218e+01,-5.411137500000005218e+01,-4.668950000000003797e+01,-3.793950000000003797e+01,-2.808012500000002731e+01,-1.912700000000002376e+01,-1.037700000000001666e+01,-2.252000000000011326e+00,4.060499999999994003e+00,8.951124999999995779e+00,1.290424999999999756e+01,1.596675000000000111e+01,1.784175000000000111e+01,1.943550000000000111e+01,1.943550000000000111e+01,1.904487500000000111e+01,1.754487500000000111e+01,1.481050000000000111e+01,1.074799999999999756e+01,5.435499999999994003e+00,-1.939500000000010882e+00,-9.642625000000014879e+00,-2.020512500000002376e+01,-3.333012500000003087e+01,-4.770512500000003797e+01,-6.479887500000005218e+01,-8.373637500000006639e+01,-1.040645000000000664e+02,-1.251582500000000948e+02,-1.488926250000000948e+02,-1.710645000000001232e+02,-1.929238750000001801e+02,-2.150801250000001801e+02,-2.350488750000001801e+02,-2.539238750000001801e+02,-2.720957500000001801e+02,-2.883301250000001801e+02,-3.024863750000001801e+02,-3.162832500000001801e+02,-3.290332500000001801e+02,-3.389551250000001801e+02,-3.481113750000001801e+02,-3.554551250000001801e+02,-3.602988750000001801e+02,-3.646895000000001801e+02,-3.678926250000001801e+02,-3.688301250000001801e+02,-3.673145000000001801e+02,-3.655801250000001801e+02,-3.620020000000001801e+02,-3.575957500000001801e+02,-3.533301250000001801e+02,-3.470801250000001801e+02,-3.392676250000001801e+02,-3.313770000000001801e+02,-3.232520000000001801e+02,-3.150645000000001801e+02,-3.081895000000001801e+02,-3.018145000000001801e+02,-2.960645000000001801e+02,-2.922520000000001801e+02,-2.901270000000001801e+02,-2.888457500000001801e+02,-2.896895000000001801e+02,-2.903457500000001801e+02,-2.907988750000001801e+02,-2.901270000000001801e+02,-2.874551250000001801e+02,-2.829551250000001801e+02,-2.763301250000001801e+02,-2.692051250000001801e+02,-2.594551250000001801e+02,-2.497988750000001801e+02,-2.386895000000001801e+02,-2.292676250000001801e+02,-2.213770000000001801e+02,-2.152520000000001801e+02,-2.098613750000001801e+02,-2.036738750000001801e+02,-1.978613750000001801e+02,-1.907207500000001801e+02,-1.832363750000001232e+02,-1.729707500000001232e+02,-1.612676250000000948e+02,-1.464238750000000948e+02,-1.318457500000000948e+02,-1.171895000000000948e+02,-1.029238750000000948e+02,-8.986137500000006639e+01,-7.801762500000005218e+01,-6.818950000000005218e+01,-5.840825000000005218e+01,-5.081450000000005218e+01,-4.253325000000003797e+01,-3.512700000000003087e+01,-2.886137500000003087e+01,-2.187700000000002376e+01,-1.537700000000002021e+01,-8.627000000000016655e+00,-3.611375000000012214e+00,1.122999999999990894e+00,4.701124999999993115e+00,8.029249999999995779e+00,1.221674999999999756e+01,1.543550000000000111e+01,1.882612500000000111e+01,2.165425000000000466e+01,2.541987500000001177e+01,2.887300000000001177e+01,3.124800000000001177e+01,3.391987500000001177e+01,3.581050000000001177e+01,3.765425000000001177e+01,3.943550000000001177e+01,4.152925000000001177e+01,4.341987500000001177e+01,4.581050000000001887e+01,4.974800000000003308e+01,5.356050000000003308e+01,5.802925000000003308e+01,6.204487500000003308e+01,6.620112500000003308e+01,6.965425000000003308e+01,7.132612500000003308e+01,7.124800000000003308e+01,6.941987500000003308e+01,6.590425000000003308e+01,5.996675000000003308e+01,5.287300000000003308e+01,4.381050000000001887e+01,3.393550000000001177e+01,2.441987500000000466e+01,1.613862500000000111e+01,8.529249999999995779e+00,1.544874999999991783e+00,-3.361375000000011326e+00,-7.236375000000013102e+00,-8.908250000000014879e+00,-8.986375000000014879e+00,-7.377000000000013991e+00,-5.533250000000013102e+00,-3.439500000000011770e+00,1.542499999999907834e-01,3.841749999999992671e+00,7.826124999999995779e+00,1.063862499999999756e+01,1.312299999999999756e+01,1.435737500000000111e+01,1.581050000000000111e+01,1.784175000000000111e+01,1.882612500000000111e+01,1.876362500000000111e+01,1.827925000000000111e+01,1.706050000000000111e+01,1.435737500000000111e+01,1.099799999999999756e+01,4.857374999999993115e+00,-3.361375000000012214e+00,-1.343950000000001666e+01,-2.456450000000002376e+01,-3.615825000000003087e+01,-4.790825000000003797e+01,-5.989262500000005218e+01,-7.273637500000005218e+01,-8.465825000000006639e+01,-9.764262500000009481e+01,-1.101113750000000948e+02,-1.224082500000000948e+02,-1.365332500000000948e+02,-1.505488750000000948e+02,-1.653301250000000948e+02,-1.801113750000001232e+02,-1.947676250000001801e+02,-2.087832500000001801e+02,-2.240020000000001801e+02,-2.397051250000001801e+02,-2.556895000000001801e+02,-2.742363750000001801e+02,-2.936426250000001801e+02,-3.139082500000001801e+02,-3.360488750000001801e+02,-3.584082500000001801e+02,-3.799551250000002938e+02,-4.017520000000002938e+02,-4.212832500000002938e+02,-4.370332500000002938e+02,-4.496738750000003506e+02,-4.595801250000003506e+02,-4.663770000000003506e+02,-4.710488750000003506e+02,-4.738926250000003506e+02,-4.745332500000003506e+02,-4.745488750000003506e+02,-4.745488750000003506e+02,-4.745645000000003506e+02,-4.745957500000003506e+02,-4.746270000000003506e+02,-4.746895000000003506e+02,-4.747520000000003506e+02,-4.748145000000003506e+02,-4.748613750000003506e+02,-4.748926250000003506e+02,-4.749395000000003506e+02,-4.749707500000003506e+02,-4.749863750000003506e+02,-4.749863750000003506e+02,-4.749863750000003506e+02,-4.749863750000003506e+02,-4.749863750000003506e+02,-4.749863750000003506e+02,-4.749707500000003506e+02,-4.749551250000003506e+02,-4.749082500000003506e+02,-4.732051250000003506e+02,-4.699863750000003506e+02,-4.639863750000003506e+02,-4.552520000000003506e+02,-4.430801250000002938e+02,-4.275176250000002938e+02,-4.072051250000002938e+02,-3.815020000000002938e+02,-3.538613750000001801e+02,-3.229707500000001801e+02,-2.915176250000001801e+02,-2.596582500000001801e+02,-2.279082500000001801e+02,-1.963613750000001801e+02,-1.670645000000001232e+02,-1.412363750000000948e+02,-1.159082500000000948e+02,-9.350200000000006639e+01,-7.178325000000005218e+01,-5.025200000000003797e+01,-3.043950000000003087e+01,-1.147075000000001488e+01,7.232374999999994891e+00,2.643550000000000466e+01,4.351362500000001887e+01,6.065425000000003308e+01,7.651362500000004729e+01,9.031050000000006150e+01,1.041855000000000757e+02,1.171855000000000757e+02,1.293417500000000757e+02,1.402011250000000757e+02,1.513261250000000757e+02,1.615761250000000757e+02,1.714980000000000757e+02,1.813261250000001041e+02,1.900605000000001610e+02,1.975292500000001610e+02,2.040448750000001610e+02,2.097323750000001610e+02,2.143730000000001610e+02,2.184511250000001610e+02,2.216855000000001610e+02,2.244511250000001610e+02,2.274823750000001610e+02,2.309511250000001610e+02,2.336386250000001610e+02,2.362948750000001610e+02,2.394667500000001610e+02,2.426698750000001610e+02,2.463261250000001610e+02,2.504511250000001610e+02,2.542948750000001610e+02,2.582167500000001610e+02,2.642792500000001610e+02,2.714667500000001610e+02,2.794511250000001610e+02,2.883417500000001610e+02,2.977323750000001610e+02,3.080605000000001610e+02,3.196698750000001610e+02,3.326698750000001610e+02,3.445292500000001610e+02,3.557636250000001610e+02,3.662948750000001610e+02,3.764667500000001610e+02,3.868573750000002747e+02,3.961855000000002747e+02,4.033573750000002747e+02,4.087323750000003315e+02,4.139198750000003315e+02,4.186542500000003315e+02,4.237167500000003315e+02,4.276073750000003315e+02,4.301386250000003315e+02,4.319511250000003315e+02,4.351073750000003315e+02,4.383573750000003315e+02,4.413886250000003315e+02,4.441073750000003315e+02,4.456386250000003315e+02,4.467948750000003315e+02,4.478261250000003315e+02,4.496073750000003315e+02,4.501230000000003315e+02,4.497480000000003315e+02,4.491386250000003315e+02,4.487792500000003315e+02,4.473730000000003315e+02,4.461698750000003315e+02,4.446855000000003315e+02,4.418730000000003315e+02,4.383261250000003315e+02,4.347011250000003315e+02,4.300448750000003315e+02,4.241542500000003315e+02,4.191386250000003315e+02,4.134198750000003315e+02,4.070292500000002747e+02,4.002011250000002747e+02,3.929198750000002747e+02,3.849355000000002747e+02,3.773730000000001610e+02,3.694042500000001610e+02,3.599667500000001610e+02,3.502011250000001610e+02,3.393573750000001610e+02,3.270448750000001610e+02,3.145136250000001610e+02,3.006386250000001610e+02,2.845761250000001610e+02,2.671855000000001610e+02,2.496386250000001610e+02,2.318573750000001610e+02,2.147167500000001610e+02,1.984198750000001610e+02,1.815605000000001041e+02,1.657792500000000757e+02,1.510917500000000757e+02,1.371542500000000757e+02,1.225448750000000757e+02,1.075761250000000757e+02,9.176362500000006150e+01,7.584175000000004729e+01,6.073237500000003308e+01,4.556050000000001887e+01,2.990425000000000466e+01,1.404487499999999756e+01,-1.502000000000010438e+00,-1.703325000000002021e+01,-3.192387500000002731e+01,-4.726762500000003797e+01,-6.320512500000005218e+01,-7.968950000000006639e+01,-9.614262500000008060e+01,-1.120176250000000948e+02,-1.262207500000000948e+02,-1.406895000000000948e+02,-1.551270000000000948e+02,-1.680957500000000948e+02,-1.802988750000001232e+02,-1.905957500000001801e+02,-1.980020000000001801e+02,-2.037207500000001801e+02,-2.088457500000001801e+02,-2.107988750000001801e+02,-2.104863750000001801e+02,-2.091426250000001801e+02,-2.059707500000001801e+02,-2.023457500000001801e+02,-1.995801250000001801e+02,-1.960332500000001801e+02,-1.924863750000001517e+02,-1.902676250000001232e+02,-1.878926250000000948e+02,-1.855645000000000948e+02,-1.832988750000000948e+02,-1.811426250000000948e+02,-1.783145000000000948e+02,-1.761582500000000948e+02,-1.738770000000000948e+02,-1.700020000000000948e+02,-1.665957500000000948e+02,-1.618613750000000948e+02,-1.575332500000000948e+02,-1.523613750000000948e+02,-1.470176250000000948e+02,-1.413457500000000948e+02,-1.342051250000000948e+02,-1.275957500000000948e+02,-1.207676250000000948e+02,-1.146895000000000948e+02,-1.080801250000000948e+02,-1.020488750000000948e+02,-9.589262500000009481e+01,-8.911137500000006639e+01,-8.425200000000005218e+01,-7.965825000000005218e+01,-7.437700000000005218e+01,-7.014262500000005218e+01,-6.547075000000005218e+01,-6.058012500000005218e+01,-5.634575000000005218e+01,-5.289262500000005218e+01,-4.800200000000005218e+01,-4.345512500000003797e+01,-3.940825000000003797e+01,-3.383012500000003087e+01,-2.953325000000003087e+01,-2.515825000000002731e+01,-2.042387500000002376e+01,-1.578325000000002021e+01,-1.218950000000001666e+01,-7.314500000000013102e+00,-2.548875000000011326e+00,1.201124999999991338e+00,6.372999999999995779e+00,1.151362499999999756e+01,1.652925000000000111e+01,2.187300000000000466e+01,2.824800000000001177e+01,3.281050000000001177e+01,3.709175000000001887e+01,4.099800000000001887e+01,4.301362500000001887e+01,4.509175000000001887e+01,4.732612500000001887e+01,4.845112500000003308e+01,4.852925000000003308e+01,4.945112500000003308e+01,4.937300000000003308e+01,5.020112500000003308e+01,5.187300000000003308e+01,5.220112500000003308e+01,5.241987500000003308e+01,5.371675000000003308e+01,5.420112500000003308e+01,5.454487500000003308e+01,5.579487500000003308e+01,5.613862500000003308e+01,5.706050000000003308e+01,5.902925000000003308e+01,6.060737500000003308e+01,6.171675000000003308e+01,6.460737500000003308e+01,6.745112500000003308e+01,7.068550000000003308e+01,7.381050000000003308e+01,7.595112500000003308e+01,7.838862500000003308e+01,8.096675000000003308e+01,8.323237500000003308e+01,8.426362500000003308e+01,8.451362500000003308e+01,8.410737500000003308e+01,8.393550000000003308e+01,8.391987500000003308e+01,8.309175000000003308e+01,8.124800000000003308e+01,8.021675000000003308e+01,7.918550000000003308e+01,7.921675000000003308e+01,7.960737500000003308e+01,8.029487500000003308e+01,8.029487500000003308e+01,7.995112500000003308e+01,8.084175000000003308e+01,8.048237500000003308e+01,7.954487500000003308e+01,7.713862500000003308e+01,7.354487500000003308e+01,6.940425000000003308e+01,6.670112500000003308e+01,6.391987500000003308e+01,5.962300000000003308e+01,5.576362500000003308e+01,5.241987500000003308e+01,5.009175000000003308e+01,4.848237500000002598e+01,4.727925000000001887e+01,4.454487500000001887e+01,4.220112500000001177e+01,4.134175000000001177e+01,4.041987500000001177e+01,4.013862500000001177e+01,3.929487500000001177e+01
2.687500000000001332e+00,4.593750000000002665e+00,6.781250000000003553e+00,9.625000000000007105e+00,1.090625000000000888e+01,1.221875000000001066e+01,9.531250000000007105e+00,5.593750000000003553e+00,-2.656250000000000000e-01,-6.828125000000003553e+00,-9.500000000000005329e+00,-1.198437500000000711e+01,-1.032812500000000711e+01,-4.906250000000003553e+00,-1.171875000000001332e+00,6.046875000000003553e+00,1.209375000000000711e+01,1.446875000000000888e+01,1.967187500000001421e+01,2.020312500000001421e+01,1.707812500000001421e+01,1.437500000000001066e+01,3.062500000000002665e+00,-8.968750000000007105e+00,-1.754687500000001421e+01,-2.798437500000001776e+01,-2.889062500000002132e+01,-2.570312500000002132e+01,-2.265625000000001421e+01,-1.404687500000000711e+01,-9.718750000000007105e+00,-6.640625000000005329e+00,-3.312500000000002665e+00,-4.265625000000003553e+00,-1.937500000000001776e+00,8.593750000000004441e-01,1.687500000000001554e+00,5.250000000000004441e+00,4.671875000000003553e+00,3.015625000000002220e+00,4.500000000000002665e+00,3.734375000000002220e+00,4.687500000000003553e+00,5.265625000000003553e+00,3.593750000000002665e+00,1.875000000000001332e+00,-6.250000000000005551e-02,-1.015625000000000444e+00,-4.156250000000002665e+00,-6.578125000000005329e+00,-8.156250000000005329e+00,-9.640625000000007105e+00,-5.812500000000004441e+00,-7.812500000000009992e-01,3.218750000000002220e+00,6.140625000000005329e+00,6.593750000000005329e+00,4.718750000000003553e+00,4.171875000000002665e+00,4.703125000000003553e+00,2.765625000000002665e+00,2.703125000000002220e+00,1.718750000000000000e-01,-2.546875000000001776e+00,-2.171875000000001776e+00,-2.875000000000001776e+00,-3.593749999999997780e-01,3.750000000000002220e-01,1.718750000000000000e-01,2.656250000000000000e-01,-3.171875000000002665e+00,-3.671875000000002665e+00,-3.406250000000001776e+00,-2.937500000000001776e+00,3.437500000000001110e-01,1.875000000000000888e+00,1.515625000000000444e+00,1.031250000000000222e+00,-5.937500000000004441e-01,-1.328125000000000666e+00,-5.000000000000002220e-01,1.093750000000000833e-01,1.343750000000000888e+00,5.937500000000003331e-01,-9.062500000000003331e-01,-9.687500000000003331e-01,-1.187500000000000444e+00,1.921875000000001110e+00,7.312500000000003553e+00,1.000000000000000533e+01,1.164062500000000711e+01,1.096875000000000711e+01,6.703125000000003553e+00,3.265625000000002220e+00,1.562500000000002220e-01,-4.234375000000003553e+00,-7.671875000000005329e+00,-8.093750000000005329e+00,-6.859375000000005329e+00,-1.453125000000001332e+00,6.718750000000003553e+00,1.032812500000000533e+01,1.229687500000000711e+01,1.059375000000000711e+01,5.078125000000002665e+00,3.437500000000002665e+00,1.328125000000001110e+00,-4.531249999999997224e-01,-1.546875000000000888e+00,-7.484375000000005329e+00,-1.185937500000000711e+01,-1.529687500000001066e+01,-1.560937500000001066e+01,-9.812500000000007105e+00,-6.343750000000003553e+00,-3.250000000000001776e+00,-3.796875000000002220e+00,-9.531250000000007105e+00,-1.123437500000000711e+01,-1.071875000000000533e+01,-7.046875000000003553e+00,9.843750000000006661e-01,4.312500000000002665e+00,4.546875000000002665e+00,1.687500000000001332e+00,-3.609375000000001776e+00,-3.390625000000001776e+00,-2.000000000000001332e+00,2.578125000000000888e+00,6.265625000000003553e+00,4.562500000000002665e+00,4.031250000000002665e+00,1.062500000000000888e+00,1.140625000000001332e+00,3.453125000000002665e+00,2.328125000000001776e+00,1.234375000000000888e+00,-4.500000000000002665e+00,-9.656250000000005329e+00,-1.003125000000000355e+01,-7.906250000000003553e+00,9.218750000000013323e-01,8.765625000000001776e+00,1.417187500000000000e+01,1.735937500000000000e+01,1.345312499999999289e+01,1.115625000000000355e+01,7.250000000000011546e+00,2.218750000000019096e+00,1.843750000000029754e+00,-1.093749999999982903e+00,-2.343749999999994671e+00,-3.774758283725532237e-15,1.249999999999855671e-01,2.437499999999990230e+00,5.109374999999995559e+00,3.109374999999998224e+00,2.734375000000001776e+00,-5.625000000000000000e-01,-4.281250000000002665e+00,-2.312500000000001776e+00,-2.000000000000001332e+00,2.781250000000001776e+00,7.375000000000004441e+00,6.843750000000003553e+00,6.031250000000003553e+00,1.765625000000001110e+00,-2.781250000000001776e+00,-5.031250000000003553e+00,-4.562500000000003553e+00,-2.906250000000002665e+00,-1.218750000000001110e+00,1.343750000000000666e+00,3.171875000000001776e+00,4.218750000000002665e+00,7.484375000000005329e+00,7.968750000000005329e+00,4.921875000000003553e+00,3.718750000000003553e+00,-2.109375000000001776e+00,-4.828125000000003553e+00,-4.718750000000003553e+00,-7.218750000000004441e+00,-3.859375000000001776e+00,-2.484375000000001332e+00,1.015625000000001332e+00,6.125000000000003553e+00,5.546875000000003553e+00,6.000000000000003553e+00,1.000000000000000000e+00,-3.312500000000002665e+00,-3.968750000000003553e+00,-6.468750000000005329e+00,-2.875000000000002665e+00,-1.562500000000004441e-01,6.718750000000002220e-01,4.343750000000002665e+00,3.140625000000002220e+00,-1.249999999999997502e-01,-1.484375000000000888e+00,-4.562500000000003553e+00,-5.765625000000003553e+00,-2.734375000000001776e+00,-7.500000000000002220e-01,-3.124999999999988898e-02,1.359375000000001110e+00,-6.249999999999977796e-02,-2.593750000000001776e+00,-1.140625000000001110e+00,-8.906250000000006661e-01,-9.687500000000006661e-01,1.281250000000000888e+00,-6.406250000000004441e-01,-1.500000000000001110e+00,3.125000000000000555e-01,5.625000000000004441e-01,3.109375000000002220e+00,4.609375000000003553e+00,3.546875000000002665e+00,2.390625000000001776e+00,5.156250000000000000e-01,1.031250000000000444e+00,2.781250000000001776e+00,5.625000000000003553e+00,8.546875000000005329e+00,7.078125000000004441e+00,4.687500000000003553e+00,7.656250000000004441e-01,-2.140625000000001776e+00,-2.343750000000001776e+00,-2.265625000000001776e+00,-1.234375000000000666e+00,-3.015625000000001776e+00,-3.937500000000002220e+00,-5.453125000000003553e+00,-7.296875000000004441e+00,-7.515625000000004441e+00,-9.234375000000005329e+00,-8.625000000000005329e+00,-7.421875000000005329e+00,-3.375000000000002220e+00,2.750000000000002220e+00,7.984375000000005329e+00,1.412500000000000888e+01,1.628125000000001066e+01,1.381250000000001066e+01,9.281250000000007105e+00,1.203125000000001776e+00,-5.375000000000002665e+00,-5.812500000000003553e+00,-4.859375000000002665e+00,-4.375000000000000000e-01,1.812500000000001110e+00,-2.546875000000001776e+00,-6.906250000000003553e+00,-1.375000000000000711e+01,-1.571875000000001066e+01,-1.262500000000000888e+01,-8.000000000000005329e+00,4.687499999999977796e-02,3.093750000000001776e+00,5.921875000000003553e+00,6.390625000000003553e+00,4.453125000000002665e+00,7.156250000000004441e+00,7.546875000000005329e+00,8.750000000000005329e+00,7.656250000000003553e+00,2.531250000000001776e+00,-3.156250000000001776e+00,-9.171875000000005329e+00,-1.026562500000000711e+01,-1.046875000000000711e+01,-7.359375000000004441e+00,-4.500000000000002665e+00,-5.000000000000003553e+00,-4.718750000000002665e+00,-7.125000000000003553e+00,-7.281250000000003553e+00,-5.375000000000003553e+00,-1.875000000000001332e+00,3.234375000000002220e+00,7.281250000000004441e+00,1.006250000000000533e+01,9.578125000000005329e+00,8.203125000000005329e+00,5.156250000000002665e+00,1.500000000000000888e+00,1.718750000000000833e-01,-5.937500000000004441e-01,4.062500000000003331e-01,2.109375000000001332e+00,3.296875000000001776e+00,2.734375000000001776e+00,-3.750000000000003331e-01,-2.171875000000001332e+00,-5.265625000000003553e+00,-6.406250000000003553e+00,-3.031250000000001776e+00,-2.734375000000001776e+00,-1.406250000000000888e+00,-1.875000000000002220e-01,-3.796875000000002220e+00,-3.921875000000002665e+00,-4.562500000000002665e+00,-7.484375000000005329e+00,-7.218750000000005329e+00,-8.781250000000005329e+00,-7.937500000000005329e+00,-3.078125000000001776e+00,1.562500000000000888e+00,5.703125000000003553e+00,7.234375000000005329e+00,6.718750000000005329e+00,4.984375000000003553e+00,5.750000000000003553e+00,7.718750000000005329e+00,7.984375000000005329e+00,9.140625000000007105e+00,6.890625000000005329e+00,4.671875000000003553e+00,5.562500000000003553e+00,5.703125000000003553e+00,8.390625000000007105e+00,7.625000000000006217e+00,3.578125000000002665e+00,-3.437500000000006661e-01,-6.562500000000005329e+00,-7.546875000000005329e+00,-6.421875000000005329e+00,-5.296875000000003553e+00,-1.140625000000000444e+00,5.312500000000007772e-01,2.718750000000002220e+00,4.890625000000003553e+00,4.046875000000002665e+00,3.984375000000002665e+00,1.468750000000000888e+00,7.187500000000001110e-01,2.312500000000001332e+00,7.656250000000007772e-01,9.218750000000005551e-01,-4.156250000000001776e+00,-1.409375000000000711e+01,-2.271875000000001421e+01,-3.306250000000002132e+01,-3.576562500000002132e+01,-2.878125000000002132e+01,-1.290625000000000888e+01,1.173437500000000888e+01,3.378125000000002132e+01,5.067187500000003553e+01,5.464062500000004263e+01,4.431250000000002842e+01,2.871875000000001421e+01,5.937500000000000888e+00,-1.240625000000001066e+01,-2.303125000000001776e+01,-3.067187500000002132e+01,-2.837500000000002132e+01,-2.573437500000001776e+01,-2.206250000000001421e+01,-1.264062500000000711e+01,-4.265625000000002665e+00,1.081250000000000533e+01,2.728125000000001421e+01,3.917187500000002132e+01,4.846875000000002842e+01,4.790625000000003553e+01,3.996875000000002842e+01,2.548437500000002132e+01,3.546875000000003553e+00,-2.270312500000001421e+01,-5.175000000000004263e+01,-8.112500000000005684e+01,-1.040468750000000711e+02,-1.165000000000000853e+02,-1.159687500000000853e+02,-9.220312500000007105e+01,-5.192187500000003553e+01,7.968750000000017764e-01,6.107812500000004263e+01,1.061250000000000711e+02,1.307187500000000853e+02,1.295000000000000853e+02,1.010625000000000568e+02,5.965625000000003553e+01,1.689062500000001066e+01,-1.581250000000001243e+01,-3.403125000000002132e+01,-3.700000000000002132e+01,-2.937500000000001776e+01,-1.960937500000001421e+01,-8.125000000000005329e+00,-6.562500000000004441e-01,2.375000000000001332e+00,4.890625000000002665e+00,3.343750000000001776e+00,2.484375000000001776e+00,6.093750000000006661e-01,-4.062500000000002665e+00,-6.984375000000005329e+00,-9.859375000000007105e+00,-1.173437500000000711e+01,-1.214062500000000888e+01,-1.237500000000001066e+01,-1.395312500000001066e+01,-1.284375000000000888e+01,-8.437500000000005329e+00,-2.906250000000001776e+00,5.265625000000003553e+00,1.089062500000000711e+01,1.337500000000001066e+01,1.321875000000000888e+01,1.092187500000000711e+01,7.828125000000005329e+00,4.671875000000002665e+00,4.062500000000002665e+00,2.781250000000001776e+00,3.203125000000002665e+00,3.093750000000002665e+00,-1.218750000000000444e+00,-2.875000000000001332e+00,-5.015625000000003553e+00,-6.750000000000004441e+00,-2.671875000000001776e+00,-1.093750000000000888e+00,-1.625000000000001110e+00,6.093750000000004441e-01,-2.078125000000001776e+00,-2.453125000000002665e+00,2.093750000000001332e+00,2.406250000000001776e+00,6.140625000000003553e+00,6.109375000000003553e+00,4.375000000000001110e-01,-1.250000000000001332e+00,-5.828125000000003553e+00,-5.718750000000003553e+00,-1.718750000000001110e+00,-1.765625000000001110e+00,1.093750000000000666e+00,9.687500000000006661e-01,5.312500000000000000e-01,2.421875000000001332e+00,1.671875000000001110e+00,1.406250000000000888e+00,-2.265625000000001332e+00,-4.218750000000002665e+00,-4.703125000000003553e+00,-4.000000000000002665e+00,1.531250000000000888e+00,3.062500000000001776e+00,5.015625000000003553e+00,4.093750000000002665e+00,4.843750000000003331e-01,-2.656250000000000000e-01,-2.171875000000001332e+00,-3.125000000000000000e-02,1.375000000000000888e+00,1.515625000000001110e+00,2.843750000000002220e+00,1.531250000000000888e+00,1.140625000000000888e+00,1.796875000000001332e+00,6.250000000000000000e-02,-2.140625000000001332e+00,-2.234375000000001332e+00,-4.359375000000003553e+00,-4.171875000000003553e+00,-1.890625000000001332e+00,-3.718750000000002665e+00,-2.328125000000001776e+00,-6.718750000000004441e-01,7.812500000000000000e-02,4.265625000000002665e+00,6.156250000000003553e+00,5.906250000000003553e+00,4.734375000000003553e+00,1.390625000000001110e+00,-2.890625000000001332e+00,-5.109375000000003553e+00,-7.156250000000004441e+00,-7.640625000000005329e+00,-4.203125000000002665e+00,-2.468750000000001332e+00,1.859375000000001554e+00,5.468750000000003553e+00,3.703125000000001776e+00,4.046875000000001776e+00,1.562499999999995559e-01,-3.828125000000002665e+00,-2.515625000000001776e+00,-4.109375000000002665e+00,-2.453125000000001332e+00,-4.375000000000002220e-01,-1.984375000000001332e+00,5.625000000000002220e-01,2.671875000000001776e+00,5.031250000000003553e+00,8.765625000000005329e+00,7.093750000000004441e+00,4.390625000000003553e+00,-3.750000000000000000e-01,-5.812500000000003553e+00,-6.109375000000003553e+00,-6.312500000000003553e+00,-4.171875000000003553e+00,-7.812500000000006661e-01,5.156250000000002220e-01,1.921875000000001110e+00,4.421875000000003553e+00,6.640625000000004441e+00,7.843750000000004441e+00,1.101562500000000711e+01,9.031250000000005329e+00,4.171875000000002665e+00,-5.937500000000000000e-01,-1.115625000000000711e+01,-1.723437500000001066e+01,-1.953125000000001421e+01,-2.064062500000001421e+01,-1.326562500000000711e+01,-5.937500000000003553e+00,-6.249999999999955591e-02,7.453125000000005329e+00,9.187500000000007105e+00,8.562500000000005329e+00,8.500000000000005329e+00,5.062500000000003553e+00,1.796875000000001332e+00,1.843750000000001332e+00,5.312500000000005551e-01,7.812500000000009992e-01,4.812500000000003553e+00,4.500000000000003553e+00,5.578125000000003553e+00,7.453125000000005329e+00,3.687500000000002665e+00,4.375000000000002665e+00,5.000000000000003553e+00,3.500000000000002665e+00,7.640625000000005329e+00,9.015625000000007105e+00,9.578125000000005329e+00,1.182812500000000711e+01,1.173437500000000711e+01,1.017187500000000711e+01,7.812500000000006217e+00,4.531250000000003553e+00,-2.171875000000002220e+00,-5.562500000000005329e+00,-7.078125000000005329e+00,-8.421875000000005329e+00,-5.328125000000003553e+00,-3.515625000000001776e+00,-3.343750000000001332e+00,-4.359375000000001776e+00,-5.890625000000003553e+00,-7.906250000000004441e+00,-8.468750000000005329e+00,-5.484375000000003553e+00,-4.703125000000003553e+00,-3.859375000000002665e+00,-5.390625000000003553e+00,-9.562500000000007105e+00,-1.054687500000000711e+01,-1.017187500000000711e+01,-5.000000000000002665e+00,-2.343749999999998335e-01,1.250000000000004718e-01,-4.062499999999998335e-01,-5.609375000000003553e+00,-9.359375000000007105e+00,-6.546875000000005329e+00,-4.000000000000003553e+00,1.249999999999997780e-01,5.437500000000003553e+00,4.625000000000003553e+00,5.062500000000003553e+00,8.250000000000005329e+00,7.687500000000005329e+00,1.031250000000000711e+01,1.046875000000000711e+01,4.187500000000003553e+00,9.375000000000022204e-02,-6.515625000000003553e+00,-1.175000000000000711e+01,-1.248437500000000888e+01,-1.335937500000001066e+01,-1.242187500000000888e+01,-9.171875000000007105e+00,-4.984375000000003553e+00,8.593750000000006661e-01,8.187500000000005329e+00,1.107812500000000711e+01,1.237500000000000711e+01,1.025000000000000711e+01,4.859375000000003553e+00,1.359375000000000666e+00,-5.203125000000002665e+00,-1.134375000000000711e+01,-1.570312500000001066e+01,-1.890625000000001066e+01,-1.504687500000000711e+01,-7.328125000000005329e+00,1.781249999999999556e+00,1.137500000000000711e+01,1.354687500000000711e+01,1.373437500000000711e+01,9.703125000000007105e+00,2.937500000000002665e+00,1.781250000000001776e+00,-2.625000000000001332e+00,-2.843750000000001332e+00,-1.312500000000000444e+00,-2.140625000000001332e+00,1.625000000000000888e+00,4.312500000000002665e+00,6.250000000000003553e+00,6.796875000000003553e+00,5.312500000000002665e+00,1.296875000000000222e+00,-1.343750000000001332e+00,-2.031250000000001332e+00,-3.562500000000002665e+00,-9.531250000000004441e-01,-5.312500000000000000e-01,-1.093750000000000000e-01,2.687500000000001776e+00,2.312500000000001776e+00,3.765625000000002220e+00,5.062500000000003553e+00,2.843750000000001776e+00,5.625000000000003331e-01,-2.343750000000001332e+00,-7.234375000000005329e+00,-7.750000000000005329e+00,-5.562500000000003553e+00,-3.500000000000002665e+00,2.406250000000001776e+00,4.578125000000003553e+00,4.421875000000002665e+00,5.281250000000002665e+00,3.734375000000002220e+00,5.625000000000003553e+00,9.953125000000005329e+00,1.278125000000000711e+01,1.478125000000001066e+01,1.175000000000000711e+01,4.500000000000003553e+00,-2.625000000000001776e+00,-9.109375000000007105e+00,-1.076562500000000711e+01,-9.281250000000007105e+00,-7.109375000000005329e+00,-4.328125000000002665e+00,-3.578125000000002665e+00,-3.781250000000002665e+00,-5.015625000000003553e+00,-6.000000000000004441e+00,-7.156250000000005329e+00,-6.062500000000003553e+00,-2.531250000000001776e+00,1.093750000000000888e+00,6.234375000000005329e+00,7.296875000000005329e+00,6.250000000000004441e+00,4.515625000000003553e+00,6.250000000000000000e-02,-1.656250000000001110e+00,-2.703125000000001776e+00,-4.015625000000002665e+00,-8.437500000000004441e-01,4.000000000000002665e+00,9.328125000000007105e+00,1.568750000000001066e+01,1.751562500000001066e+01,1.329687500000000711e+01,7.375000000000003553e+00,4.374999999999995559e-01,-6.593750000000005329e+00,-6.468750000000005329e+00,-5.421875000000003553e+00,-3.953125000000002665e+00,3.156250000000002665e+00,4.828125000000003553e+00,7.234375000000004441e+00,8.968750000000007105e+00,3.656250000000003109e+00,-1.562499999999955591e-02,-4.046875000000002665e+00,-5.953125000000003553e+00,-4.109375000000002665e+00,5.312500000000000000e-01,4.312500000000002665e+00,4.828125000000002665e+00,7.250000000000003553e+00,6.171875000000004441e+00,6.390625000000005329e+00,1.090625000000000711e+01,9.046875000000007105e+00,5.843750000000003553e+00,-4.218750000000026645e-01,-1.300000000000001066e+01,-2.046875000000001421e+01,-2.340625000000001776e+01,-2.214062500000001421e+01,-1.492187500000000711e+01,-8.250000000000003553e+00,-3.640625000000001776e+00,-7.968750000000004441e-01,-3.125000000000004163e-02,4.687500000000002776e-02,1.718750000000001110e-01,1.875000000000001110e-01,9.375000000000008327e-02,6.250000000000005551e-02,-6.250000000000004163e-02,-6.250000000000004163e-02,-6.938893903907228378e-18,-1.562500000000001735e-02,1.562500000000001041e-02,-6.250000000000002776e-02,-1.562500000000000833e-01,-1.406250000000000833e-01,-7.812500000000004163e-02,4.687500000000004163e-02,1.718750000000001110e-01,1.718750000000001110e-01,4.687500000000002776e-02,-9.375000000000006939e-02,-2.343750000000001665e-01,-2.812500000000002220e-01,-1.796875000000001332e+00,-4.828125000000003553e+00,-1.064062500000000711e+01,-1.918750000000001066e+01,-2.479687500000001421e+01,-2.773437500000002132e+01,-2.429687500000001776e+01,-1.543750000000001066e+01,-7.703125000000005329e+00,-1.781250000000001776e+00,3.281250000000001665e-01,1.968750000000000888e+00,3.468750000000001776e+00,9.234375000000003553e+00,1.487500000000000711e+01,1.492187500000000888e+01,1.471875000000001066e+01,7.062500000000006217e+00,-9.062499999999993339e-01,-4.375000000000002665e+00,-6.375000000000004441e+00,-2.531250000000002665e+00,3.203125000000001332e+00,8.125000000000005329e+00,9.546875000000007105e+00,7.906250000000005329e+00,4.234375000000003553e+00,9.375000000000004441e-01,5.625000000000007772e-01,2.312500000000001776e+00,4.781250000000003553e+00,3.984375000000002665e+00,2.859375000000001776e+00,-3.906250000000004441e-01,-3.125000000000002220e+00,-1.406249999999995559e-01,2.125000000000001776e+00,6.906250000000005329e+00,1.107812500000000711e+01,9.015625000000005329e+00,7.312500000000005329e+00,1.609375000000000888e+00,-4.125000000000002665e+00,-4.203125000000002665e+00,-5.546875000000003553e+00,-1.703125000000000444e+00,2.859375000000002220e+00,2.265625000000001776e+00,4.906250000000003553e+00,2.578125000000001776e+00,-2.328125000000000888e+00,-2.640625000000001776e+00,-7.109375000000003553e+00,-7.281250000000003553e+00,-3.468750000000002220e+00,-3.843750000000002220e+00,-1.015625000000000666e+00,-2.593750000000000888e+00,-6.234375000000003553e+00,-5.250000000000003553e+00,-5.921875000000003553e+00,-1.734375000000001332e+00,2.593750000000001776e+00,3.234375000000001776e+00,6.453125000000003553e+00,6.593750000000003553e+00,5.515625000000003553e+00,6.062500000000003553e+00,2.578125000000001332e+00,7.812499999999994449e-02,1.640625000000000888e+00,2.593750000000001776e+00,5.093750000000003553e+00,6.640625000000004441e+00,2.046875000000001776e+00,-2.078125000000000888e+00,-3.796875000000001776e+00,-5.234375000000002665e+00,-7.656250000000000000e-01,2.703125000000001776e+00,3.359375000000001776e+00,6.140625000000003553e+00,4.296875000000003553e+00,3.328125000000001776e+00,3.125000000000001776e+00,-1.562500000000000888e+00,-2.703125000000001776e+00,-3.031250000000001776e+00,-2.375000000000001332e+00,3.515625000000002665e+00,6.875000000000005329e+00,8.812500000000005329e+00,7.921875000000005329e+00,2.421875000000001332e+00,-8.593750000000006661e-01,-3.781250000000002665e+00,-3.328125000000001776e+00,1.453125000000000666e+00,3.218750000000001776e+00,4.984375000000003553e+00,5.765625000000003553e+00,1.875000000000001554e+00,1.062500000000000666e+00,6.562500000000002220e-01,-1.468750000000000444e+00,1.046875000000000888e+00,3.015625000000002220e+00,5.265625000000003553e+00,9.671875000000005329e+00,1.085937500000000533e+01,9.671875000000005329e+00,6.312500000000003553e+00,1.546875000000000888e+00,-3.546875000000001332e+00,-7.281250000000003553e+00,-8.984375000000003553e+00,-9.562500000000005329e+00,-6.468750000000003553e+00,-1.343750000000001332e+00,4.156250000000002665e+00,8.515625000000005329e+00,8.609375000000005329e+00,5.671875000000003553e+00,7.187500000000006661e-01,-4.671875000000002665e+00,-6.937500000000003553e+00,-7.468750000000005329e+00,-5.109375000000003553e+00,1.250000000000000222e+00,5.843750000000003553e+00,9.234375000000003553e+00,9.015625000000003553e+00,1.640625000000000888e+00,-4.687500000000003553e+00,-8.609375000000005329e+00,-9.484375000000005329e+00,-3.218750000000001776e+00,1.875000000000001776e+00,2.750000000000001776e+00,1.281250000000000666e+00,-4.140625000000003553e+00,-1.015625000000000711e+01,-1.300000000000001066e+01,-1.353125000000001066e+01,-1.403125000000001066e+01,-1.126562500000000711e+01,-7.140625000000005329e+00,-4.421875000000003553e+00,7.812500000000002220e-01,4.031250000000002665e+00,3.890625000000002665e+00,3.843750000000002665e+00,1.859375000000001332e+00,-4.218750000000002776e-01,-1.421875000000000888e+00,-6.250000000000004441e-01,-2.031250000000001665e-01,-2.343750000000001665e-01,1.062500000000000666e+00,-1.531250000000000888e+00,-1.687500000000000888e+00,-1.125000000000000888e+00,-2.843750000000002220e+00,-1.203125000000000888e+00,-3.343750000000002665e+00,-4.015625000000003553e+00,-3.234375000000001776e+00,-2.281250000000001332e+00,1.390625000000001110e+00,2.031250000000001776e+00,2.640625000000001776e+00,-3.749999999999997780e-01,-2.234375000000001332e+00,-8.281250000000002220e-01,-6.718749999999998890e-01,4.109375000000002665e+00,5.375000000000003553e+00,2.781250000000001776e+00,2.062500000000000888e+00,-1.234375000000000888e+00,-3.468750000000002665e+00,-1.421875000000000888e+00,3.124999999999988898e-02,7.812500000000013878e-02,2.875000000000001776e+00,2.015625000000000888e+00,-1.031250000000000444e+00,-7.343750000000006661e-01,-3.281250000000002665e+00,-3.781250000000003109e+00,-1.562500000000044409e-02,2.406250000000001332e+00,4.812500000000003553e+00,6.000000000000004441e+00,2.171875000000001332e+00,-3.015625000000001776e+00,-7.562500000000005329e+00,-9.203125000000007105e+00,-5.531250000000003553e+00,-6.250000000000044409e-02,7.000000000000004441e+00,9.937500000000007105e+00,7.406250000000005329e+00,4.687500000000003553e+00,6.718750000000006661e-01,-1.656250000000000888e+00,1.046875000000000888e+00,2.359375000000001776e+00,9.062500000000006661e-01,1.296875000000000888e+00,-1.312500000000000666e+00,-3.703125000000002220e+00,-3.125000000000000000e-01,6.718750000000005551e-01,5.781250000000003331e-01,3.281250000000001776e+00,7.343750000000000000e-01,-2.234375000000001776e+00,-1.718750000000002220e-01,-1.765625000000000888e+00,-1.687500000000000888e+00,1.656250000000001110e+00,-1.671875000000001110e+00,-2.906250000000002220e+00,-2.046875000000001776e+00,-5.015625000000003553e+00,-1.750000000000001776e+00,1.062500000000000444e+00,1.984375000000000888e+00,5.859375000000003553e+00,4.968750000000003553e+00,3.453125000000002220e+00,1.109375000000000888e+00,-1.890625000000000888e+00,-1.046875000000000666e+00,7.500000000000008882e-01,4.453125000000003553e+00,5.468750000000003553e+00,3.125000000000002665e+00,-5.312500000000002220e-01,-5.625000000000003553e+00,-6.593750000000004441e+00,-6.421875000000004441e+00,-3.484375000000002665e+00,9.531250000000007772e-01,3.109375000000001776e+00,6.843750000000003553e+00,7.390625000000003553e+00,5.578125000000003553e+00,3.921875000000002665e+00,1.265625000000000666e+00,-3.125000000000001388e-02,-1.562500000000001388e-02,-5.468750000000004441e-01,-2.750000000000001776e+00,-4.765625000000003553e+00,-4.109375000000002665e+00,-2.218750000000001332e+00,1.453125000000000888e+00,4.406250000000002665e+00,1.828125000000001332e+00,-9.531250000000004441e-01,-4.156250000000002665e+00,-5.671875000000003553e+00,-3.015625000000002220e+00,-8.593750000000008882e-01
7.687500000000003553e+00,0.000000000000000000e+00,-5.187500000000002665e+00,1.687500000000001110e+00,7.312500000000003553e+00,6.375000000000002665e+00,3.375000000000000888e+00,1.062500000000000222e+00,-6.875000000000002220e-01,-3.750000000000001110e-01,-3.437500000000001776e+00,-9.687500000000003553e+00,-4.000000000000000888e+00,3.062500000000001332e+00,-2.000000000000001332e+00,-1.625000000000000888e+00,5.125000000000002665e+00,7.625000000000002665e+00,6.250000000000001776e+00,8.750000000000006661e-01,4.625000000000001776e+00,1.206250000000000355e+01,4.187500000000001776e+00,-1.562500000000000444e+00,-6.312500000000003553e+00,-1.975000000000000711e+01,-1.237500000000000533e+01,3.375000000000000888e+00,-4.187500000000002665e+00,-1.275000000000000533e+01,-3.500000000000000888e+00,8.500000000000003553e+00,4.312500000000001776e+00,-7.437500000000002665e+00,-6.000000000000001776e+00,-1.875000000000000555e-01,3.062500000000001332e+00,7.062500000000003553e+00,2.250000000000000888e+00,-2.437500000000001332e+00,-9.375000000000003331e-01,-3.437500000000001776e+00,2.687500000000000888e+00,1.237500000000000711e+01,8.125000000000008882e-01,-1.125000000000000355e+01,8.750000000000017764e-01,8.000000000000003553e+00,-3.812500000000001776e+00,-3.062500000000001776e+00,3.812500000000001776e+00,-7.187500000000002665e+00,-1.331250000000000711e+01,6.250000000000000000e-02,1.212500000000000711e+01,8.562500000000003553e+00,-3.312500000000001332e+00,-5.937500000000001776e+00,2.812500000000001332e+00,3.875000000000001776e+00,-1.875000000000000555e-01,4.687500000000001776e+00,1.687500000000000888e+00,-8.000000000000003553e+00,-2.500000000000000888e+00,5.125000000000001776e+00,-1.500000000000000888e+00,-5.312500000000002665e+00,5.750000000000002665e+00,6.312500000000003553e+00,-7.125000000000003553e+00,-4.375000000000002665e+00,3.187500000000001776e+00,-3.187500000000000888e+00,-4.187500000000001776e+00,4.375000000000001776e+00,6.750000000000002665e+00,1.062500000000000222e+00,-6.125000000000002665e+00,-5.875000000000001776e+00,3.625000000000001776e+00,6.937500000000001776e+00,-2.937500000000001332e+00,-6.437500000000001776e+00,5.750000000000003553e+00,7.000000000000003553e+00,-8.375000000000003553e+00,-8.875000000000003553e+00,3.500000000000000888e+00,8.437500000000003553e+00,1.143750000000000533e+01,5.625000000000002665e+00,-9.750000000000003553e+00,-4.625000000000001776e+00,1.131250000000000533e+01,3.750000000000001776e+00,-9.187500000000003553e+00,-5.125000000000001776e+00,-2.937500000000001776e+00,-6.062500000000003553e+00,6.875000000000000000e-01,1.225000000000000533e+01,1.287500000000000533e+01,-1.687500000000000888e+00,-7.812500000000003553e+00,3.937500000000000888e+00,3.375000000000000888e+00,-6.187500000000002665e+00,1.500000000000000000e+00,9.375000000000003553e+00,-2.562500000000000888e+00,-1.625000000000000711e+01,-1.062500000000000355e+01,-3.750000000000003331e-01,1.062500000000000222e+00,6.500000000000003553e+00,5.812500000000003553e+00,-7.375000000000003553e+00,-9.937500000000003553e+00,-4.750000000000001776e+00,-3.937500000000002665e+00,-5.000000000000000000e-01,6.125000000000003553e+00,1.062500000000000533e+01,4.875000000000001776e+00,-9.187500000000003553e+00,-1.331250000000000533e+01,-2.062500000000000000e+00,1.018750000000000533e+01,6.937500000000003553e+00,-6.250000000000001388e-02,2.750000000000001332e+00,-2.187500000000001332e+00,-1.012500000000000533e+01,-6.250000000000000000e-02,1.443750000000000711e+01,7.687500000000002665e+00,-1.037500000000000355e+01,-7.750000000000003553e+00,1.937500000000001332e+00,-7.750000000000002665e+00,-1.112500000000000533e+01,8.187500000000001776e+00,1.981250000000000711e+01,5.437500000000001776e+00,-6.187500000000003553e+00,2.937499999999994227e+00,5.124999999999988454e+00,6.250000000000710543e-02,2.312500000000029310e+00,-3.187499999999994671e+00,-6.062500000000017764e+00,4.062499999999994671e+00,3.437500000000001776e+00,-4.687500000000002665e+00,-1.125000000000000888e+00,7.062500000000002665e+00,6.312500000000002665e+00,-3.437500000000000888e+00,-5.750000000000001776e+00,-1.500000000000000888e+00,-2.875000000000001332e+00,8.125000000000008882e-01,4.750000000000002665e+00,3.187500000000001776e+00,6.937500000000002665e+00,2.937500000000000444e+00,-9.500000000000005329e+00,-5.250000000000002665e+00,4.375000000000001776e+00,-3.125000000000000444e+00,-4.125000000000000888e+00,8.937500000000003553e+00,3.062500000000001776e+00,-1.056250000000000533e+01,-3.750000000000008882e-01,1.175000000000000533e+01,7.937500000000003553e+00,6.249999999999997780e-01,-7.687500000000003553e+00,-7.812500000000003553e+00,1.250000000000000222e+00,5.937500000000002665e+00,1.312500000000000888e+00,-1.043750000000000355e+01,-8.812500000000003553e+00,7.875000000000003553e+00,1.462500000000000711e+01,5.250000000000002665e+00,-8.062500000000003553e+00,-7.937500000000003553e+00,6.250000000000006661e-01,3.187500000000001776e+00,1.875000000000000000e-01,-7.250000000000004441e+00,-2.750000000000001776e+00,1.050000000000000533e+01,3.937500000000001776e+00,-3.937500000000001776e+00,2.062500000000000888e+00,-4.062500000000002665e+00,-8.500000000000003553e+00,4.625000000000002665e+00,2.687500000000001776e+00,-7.125000000000003553e+00,5.000000000000001776e+00,1.000000000000000355e+01,-7.187500000000002665e+00,-1.181250000000000533e+01,1.937500000000000000e+00,1.087500000000000355e+01,2.312500000000000888e+00,-1.006250000000000533e+01,-6.875000000000017764e-01,8.375000000000003553e+00,-6.562500000000002665e+00,-7.375000000000002665e+00,1.318750000000000711e+01,9.875000000000003553e+00,-1.068750000000000355e+01,-6.250000000000001776e+00,9.000000000000005329e+00,1.062500000000000888e+00,-8.500000000000003553e+00,3.187500000000001776e+00,1.368750000000000711e+01,7.125000000000003553e+00,-6.562500000000003553e+00,-1.143750000000000533e+01,-2.562500000000000444e+00,7.937500000000003553e+00,6.437500000000002665e+00,-3.375000000000002665e+00,-7.187500000000004441e+00,-4.562500000000002665e+00,2.000000000000000888e+00,6.125000000000003553e+00,-3.812500000000002220e+00,-1.337500000000000711e+01,-3.625000000000001776e+00,8.312500000000003553e+00,-3.750000000000000000e-01,-7.437500000000002665e+00,6.812500000000002665e+00,1.375000000000000533e+01,4.312500000000001776e+00,1.687500000000001332e+00,3.500000000000001776e+00,-2.687500000000001776e+00,-1.150000000000000533e+01,-9.812500000000003553e+00,5.750000000000002665e+00,1.337500000000000533e+01,4.437500000000001776e+00,-5.000000000000001776e+00,-1.150000000000000533e+01,-1.106250000000000533e+01,-2.312500000000001332e+00,2.937500000000000888e+00,-2.500000000000004441e-01,-1.625000000000000888e+00,5.937500000000002665e+00,6.125000000000002665e+00,-1.312500000000000666e+00,-3.062500000000001332e+00,-3.375000000000001332e+00,4.625000000000001776e+00,1.568750000000000711e+01,5.625000000000001776e+00,-1.300000000000000533e+01,-9.125000000000003553e+00,3.312500000000001332e+00,-2.562500000000000444e+00,-7.250000000000002665e+00,1.187500000000000444e+00,4.375000000000001776e+00,-3.750000000000004441e-01,-3.687500000000001776e+00,-4.250000000000001776e+00,-5.812500000000001776e+00,-1.812500000000000444e+00,6.625000000000002665e+00,3.937500000000000888e+00,-2.750000000000001776e+00,5.000000000000002665e+00,1.112500000000000533e+01,-3.000000000000001776e+00,-8.437500000000003553e+00,6.375000000000003553e+00,4.187500000000001776e+00,-1.081250000000000533e+01,-1.875000000000000888e+00,1.268750000000000711e+01,2.625000000000001776e+00,-6.750000000000003553e+00,8.750000000000004441e-01,9.375000000000008882e-01,-5.000000000000001776e+00,-4.687500000000001776e+00,-2.562500000000000888e+00,6.375000000000003553e+00,8.500000000000003553e+00,-6.500000000000002665e+00,-1.043750000000000355e+01,-6.250000000000000000e-02,5.250000000000001776e+00,3.250000000000001332e+00,-5.500000000000001776e+00,-1.125000000000000355e+01,-6.187500000000003553e+00,3.375000000000001776e+00,1.206250000000000711e+01,9.312500000000003553e+00,-6.687500000000003553e+00,-9.500000000000003553e+00,7.437500000000003553e+00,8.812500000000003553e+00,-4.812500000000001776e+00,1.062500000000000888e+00,1.231250000000000711e+01,2.437500000000001776e+00,-1.150000000000000533e+01,-5.312500000000002665e+00,1.150000000000000355e+01,1.225000000000000355e+01,8.125000000000004441e-01,-5.125000000000001776e+00,-5.000000000000001776e+00,-3.687500000000001776e+00,-5.062500000000002665e+00,4.375000000000000000e-01,9.250000000000003553e+00,-1.562500000000000888e+00,-1.312500000000000711e+01,2.312500000000000000e+00,1.768750000000000711e+01,4.187500000000001776e+00,-1.306250000000000533e+01,-5.250000000000002665e+00,5.562500000000001776e+00,4.125000000000001776e+00,4.375000000000001776e+00,-1.187500000000000444e+00,-7.062500000000002665e+00,-1.250000000000000000e-01,-3.500000000000002665e+00,-2.025000000000000711e+01,-2.306250000000001066e+01,-8.500000000000005329e+00,4.875000000000002665e+00,1.412500000000000711e+01,2.481250000000001066e+01,2.400000000000001066e+01,1.418750000000000355e+01,8.625000000000001776e+00,6.250000000000004441e-01,-7.937500000000001776e+00,-1.450000000000000355e+01,-1.525000000000000711e+01,-3.562500000000001776e+00,5.000000000000000000e-01,-7.562500000000003553e+00,-1.006250000000000533e+01,-4.500000000000002665e+00,3.250000000000002220e+00,3.875000000000002220e+00,1.006250000000000355e+01,2.825000000000001066e+01,2.325000000000000711e+01,-1.562500000000002665e+00,3.750000000000000000e-01,1.962500000000000711e+01,7.125000000000001776e+00,-2.612500000000001066e+01,-3.187500000000001066e+01,-2.106250000000000711e+01,-3.081250000000001066e+01,-4.293750000000001421e+01,-3.887500000000001421e+01,-3.318750000000001421e+01,-5.250000000000001776e+00,3.687500000000001421e+01,4.056250000000001421e+01,3.675000000000001421e+01,5.875000000000002132e+01,5.175000000000002132e+01,6.000000000000005329e+00,-1.893750000000000711e+01,-1.550000000000000711e+01,-1.437500000000000711e+01,-1.093750000000000533e+01,-5.062500000000001776e+00,-9.250000000000003553e+00,-5.625000000000003553e+00,1.062500000000000533e+01,1.181250000000000711e+01,-6.187500000000001776e+00,-1.137500000000000533e+01,6.312500000000001776e+00,1.168750000000000533e+01,-1.812500000000001332e+00,-6.750000000000003553e+00,-6.562500000000003553e+00,-7.000000000000002665e+00,1.812500000000000888e+00,5.187500000000001776e+00,-6.375000000000003553e+00,-1.037500000000000533e+01,-5.875000000000003553e+00,-4.375000000000002665e+00,5.250000000000001776e+00,1.462500000000000711e+01,4.187500000000001776e+00,-7.562500000000003553e+00,2.687500000000001776e+00,1.393750000000000711e+01,2.500000000000001776e+00,-1.162500000000000533e+01,-4.437500000000001776e+00,9.812500000000005329e+00,6.500000000000003553e+00,-1.437500000000000444e+00,-9.375000000000002220e-01,-7.750000000000003553e+00,-7.625000000000003553e+00,7.125000000000003553e+00,3.062500000000001776e+00,-6.125000000000001776e+00,3.750000000000001332e+00,3.500000000000000444e+00,-6.312500000000003553e+00,-4.500000000000001776e+00,5.625000000000003331e-01,6.062500000000003553e+00,7.750000000000003553e+00,3.250000000000000888e+00,-3.250000000000001776e+00,-1.031250000000000533e+01,-5.000000000000002665e+00,3.750000000000002220e+00,2.937500000000001776e+00,4.500000000000001776e+00,6.250000000000000000e-01,-9.375000000000005329e+00,-3.937500000000002665e+00,1.018750000000000355e+01,9.125000000000003553e+00,-4.125000000000000888e+00,-8.625000000000003553e+00,-4.937500000000002665e+00,5.000000000000002220e-01,4.062500000000001776e+00,3.125000000000000000e-01,8.750000000000000000e-01,5.125000000000001776e+00,2.125000000000000888e+00,-3.500000000000001776e+00,-5.000000000000001776e+00,-2.125000000000000888e+00,1.625000000000000888e+00,7.625000000000002665e+00,5.437500000000001776e+00,-9.000000000000003553e+00,-8.125000000000003553e+00,8.312500000000003553e+00,9.750000000000003553e+00,-1.500000000000000888e+00,-9.062500000000003553e+00,-8.312500000000003553e+00,5.062500000000001776e+00,9.437500000000003553e+00,-5.687500000000002665e+00,-7.625000000000003553e+00,2.187500000000001332e+00,1.062500000000000888e+00,-6.875000000000001110e-01,2.750000000000001332e+00,4.625000000000001776e+00,4.000000000000001776e+00,-3.750000000000002220e-01,-4.500000000000001776e+00,-2.062500000000000444e+00,8.750000000000005551e-01,-1.750000000000000666e+00,-6.812500000000002665e+00,-4.187500000000001776e+00,7.375000000000003553e+00,5.312500000000002665e+00,-4.437500000000001776e+00,3.062500000000001776e+00,7.312500000000003553e+00,-3.750000000000001776e+00,-1.050000000000000355e+01,-4.250000000000000888e+00,9.125000000000003553e+00,6.625000000000002665e+00,-8.375000000000003553e+00,-5.500000000000002665e+00,3.625000000000002220e+00,1.250000000000000888e+00,1.812500000000000444e+00,8.000000000000003553e+00,6.062500000000001776e+00,-4.000000000000001776e+00,-6.187500000000002665e+00,-3.125000000000001776e+00,-4.937500000000001776e+00,1.750000000000000444e+00,7.562500000000002665e+00,-4.687500000000002665e+00,-7.187500000000003553e+00,8.062500000000003553e+00,6.187500000000002665e+00,-5.937500000000002665e+00,7.500000000000008882e-01,1.006250000000000355e+01,7.625000000000001776e+00,-8.125000000000013323e-01,-8.500000000000003553e+00,-5.312500000000001776e+00,-4.250000000000001776e+00,-1.056250000000000355e+01,-7.875000000000003553e+00,-1.625000000000000444e+00,5.250000000000001776e+00,9.375000000000003553e+00,-1.312500000000000000e+00,-3.937500000000001332e+00,9.250000000000003553e+00,6.375000000000002665e+00,-5.500000000000002665e+00,-3.500000000000001332e+00,5.000000000000003331e-01,2.375000000000000888e+00,2.500000000000000888e+00,-2.687500000000000888e+00,1.875000000000000888e+00,7.250000000000002665e+00,2.499999999999995559e-01,-8.750000000000008882e-01,-4.375000000000004441e-01,-1.812500000000000888e+00,5.000000000000001776e+00,3.687500000000001332e+00,-2.500000000000002220e-01,6.375000000000002665e+00,3.062500000000001776e+00,-3.437500000000001776e+00,8.000000000000001776e+00,9.875000000000005329e+00,-7.437500000000000888e+00,-7.375000000000001776e+00,1.000000000000000222e+00,-4.250000000000002665e+00,-3.125000000000002665e+00,2.937500000000000888e+00,-6.249999999999955591e-02,-3.125000000000002220e-01,1.125000000000000222e+00,-6.062500000000001776e+00,-6.000000000000001776e+00,1.187500000000000444e+00,-2.937500000000001332e+00,-1.687500000000000444e+00,9.437500000000003553e+00,2.250000000000000888e+00,-1.606250000000000711e+01,-1.300000000000000355e+01,3.812500000000000888e+00,5.812500000000001776e+00,4.125000000000001776e+00,6.750000000000003553e+00,-4.562500000000001776e+00,-1.306250000000000711e+01,-5.187500000000002665e+00,-1.250000000000000000e-01,5.375000000000001776e+00,8.625000000000003553e+00,-2.437500000000000444e+00,-4.250000000000001776e+00,3.312500000000001332e+00,5.625000000000000000e-01,3.562500000000001776e+00,9.125000000000003553e+00,3.250000000000001332e+00,-7.500000000000005551e-01,-3.937500000000001776e+00,-7.875000000000003553e+00,-4.562500000000001776e+00,-6.875000000000003331e-01,-7.500000000000001110e-01,-3.125000000000000888e+00,-7.062500000000003553e+00,-4.562500000000002665e+00,5.250000000000002665e+00,1.093750000000000355e+01,9.000000000000003553e+00,2.500000000000000000e-01,-5.750000000000003553e+00,-9.375000000000004441e-01,4.562500000000001776e+00,4.062500000000001776e+00,-5.562500000000003553e+00,-1.712500000000000711e+01,-1.193750000000000533e+01,2.250000000000000444e+00,5.812500000000003553e+00,2.812500000000001776e+00,5.875000000000001776e+00,1.037500000000000355e+01,2.062500000000000000e+00,-4.750000000000002665e+00,-6.250000000000000000e-01,-1.812500000000000666e+00,-3.750000000000004441e-01,3.187500000000001776e+00,-1.750000000000000222e+00,-3.750000000000001776e+00,-1.687500000000001332e+00,2.625000000000001332e+00,1.081250000000000533e+01,7.562500000000003553e+00,-8.500000000000003553e+00,-9.187500000000003553e+00,4.812500000000001776e+00,5.875000000000001776e+00,-4.625000000000001776e+00,-6.625000000000002665e+00,4.687500000000002665e+00,6.187500000000003553e+00,-5.562500000000002665e+00,-1.437500000000000888e+00,7.375000000000003553e+00,0.000000000000000000e+00,-1.000000000000000888e+00,5.562500000000002665e+00,-2.437500000000000000e+00,-1.131250000000000355e+01,-5.937500000000003553e+00,3.937500000000001332e+00,6.062500000000002665e+00,-1.125000000000000222e+00,-1.250000000000000000e-01,6.562500000000003553e+00,-6.250000000000000000e-02,-5.625000000000002665e+00,3.750000000000000000e-01,4.812500000000001776e+00,8.250000000000003553e+00,1.187500000000000533e+01,4.937500000000003553e+00,-9.312500000000003553e+00,-1.156250000000000533e+01,-6.250000000000008882e-01,1.250000000000000000e+00,-4.437500000000001776e+00,-6.250000000000000000e-02,3.812500000000001332e+00,-3.062500000000001332e+00,-5.250000000000001776e+00,1.875000000000001332e+00,2.187500000000001332e+00,-5.250000000000001776e+00,-8.125000000000003553e+00,-1.937500000000000888e+00,7.937500000000003553e+00,1.056250000000000355e+01,3.375000000000001776e+00,-7.125000000000003553e+00,-5.875000000000003553e+00,7.312500000000003553e+00,4.625000000000002665e+00,-8.750000000000003553e+00,-4.437500000000002665e+00,2.437500000000000888e+00,-6.875000000000003331e-01,4.562500000000001776e+00,1.337500000000000711e+01,1.081250000000000533e+01,1.062500000000000444e+00,-8.875000000000005329e+00,-7.250000000000003553e+00,3.125000000000001776e+00,-6.875000000000000000e-01,-5.312500000000001776e+00,2.250000000000000888e+00,1.312500000000000222e+00,1.375000000000000222e+00,7.187500000000003553e+00,3.625000000000001776e+00,8.125000000000011102e-01,-2.125000000000000000e+00,-1.043750000000000533e+01,-6.375000000000002665e+00,6.750000000000002665e+00,6.187500000000001776e+00,1.375000000000001110e+00,1.937500000000001332e+00,-2.937500000000001776e+00,-4.440892098500626162e-16,6.250000000000002665e+00,-1.000000000000000888e+00,5.062500000000003553e+00,1.562500000000000711e+01,-3.750000000000002665e+00,-2.225000000000000711e+01,-1.406250000000000355e+01,-2.437500000000000888e+00,2.500000000000001110e-01,-1.250000000000000833e-01,-3.125000000000001665e-01,-6.250000000000002776e-02,6.250000000000002776e-02,0.000000000000000000e+00,1.250000000000000555e-01,1.250000000000000555e-01,0.000000000000000000e+00,6.250000000000002776e-02,0.000000000000000000e+00,-1.875000000000000833e-01,-1.875000000000000833e-01,1.250000000000000833e-01,3.750000000000002220e-01,0.000000000000000000e+00,-3.750000000000002220e-01,-1.250000000000000833e-01,6.250000000000002776e-02,-6.250000000000002776e-02,6.250000000000002776e-02,3.125000000000001665e-01,1.875000000000001110e-01,-1.875000000000001110e-01,-3.125000000000001665e-01,-6.250000000000002776e-02,0.000000000000000000e+00,-1.875000000000000833e-01,1.250000000000000555e-01,4.375000000000002220e-01,-6.625000000000003553e+00,-1.950000000000001066e+01,-1.650000000000000711e+01,-5.624999999999982236e-01,6.062500000000003553e+00,6.750000000000001776e+00,3.937500000000001776e+00,-7.812500000000004441e+00,-1.031250000000000533e+01,5.375000000000003553e+00,1.118750000000000533e+01,6.812500000000001776e+00,9.187500000000003553e+00,1.937500000000001332e+00,-7.062500000000003553e+00,-2.625000000000001776e+00,-2.437500000000001776e+00,-5.500000000000003553e+00,5.625000000000000000e-01,5.687500000000002665e+00,5.937500000000002665e+00,8.687500000000003553e+00,2.500000000000000444e+00,-1.175000000000000533e+01,-7.250000000000003553e+00,9.250000000000003553e+00,6.625000000000003553e+00,-3.187500000000000888e+00,3.312500000000000888e+00,4.812500000000001776e+00,-7.375000000000002665e+00,-9.437500000000003553e+00,1.812500000000000888e+00,1.081250000000000355e+01,4.625000000000001776e+00,-3.250000000000001776e+00,5.312500000000002665e+00,8.687500000000003553e+00,-4.562500000000002665e+00,-1.300000000000000711e+01,-4.687500000000001776e+00,8.500000000000003553e+00,3.750000000000002220e+00,-4.312500000000001776e+00,3.875000000000001776e+00,2.750000000000001776e+00,-3.250000000000001332e+00,2.937500000000001332e+00,-9.375000000000000000e-01,-9.187500000000003553e+00,-5.312500000000001776e+00,1.875000000000001332e+00,7.562500000000003553e+00,4.000000000000001776e+00,-5.250000000000001776e+00,-8.812500000000003553e+00,-6.250000000000003553e+00,2.562500000000002220e+00,6.625000000000003553e+00,3.750000000000001332e+00,7.499999999999998890e-01,-6.062500000000003553e+00,-2.125000000000000888e+00,1.325000000000000711e+01,9.562500000000005329e+00,-7.812500000000003553e+00,-1.306250000000000711e+01,-3.500000000000001776e+00,1.293750000000000711e+01,1.425000000000000711e+01,-2.937500000000001776e+00,-7.625000000000004441e+00,-2.812500000000001776e+00,-6.625000000000002665e+00,-1.625000000000000000e+00,1.043750000000000533e+01,7.000000000000003553e+00,-6.687500000000003553e+00,-7.125000000000003553e+00,9.062500000000003553e+00,9.250000000000003553e+00,-6.687500000000002665e+00,-3.437500000000001332e+00,2.000000000000000888e+00,-7.750000000000003553e+00,-3.687500000000001776e+00,1.093750000000000533e+01,8.312500000000003553e+00,-2.250000000000001332e+00,1.625000000000000444e+00,5.312500000000001776e+00,-8.375000000000003553e+00,-1.206250000000000355e+01,3.875000000000002665e+00,1.100000000000000533e+01,4.812500000000002665e+00,-3.937500000000001332e+00,-4.812500000000002665e+00,5.562500000000001776e+00,3.187500000000001776e+00,-7.500000000000002665e+00,5.000000000000000000e-01,5.625000000000001776e+00,-4.062500000000001776e+00,-1.687500000000000444e+00,9.500000000000005329e+00,9.500000000000005329e+00,2.250000000000001332e+00,-4.187500000000001776e+00,-6.812500000000003553e+00,-4.375000000000004441e-01,5.062500000000001776e+00,-3.250000000000002220e+00,-1.206250000000000533e+01,-6.250000000000002665e+00,6.937500000000002665e+00,1.218750000000000533e+01,5.312500000000002665e+00,-3.187500000000001332e+00,-3.062500000000001332e+00,1.937500000000000444e+00,-8.750000000000004441e-01,-8.437500000000003553e+00,-3.437500000000000888e+00,4.000000000000001776e+00,-1.812500000000000888e+00,1.875000000000004441e-01,1.400000000000000533e+01,1.206250000000000355e+01,-7.125000000000003553e+00,-2.000000000000000711e+01,-8.750000000000001776e+00,9.437500000000005329e+00,4.812500000000001776e+00,-6.250000000000000000e-01,9.812500000000005329e+00,9.375000000000000000e-01,-1.850000000000000711e+01,-6.750000000000001776e+00,9.750000000000003553e+00,-2.125000000000001776e+00,-1.268750000000000711e+01,-6.125000000000003553e+00,2.312500000000000888e+00,7.187500000000003553e+00,1.312500000000000000e+00,-5.312500000000002665e+00,4.187500000000002665e+00,7.875000000000003553e+00,-5.062500000000003553e+00,-6.687500000000003553e+00,2.937500000000001776e+00,1.000000000000000888e+00,-1.125000000000000444e+00,4.250000000000001776e+00,4.375000000000004441e-01,-4.937500000000001776e+00,-2.625000000000000888e+00,1.187500000000000444e+00,3.312500000000001776e+00,1.250000000000002220e-01,-2.625000000000001332e+00,-3.500000000000001776e+00,-4.125000000000001776e+00,6.250000000000000000e-02,5.562500000000002665e+00,6.125000000000002665e+00,5.625000000000000000e-01,-5.437500000000002665e+00,-8.375000000000003553e+00,-1.187500000000000000e+00,1.050000000000000355e+01,3.875000000000000888e+00,-2.875000000000001776e+00,4.562500000000001776e+00,-2.125000000000000888e+00,-9.812500000000003553e+00,3.250000000000001776e+00,5.812500000000003553e+00,-4.187500000000001776e+00,-3.750000000000004441e-01,2.937500000000001332e+00,1.437500000000000888e+00,2.812500000000001776e+00,-5.437500000000002665e+00,-7.312500000000003553e+00,4.687500000000001776e+00,1.875000000000000000e+00,-4.625000000000001776e+00,7.062500000000003553e+00,1.062500000000000355e+01,-3.437500000000001776e+00,-8.812500000000003553e+00,-4.812500000000002665e+00,-6.000000000000003553e+00,-2.312500000000001776e+00,8.750000000000003553e+00,8.000000000000003553e+00,3.500000000000001776e+00,4.312500000000001776e+00,-5.687500000000002665e+00,-1.143750000000000533e+01,2.375000000000000888e+00,8.937500000000003553e+00,4.562500000000001776e+00,1.000000000000000666e+00,-9.062500000000003553e+00,-6.750000000000002665e+00,8.687500000000003553e+00,1.875000000000001776e+00,-6.250000000000001776e+00,5.250000000000003553e+00,3.312500000000002220e+00,-3.562500000000001332e+00,8.750000000000007772e-01,-4.875000000000002665e+00,-4.125000000000002665e+00,9.062500000000003553e+00,3.562500000000001776e+00,-5.062500000000002665e+00,-3.062500000000001332e+00,-4.437500000000001776e+00,-1.875000000000000000e-01,5.125000000000001776e+00,8.125000000000004441e-01,-2.750000000000000888e+00,-4.375000000000002220e-01,7.312500000000003553e+00,8.625000000000003553e+00,-5.375000000000002665e+00,-1.506250000000000711e+01,-2.687500000000001776e+00,1.387500000000000533e+01,8.937500000000003553e+00,-3.375000000000001776e+00,-2.437500000000001332e+00,-3.125000000000001110e-01,-5.875000000000003553e+00,-6.437500000000003553e+00,2.937500000000000888e+00,4.750000000000001776e+00,-2.062500000000000444e+00,-1.437500000000000444e+00,2.625000000000001332e+00,7.125000000000002665e+00,8.437500000000003553e+00,-5.062500000000001776e+00,-1.462500000000000711e+01,8.125000000000000000e-01,1.512500000000000711e+01,5.125000000000001776e+00,-9.250000000000005329e+00,-1.231250000000000533e+01,-5.875000000000001776e+00,9.312500000000003553e+00,1.406250000000000711e+01,-1.124999999999999112e+00,-8.000000000000003553e+00,-1.437500000000000888e+00,-2.000000000000000888e+00,-5.125000000000001776e+00,1.812500000000000888e+00
1.925000000000000355e+01,-7.500000000000001776e+00,-6.750000000000000888e+00,9.250000000000001776e+00,-6.500000000000001776e+00,1.175000000000000178e+01,-9.000000000000001776e+00,7.750000000000001776e+00,-4.000000000000000888e+00,-2.000000000000000444e+00,7.250000000000001776e+00,-1.025000000000000178e+01,-4.250000000000000888e+00,1.275000000000000355e+01,-7.750000000000001776e+00,-6.000000000000001776e+00,1.575000000000000355e+01,-1.525000000000000355e+01,1.875000000000000711e+01,-1.000000000000000355e+01,-2.250000000000000444e+00,1.275000000000000355e+01,2.250000000000000000e+00,-1.825000000000000355e+01,2.750000000000000711e+01,-2.850000000000000711e+01,-5.500000000000000888e+00,2.225000000000000711e+01,-1.900000000000000711e+01,6.500000000000001776e+00,-1.225000000000000178e+01,1.275000000000000178e+01,1.500000000000000222e+00,-6.000000000000001776e+00,-6.500000000000000888e+00,1.350000000000000355e+01,-1.650000000000000355e+01,1.625000000000000355e+01,-1.250000000000000444e+00,-1.175000000000000178e+01,1.500000000000000355e+01,-1.050000000000000178e+01,-3.500000000000000888e+00,1.500000000000000355e+01,-1.250000000000000888e+00,-1.100000000000000355e+01,-1.750000000000000000e+00,1.800000000000000355e+01,-1.275000000000000178e+01,-7.000000000000001776e+00,1.900000000000000355e+01,-1.325000000000000355e+01,-5.000000000000000888e+00,1.750000000000000000e+00,3.750000000000000888e+00,8.000000000000001776e+00,-8.000000000000001776e+00,1.500000000000000444e+00,-7.000000000000001776e+00,1.925000000000000355e+01,-2.175000000000000355e+01,1.350000000000000178e+01,5.750000000000001776e+00,-1.750000000000000355e+01,1.000000000000000178e+01,-3.500000000000000888e+00,8.250000000000001776e+00,-1.400000000000000355e+01,4.500000000000000888e+00,1.525000000000000355e+01,-1.725000000000000355e+01,-1.250000000000000000e+00,1.450000000000000355e+01,-1.425000000000000355e+01,5.000000000000001776e+00,-4.000000000000001776e+00,1.175000000000000355e+01,-1.125000000000000178e+01,1.250000000000000355e+01,-2.125000000000000711e+01,1.875000000000000355e+01,-9.750000000000001776e+00,1.350000000000000355e+01,-2.150000000000000711e+01,1.350000000000000355e+01,5.000000000000000888e+00,-5.500000000000000888e+00,-1.250000000000000355e+01,1.600000000000000355e+01,-7.500000000000001776e+00,3.500000000000000888e+00,1.325000000000000355e+01,-1.425000000000000355e+01,-6.500000000000001776e+00,1.600000000000000355e+01,2.500000000000000000e-01,-1.150000000000000355e+01,2.000000000000000444e+00,7.250000000000001776e+00,-1.575000000000000355e+01,1.125000000000000178e+01,-5.750000000000000888e+00,1.400000000000000355e+01,-1.750000000000000000e+00,-1.375000000000000355e+01,8.500000000000001776e+00,1.025000000000000355e+01,-1.950000000000000711e+01,9.750000000000001776e+00,3.750000000000001332e+00,2.500000000000000000e-01,-5.500000000000001776e+00,-1.450000000000000355e+01,2.125000000000000711e+01,-1.875000000000000355e+01,9.500000000000001776e+00,8.250000000000001776e+00,-1.025000000000000355e+01,-4.500000000000000888e+00,7.500000000000001776e+00,-1.000000000000000178e+01,4.250000000000000000e+00,1.750000000000000888e+00,-2.000000000000000888e+00,1.500000000000000355e+01,-1.675000000000000355e+01,2.750000000000000888e+00,-5.250000000000000888e+00,3.250000000000000000e+00,1.600000000000000355e+01,-2.450000000000000711e+01,2.200000000000000711e+01,-8.500000000000001776e+00,-5.000000000000001776e+00,-1.250000000000000000e+00,6.500000000000001776e+00,9.750000000000001776e+00,-1.025000000000000178e+01,-1.150000000000000355e+01,2.050000000000000711e+01,-1.275000000000000355e+01,-8.000000000000001776e+00,7.000000000000001776e+00,6.000000000000001776e+00,1.150000000000000178e+01,-2.275000000000000711e+01,1.275000000000000355e+01,8.750000000000001776e+00,-2.025000000000001776e+01,2.075000000000003197e+01,-9.000000000000015987e+00,-7.000000000000001776e+00,6.500000000000001776e+00,7.000000000000001776e+00,-1.375000000000000355e+01,7.750000000000001776e+00,-1.750000000000000444e+00,4.000000000000000888e+00,5.500000000000000888e+00,-2.150000000000000711e+01,2.500000000000000711e+01,-2.000000000000000711e+01,4.500000000000000888e+00,1.200000000000000355e+01,-1.675000000000000355e+01,1.600000000000000355e+01,-3.250000000000000888e+00,-2.500000000000000000e-01,-1.500000000000000355e+01,2.050000000000000355e+01,-8.750000000000001776e+00,-1.025000000000000178e+01,1.400000000000000355e+01,3.500000000000000888e+00,-1.250000000000000355e+01,-4.500000000000000888e+00,2.275000000000000711e+01,-1.900000000000000355e+01,1.700000000000000355e+01,-8.750000000000003553e+00,-1.125000000000000355e+01,1.775000000000000355e+01,-1.675000000000000355e+01,1.925000000000000711e+01,-1.250000000000000355e+01,-1.100000000000000178e+01,1.700000000000000355e+01,-6.500000000000001776e+00,1.200000000000000178e+01,-7.500000000000000888e+00,-1.200000000000000355e+01,1.925000000000000355e+01,-1.875000000000000355e+01,1.750000000000000355e+01,-9.750000000000001776e+00,-9.500000000000001776e+00,1.625000000000000355e+01,2.500000000000000000e+00,-1.775000000000000355e+01,1.625000000000000355e+01,-5.000000000000000000e-01,-1.875000000000000355e+01,1.450000000000000355e+01,6.250000000000000888e+00,-1.800000000000000355e+01,6.000000000000001776e+00,1.600000000000000355e+01,-1.425000000000000355e+01,-5.000000000000000888e+00,6.750000000000000888e+00,-3.250000000000000888e+00,1.450000000000000355e+01,-1.700000000000000355e+01,-3.500000000000000888e+00,2.100000000000000711e+01,-1.225000000000000355e+01,-1.250000000000000355e+01,1.675000000000000355e+01,6.500000000000000888e+00,-1.150000000000000178e+01,-8.000000000000001776e+00,1.550000000000000355e+01,5.000000000000000000e-01,-1.550000000000000355e+01,9.250000000000001776e+00,4.500000000000001776e+00,7.500000000000000000e-01,3.250000000000000000e+00,-1.625000000000000355e+01,1.175000000000000355e+01,-9.000000000000001776e+00,1.700000000000000355e+01,-1.300000000000000355e+01,0.000000000000000000e+00,5.500000000000001776e+00,-1.575000000000000355e+01,2.475000000000000711e+01,-1.850000000000000355e+01,7.500000000000001776e+00,-1.750000000000000355e+01,2.075000000000000711e+01,-4.000000000000000888e+00,-1.275000000000000355e+01,8.000000000000001776e+00,1.000000000000000178e+01,-5.750000000000001776e+00,-1.250000000000000000e+00,8.750000000000001776e+00,-7.750000000000001776e+00,3.250000000000000444e+00,-1.100000000000000178e+01,7.500000000000000000e-01,1.850000000000000355e+01,-1.475000000000000355e+01,9.500000000000001776e+00,-6.500000000000001776e+00,-1.050000000000000178e+01,1.175000000000000355e+01,-1.175000000000000355e+01,1.575000000000000355e+01,-1.725000000000000355e+01,8.750000000000001776e+00,1.075000000000000178e+01,-1.850000000000000355e+01,1.625000000000000355e+01,-1.100000000000000355e+01,-2.500000000000000888e+00,1.600000000000000355e+01,-2.750000000000000000e+00,-1.250000000000000000e+00,-1.750000000000000355e+01,2.050000000000000355e+01,-5.750000000000000888e+00,-1.550000000000000355e+01,2.175000000000000711e+01,-2.050000000000000355e+01,2.400000000000000711e+01,-2.700000000000000711e+01,2.275000000000000711e+01,-1.925000000000000355e+01,7.500000000000000888e+00,-1.750000000000000000e+00,9.000000000000001776e+00,-9.750000000000001776e+00,2.500000000000000000e-01,1.225000000000000355e+01,-5.000000000000000000e-01,-1.825000000000000355e+01,1.475000000000000355e+01,6.500000000000000888e+00,-1.550000000000000355e+01,-1.000000000000000000e+00,1.300000000000000355e+01,2.000000000000000000e+00,-1.575000000000000355e+01,1.050000000000000178e+01,4.500000000000001776e+00,-1.650000000000000355e+01,1.650000000000000355e+01,-1.550000000000000355e+01,5.750000000000001776e+00,1.025000000000000178e+01,-4.500000000000000888e+00,-1.700000000000000355e+01,2.225000000000000711e+01,-2.100000000000000711e+01,2.275000000000000711e+01,-1.600000000000000355e+01,2.250000000000000000e+00,-5.000000000000000888e+00,2.750000000000000888e+00,1.250000000000000000e+00,9.750000000000001776e+00,-4.250000000000000888e+00,-1.200000000000000178e+01,6.500000000000000888e+00,1.525000000000000355e+01,-1.800000000000000355e+01,1.750000000000000888e+00,1.425000000000000355e+01,-6.500000000000001776e+00,7.500000000000004441e-01,-1.300000000000000355e+01,1.325000000000000355e+01,7.250000000000000888e+00,-1.125000000000000178e+01,1.050000000000000178e+01,-1.350000000000000355e+01,8.250000000000001776e+00,-2.750000000000000444e+00,-9.750000000000001776e+00,1.575000000000000355e+01,0.000000000000000000e+00,-1.575000000000000355e+01,3.500000000000000888e+00,1.225000000000000355e+01,2.250000000000000000e+00,-1.000000000000000178e+01,-9.250000000000001776e+00,2.350000000000000711e+01,-2.175000000000000711e+01,1.525000000000000355e+01,1.250000000000000000e+00,-1.550000000000000355e+01,1.050000000000000355e+01,2.500000000000000888e+00,-1.275000000000000355e+01,-4.500000000000000000e+00,-7.000000000000001776e+00,1.125000000000000178e+01,-6.250000000000001776e+00,9.500000000000003553e+00,1.800000000000000355e+01,-1.600000000000000355e+01,2.025000000000000355e+01,-9.750000000000001776e+00,-2.000000000000000000e+00,4.000000000000000000e+00,-1.700000000000000355e+01,3.750000000000000444e+00,1.200000000000000178e+01,-2.075000000000000355e+01,1.500000000000000355e+01,-1.750000000000000355e+01,1.075000000000000355e+01,4.750000000000000888e+00,-1.550000000000000355e+01,2.350000000000000711e+01,9.500000000000001776e+00,-8.750000000000001776e+00,-7.500000000000000888e+00,1.475000000000000355e+01,1.300000000000000355e+01,-2.325000000000000711e+01,-8.000000000000001776e+00,2.500000000000000555e-01,-5.000000000000001110e-01,-2.850000000000000711e+01,7.500000000000000000e-01,-2.000000000000000000e+00,-3.750000000000000711e+01,5.475000000000001421e+01,-7.750000000000000000e+00,2.000000000000000000e+00,1.925000000000000355e+01,3.425000000000000711e+01,-1.775000000000000355e+01,-6.500000000000001776e+00,2.500000000000000000e-01,-1.000000000000000000e+00,-1.575000000000000355e+01,1.700000000000000355e+01,-1.350000000000000178e+01,-4.250000000000001776e+00,8.750000000000001776e+00,5.000000000000001776e+00,5.000000000000000000e-01,-1.550000000000000355e+01,5.500000000000001776e+00,1.850000000000000355e+01,-2.025000000000000355e+01,1.025000000000000355e+01,-6.250000000000001776e+00,-1.000000000000000222e+00,-5.500000000000001776e+00,1.475000000000000355e+01,-8.500000000000001776e+00,-1.075000000000000178e+01,1.500000000000000355e+01,-1.775000000000000355e+01,9.000000000000003553e+00,3.750000000000000888e+00,8.000000000000001776e+00,-1.425000000000000355e+01,1.750000000000000888e+00,1.250000000000000355e+01,-7.500000000000000000e-01,-9.000000000000001776e+00,-1.250000000000000444e+00,3.000000000000000888e+00,1.450000000000000355e+01,-2.275000000000000711e+01,1.925000000000000355e+01,-7.250000000000001776e+00,-1.375000000000000178e+01,1.325000000000000178e+01,8.750000000000001776e+00,-2.375000000000000711e+01,1.550000000000000355e+01,7.750000000000001776e+00,-2.275000000000000711e+01,2.025000000000000711e+01,-1.625000000000000355e+01,8.750000000000001776e+00,6.500000000000001776e+00,-9.500000000000001776e+00,1.125000000000000178e+01,-9.750000000000001776e+00,-1.000000000000000178e+01,2.175000000000000355e+01,-1.925000000000000355e+01,1.125000000000000178e+01,5.250000000000001776e+00,-1.525000000000000355e+01,6.250000000000001776e+00,-3.250000000000000888e+00,1.550000000000000355e+01,-1.150000000000000178e+01,-3.750000000000000888e+00,8.750000000000001776e+00,-1.650000000000000355e+01,2.025000000000000355e+01,-1.125000000000000178e+01,-3.000000000000000444e+00,1.625000000000000355e+01,-1.875000000000000355e+01,2.125000000000000711e+01,-2.600000000000000711e+01,2.125000000000000711e+01,-1.525000000000000355e+01,7.750000000000001776e+00,8.000000000000001776e+00,-8.250000000000001776e+00,-9.000000000000001776e+00,9.750000000000001776e+00,7.500000000000001776e+00,-1.100000000000000178e+01,8.000000000000001776e+00,-1.175000000000000355e+01,-7.500000000000000000e-01,1.925000000000000711e+01,-1.325000000000000355e+01,-1.000000000000000178e+01,2.050000000000000355e+01,-1.875000000000000355e+01,1.400000000000000355e+01,-1.125000000000000355e+01,1.275000000000000355e+01,-9.750000000000003553e+00,1.200000000000000355e+01,-1.325000000000000355e+01,5.750000000000000888e+00,2.500000000000002220e-01,-2.750000000000000888e+00,3.250000000000000888e+00,-1.025000000000000178e+01,5.000000000000000888e+00,1.450000000000000355e+01,-2.075000000000000355e+01,7.500000000000001776e+00,1.375000000000000178e+01,-1.925000000000000355e+01,1.450000000000000355e+01,-2.000000000000000711e+01,1.425000000000000355e+01,7.250000000000001776e+00,-1.250000000000000355e+01,-4.000000000000000888e+00,1.425000000000000355e+01,-1.225000000000000355e+01,6.500000000000001776e+00,-5.000000000000001110e-01,5.000000000000000888e+00,1.250000000000000888e+00,-1.525000000000000355e+01,1.800000000000000355e+01,-1.525000000000000355e+01,2.500000000000000000e-01,1.400000000000000355e+01,-7.500000000000001776e+00,-9.500000000000001776e+00,8.000000000000001776e+00,1.225000000000000178e+01,-1.925000000000000355e+01,5.750000000000001776e+00,1.175000000000000178e+01,-1.375000000000000355e+01,2.100000000000000355e+01,-2.375000000000000711e+01,9.000000000000001776e+00,2.250000000000000444e+00,-1.025000000000000355e+01,-1.750000000000000000e+00,8.250000000000001776e+00,-1.525000000000000355e+01,2.225000000000000711e+01,-7.750000000000001776e+00,-1.225000000000000355e+01,1.650000000000000355e+01,5.000000000000000000e-01,-7.250000000000001776e+00,-2.250000000000000444e+00,1.200000000000000355e+01,-2.000000000000000711e+01,2.625000000000000711e+01,-2.125000000000000711e+01,5.500000000000001776e+00,9.750000000000001776e+00,-5.750000000000001776e+00,-7.250000000000001776e+00,2.000000000000000355e+01,-2.675000000000000711e+01,2.000000000000000711e+01,5.000000000000000000e-01,-1.500000000000000355e+01,1.850000000000000355e+01,-7.000000000000000888e+00,2.000000000000000888e+00,-1.275000000000000355e+01,3.475000000000000711e+01,-3.150000000000000711e+01,6.000000000000001776e+00,9.000000000000003553e+00,-1.025000000000000355e+01,-1.500000000000000444e+00,8.500000000000001776e+00,-5.500000000000000888e+00,-1.000000000000000444e+00,4.250000000000001776e+00,1.250000000000000000e+00,-1.650000000000000355e+01,1.825000000000000355e+01,-7.250000000000001776e+00,-1.100000000000000178e+01,1.925000000000000355e+01,-7.000000000000000888e+00,1.500000000000000000e+00,-2.100000000000000355e+01,1.950000000000000355e+01,-3.000000000000000888e+00,-7.250000000000001776e+00,1.325000000000000355e+01,-5.000000000000000000e-01,-1.850000000000000711e+01,1.300000000000000355e+01,-4.500000000000000888e+00,-6.250000000000000888e+00,1.800000000000000355e+01,-8.000000000000001776e+00,-1.200000000000000355e+01,2.050000000000000711e+01,-1.300000000000000355e+01,-1.750000000000000888e+00,1.725000000000000355e+01,-1.275000000000000178e+01,4.000000000000000888e+00,6.250000000000001776e+00,-1.825000000000000355e+01,1.650000000000000355e+01,-1.700000000000000355e+01,1.750000000000000355e+01,-1.850000000000000355e+01,1.750000000000000355e+01,-2.450000000000000711e+01,2.125000000000000355e+01,-7.750000000000001776e+00,5.000000000000000888e+00,9.750000000000001776e+00,-2.325000000000000711e+01,2.325000000000000711e+01,-2.050000000000000355e+01,2.200000000000000355e+01,-1.650000000000000355e+01,9.000000000000001776e+00,-2.675000000000000355e+01,2.850000000000000355e+01,-2.075000000000000355e+01,1.900000000000000355e+01,-1.550000000000000355e+01,1.375000000000000178e+01,6.250000000000001776e+00,-2.300000000000000711e+01,2.325000000000000711e+01,-1.275000000000000355e+01,-5.250000000000000888e+00,2.025000000000000355e+01,-2.325000000000000711e+01,1.800000000000000355e+01,-1.525000000000000355e+01,1.075000000000000178e+01,-7.000000000000001776e+00,1.700000000000000355e+01,-1.050000000000000178e+01,-1.250000000000000355e+01,1.800000000000000711e+01,-8.750000000000001776e+00,6.750000000000001776e+00,-1.050000000000000355e+01,0.000000000000000000e+00,1.825000000000000355e+01,-1.900000000000000355e+01,1.750000000000000888e+00,1.175000000000000355e+01,-5.500000000000001776e+00,-7.000000000000001776e+00,1.225000000000000355e+01,-7.500000000000008882e-01,-1.475000000000000355e+01,1.175000000000000178e+01,-1.300000000000000178e+01,1.750000000000000355e+01,-8.500000000000001776e+00,-6.500000000000001776e+00,1.550000000000000355e+01,-7.000000000000001776e+00,-4.250000000000000888e+00,3.250000000000000888e+00,2.500000000000000888e+00,-4.000000000000000888e+00,1.150000000000000178e+01,-2.250000000000000000e+00,1.000000000000000000e+00,-1.275000000000000355e+01,5.250000000000000888e+00,7.500000000000001776e+00,-1.400000000000000355e+01,7.750000000000001776e+00,0.000000000000000000e+00,1.750000000000000444e+00,-8.750000000000001776e+00,4.500000000000000888e+00,6.500000000000000888e+00,-1.225000000000000355e+01,9.500000000000003553e+00,-1.600000000000000355e+01,1.700000000000000355e+01,-5.500000000000001776e+00,6.250000000000001776e+00,-1.750000000000000000e+00,-1.200000000000000355e+01,1.050000000000000178e+01,7.250000000000001776e+00,-1.300000000000000355e+01,-3.000000000000000888e+00,1.550000000000000355e+01,-1.700000000000000355e+01,9.750000000000001776e+00,1.250000000000000222e+00,7.250000000000001776e+00,-5.000000000000000888e+00,5.000000000000000888e+00,-1.600000000000000355e+01,1.125000000000000355e+01,7.000000000000000888e+00,-2.400000000000000711e+01,2.225000000000000711e+01,-5.500000000000000888e+00,-1.350000000000000355e+01,2.725000000000000711e+01,-2.275000000000000355e+01,1.575000000000000355e+01,-7.500000000000000888e+00,2.500000000000000888e+00,-1.375000000000000355e+01,1.250000000000000355e+01,4.500000000000000888e+00,-1.350000000000000355e+01,1.550000000000000355e+01,-6.000000000000000888e+00,-1.175000000000000355e+01,2.275000000000000711e+01,-1.200000000000000355e+01,-1.050000000000000355e+01,3.075000000000000711e+01,-1.450000000000000533e+01,-1.000000000000000178e+01,-5.000000000000001110e-01,2.500000000000000555e-01,2.500000000000000555e-01,-2.500000000000000555e-01,0.000000000000000000e+00,-2.500000000000000555e-01,5.000000000000001110e-01,-5.000000000000001110e-01,2.500000000000000555e-01,2.500000000000000555e-01,-5.000000000000001110e-01,5.000000000000001110e-01,-2.500000000000000555e-01,0.000000000000000000e+00,0.000000000000000000e+00,-2.500000000000000555e-01,5.000000000000001110e-01,0.000000000000000000e+00,-5.000000000000001110e-01,2.500000000000000555e-01,0.000000000000000000e+00,0.000000000000000000e+00,-2.500000000000000555e-01,5.000000000000001110e-01,-2.500000000000000555e-01,2.500000000000000555e-01,-5.000000000000001110e-01,2.500000000000000555e-01,0.000000000000000000e+00,0.000000000000000000e+00,-5.000000000000001110e-01,1.000000000000000222e+00,-5.000000000000001110e-01,-2.500000000000000555e-01,-2.600000000000000711e+01,2.850000000000000711e+01,-2.250000000000000355e+01,2.100000000000000355e+01,-1.275000000000000355e+01,1.350000000000000355e+01,-2.325000000000000355e+01,1.075000000000000178e+01,1.400000000000000355e+01,-1.950000000000000355e+01,1.900000000000000355e+01,1.500000000000000444e+00,-1.925000000000000355e+01,1.925000000000000355e+01,-1.475000000000000355e+01,8.500000000000001776e+00,-1.300000000000000355e+01,1.875000000000000355e+01,-1.400000000000000355e+01,9.750000000000001776e+00,6.750000000000001776e+00,-1.350000000000000355e+01,-1.500000000000000000e+00,3.250000000000000888e+00,1.425000000000000355e+01,-2.000000000000000355e+01,9.500000000000001776e+00,9.000000000000001776e+00,-1.400000000000000355e+01,3.250000000000000888e+00,-4.000000000000000888e+00,5.750000000000001776e+00,9.250000000000001776e+00,-1.550000000000000355e+01,6.000000000000001776e+00,1.325000000000000178e+01,-1.500000000000000355e+01,6.750000000000001776e+00,-1.425000000000000178e+01,1.125000000000000178e+01,9.750000000000001776e+00,-2.225000000000000711e+01,1.475000000000000355e+01,7.000000000000001776e+00,-2.175000000000000711e+01,1.925000000000000711e+01,-2.250000000000000888e+00,-1.475000000000000355e+01,1.350000000000000355e+01,-1.250000000000000355e+01,9.000000000000001776e+00,7.250000000000001776e+00,-1.625000000000000355e+01,1.400000000000000355e+01,-1.750000000000000355e+01,8.500000000000003553e+00,6.250000000000001776e+00,-9.750000000000001776e+00,1.150000000000000355e+01,-6.000000000000001776e+00,-9.250000000000001776e+00,1.250000000000000178e+01,9.500000000000001776e+00,-1.700000000000000355e+01,8.500000000000001776e+00,-1.375000000000000355e+01,1.025000000000000355e+01,1.050000000000000178e+01,-5.250000000000000888e+00,-1.225000000000000355e+01,1.650000000000000355e+01,-1.250000000000000355e+01,-6.000000000000000888e+00,1.875000000000000355e+01,-1.200000000000000355e+01,1.375000000000000355e+01,-2.400000000000000711e+01,1.600000000000000355e+01,8.500000000000001776e+00,-1.150000000000000178e+01,-8.000000000000001776e+00,2.425000000000000711e+01,-2.525000000000000711e+01,7.000000000000000888e+00,3.500000000000000888e+00,6.000000000000001776e+00,-4.000000000000001776e+00,-7.750000000000001776e+00,1.850000000000000355e+01,-1.100000000000000355e+01,-1.075000000000000178e+01,9.250000000000001776e+00,4.750000000000000888e+00,-5.000000000000000888e+00,9.250000000000001776e+00,-1.600000000000000355e+01,8.000000000000001776e+00,1.275000000000000355e+01,-2.200000000000000711e+01,8.250000000000001776e+00,1.000000000000000178e+01,-1.225000000000000178e+01,5.000000000000002220e-01,7.000000000000000888e+00,1.250000000000000888e+00,1.250000000000000000e+00,-3.000000000000000888e+00,1.500000000000000888e+00,-1.100000000000000355e+01,1.850000000000000355e+01,-1.275000000000000355e+01,2.750000000000000444e+00,-1.050000000000000355e+01,9.750000000000003553e+00,7.500000000000000000e-01,5.500000000000000888e+00,-6.250000000000000888e+00,5.000000000000000000e-01,0.000000000000000000e+00,4.250000000000000888e+00,-5.000000000000000888e+00,-9.500000000000003553e+00,1.725000000000000355e+01,-1.000000000000000178e+01,-4.500000000000000888e+00,1.125000000000000355e+01,5.500000000000001776e+00,-5.500000000000001776e+00,-3.250000000000000888e+00,-1.575000000000000355e+01,1.900000000000000355e+01,2.000000000000000000e+00,-1.800000000000000355e+01,1.900000000000000355e+01,2.500000000000001776e+00,-1.475000000000000355e+01,-1.025000000000000178e+01,2.650000000000000711e+01,-1.500000000000000355e+01,-4.250000000000000888e+00,2.750000000000000444e+00,-2.750000000000000444e+00,2.000000000000000444e+00,1.100000000000000178e+01,-1.900000000000000355e+01,1.000000000000000178e+01,6.750000000000001776e+00,-5.250000000000001776e+00,-9.000000000000001776e+00,1.025000000000000178e+01,5.000000000000000000e-01,-1.050000000000000178e+01,1.100000000000000355e+01,2.250000000000000000e+00,-1.650000000000000355e+01,2.075000000000000355e+01,-2.375000000000000711e+01,2.375000000000000711e+01,-1.425000000000000355e+01,2.000000000000000444e+00,6.750000000000001776e+00,-1.625000000000000355e+01,1.675000000000000355e+01,-1.500000000000000355e+01,1.800000000000000355e+01,-1.050000000000000178e+01,1.750000000000000222e+00,1.250000000000000222e+00,-1.325000000000000355e+01,1.550000000000000355e+01,6.000000000000001776e+00,-2.325000000000000711e+01,2.375000000000000711e+01,-6.500000000000001776e+00,-1.125000000000000178e+01,3.750000000000000888e+00,1.550000000000000355e+01,-2.000000000000000355e+01,6.500000000000000888e+00,1.150000000000000355e+01,-2.200000000000000711e+01,2.475000000000000711e+01,-1.375000000000000178e+01,-5.750000000000001776e+00,6.750000000000001776e+00,8.500000000000001776e+00,-1.900000000000000711e+01,1.125000000000000355e+01,9.750000000000001776e+00,-1.075000000000000178e+01,1.000000000000000222e+00,-3.500000000000000888e+00,6.000000000000001776e+00,-1.550000000000000355e+01,1.500000000000000355e+01,3.250000000000000888e+00,-1.200000000000000355e+01,1.600000000000000355e+01,-6.000000000000001776e+00,-1.000000000000000178e+01,1.250000000000000000e+00,1.725000000000000355e+01,-2.100000000000000355e+01,2.125000000000000355e+01,-1.100000000000000178e+01,-1.275000000000000355e+01,1.675000000000000355e+01,5.250000000000000888e+00,-2.475000000000000711e+01,2.075000000000000355e+01,2.750000000000000888e+00,-2.075000000000000711e+01,2.150000000000000711e+01,-7.500000000000001776e+00,-1.525000000000000355e+01,2.125000000000000711e+01,-1.500000000000000000e+00,-1.675000000000000355e+01,2.050000000000000355e+01,-1.700000000000000355e+01,1.250000000000000000e+00,1.400000000000000355e+01,-1.675000000000000355e+01,1.550000000000000355e+01,-1.550000000000000355e+01,1.100000000000000178e+01,2.000000000000000444e+00,1.750000000000000888e+00,-1.300000000000000355e+01,1.000000000000000000e+00,4.750000000000001776e+00,1.450000000000000355e+01,-2.200000000000000711e+01,1.675000000000000355e+01,-1.125000000000000355e+01,8.250000000000001776e+00,-1.175000000000000355e+01,2.250000000000000888e+00,1.400000000000000355e+01,-1.900000000000000355e+01,1.375000000000000355e+01,-7.500000000000001776e+00,3.750000000000000888e+00,4.500000000000000888e+00,4.250000000000000888e+00,-1.775000000000000355e+01,3.500000000000000888e+00,1.250000000000000355e+01,-1.000000000000000000e+00,-6.750000000000001776e+00,0.000000000000000000e+00,-5.000000000000000888e+00,-1.250000000000000888e+00,1.825000000000000355e+01,-8.250000000000000000e+00,-1.025000000000000355e+01,1.425000000000000355e+01,-1.275000000000000355e+01,9.000000000000001776e+00,-1.425000000000000355e+01
