-2.852221250000001760e+02,-3.269877500000002328e+02,-3.586752500000002328e+02,-3.803627500000003465e+02,-3.914252500000003465e+02,-3.942533750000003465e+02,-3.884565000000003465e+02,-3.719721250000003465e+02,-3.405502500000002328e+02,-2.992065000000001760e+02,-2.475190000000001760e+02,-1.858940000000001191e+02,-1.151440000000000623e+02,-3.240962500000001967e+01,5.623100000000004428e+01,1.449810000000001082e+02,2.295747500000001367e+02,3.057153750000002219e+02,3.693091250000002788e+02,4.202935000000003356e+02,4.589341250000003356e+02,4.837778750000003356e+02,4.990903750000003356e+02,5.077622500000003356e+02,5.113091250000003356e+02,5.119497500000003356e+02,5.122935000000003356e+02,5.124810000000003356e+02,5.126060000000003356e+02,5.126997500000003356e+02,5.127622500000003356e+02,5.128091250000003356e+02,5.127466250000003356e+02,5.126997500000003356e+02,5.126372500000003356e+02,5.125903750000003356e+02,5.125591250000003356e+02,5.125278750000003356e+02,5.124966250000003356e+02,5.124497500000003356e+02,5.124966250000003356e+02,5.125278750000003356e+02,5.125435000000003356e+02,5.125591250000003356e+02,5.125591250000003356e+02,5.125747500000003356e+02,5.125903750000003356e+02,5.126372500000003356e+02,5.126216250000003356e+02,5.125903750000003356e+02,5.125747500000003356e+02,5.125591250000003356e+02,5.125747500000003356e+02,5.125591250000003356e+02,5.125278750000003356e+02,5.124653750000003356e+02,5.124028750000003356e+02,5.123560000000003356e+02,5.123091250000003356e+02,5.122622500000003356e+02,5.122153750000003356e+02,5.121841250000003356e+02,5.121685000000003356e+02,5.121685000000003356e+02,5.121841250000003356e+02,5.121997500000003356e+02,5.121997500000003356e+02,5.121841250000003356e+02,5.121216250000003356e+02,5.120435000000003356e+02,5.119497500000003356e+02,5.118403750000003356e+02,5.117153750000003356e+02,5.114966250000003356e+02,5.099810000000003356e+02,5.071060000000003356e+02,5.029497500000003356e+02,4.968403750000003356e+02,4.881216250000003356e+02,4.757310000000003356e+02,4.601372500000003356e+02,4.405435000000003356e+02,4.192310000000003356e+02,3.955122500000003356e+02,3.691528750000002788e+02,3.403247500000002219e+02,3.106841250000001651e+02,2.816685000000001651e+02,2.515591250000001651e+02,2.214341250000001651e+02,1.904966250000001367e+02,1.600435000000001082e+02,1.290435000000000798e+02,9.913725000000005139e+01,6.801225000000003718e+01,3.593412500000001586e+01,4.793499999999998984e+00,-2.562837500000001967e+01,-5.598775000000003388e+01,-8.690962500000006230e+01,-1.166752500000000907e+02,-1.464096250000000907e+02,-1.735971250000001191e+02,-2.000346250000001760e+02,-2.262221250000001760e+02,-2.508627500000001760e+02,-2.737533750000001760e+02,-2.948940000000001760e+02,-3.149252500000001760e+02,-3.337533750000001760e+02,-3.523940000000001760e+02,-3.692221250000002328e+02,-3.845502500000003465e+02,-4.002065000000003465e+02,-4.152221250000003465e+02,-4.293783750000003465e+02,-4.416283750000003465e+02,-4.523002500000003465e+02,-4.619721250000003465e+02,-4.703627500000003465e+02,-4.771440000000003465e+02,-4.817533750000003465e+02,-4.852533750000003465e+02,-4.875033750000003465e+02,-4.894252500000003465e+02,-4.908002500000003465e+02,-4.912533750000003465e+02,-4.915502500000003465e+02,-4.918471250000003465e+02,-4.921283750000003465e+02,-4.921283750000003465e+02,-4.921127500000003465e+02,-4.921127500000003465e+02,-4.915815000000003465e+02,-4.906440000000003465e+02,-4.889252500000003465e+02,-4.871752500000003465e+02,-4.851908750000003465e+02,-4.823315000000003465e+02,-4.788940000000003465e+02,-4.738002500000003465e+02,-4.678471250000003465e+02,-4.617377500000003465e+02,-4.552533750000003465e+02,-4.462221250000003465e+02,-4.357065000000003465e+02,-4.254096250000003465e+02,-4.148315000000003465e+02,-4.054565000000003465e+02,-3.970033750000003465e+02,-3.883783750000003465e+02,-3.812533750000002328e+02,-3.768315000000001760e+02,-3.739408750000001760e+02,-3.716596250000001760e+02,-3.690971250000001760e+02,-3.665971250000001760e+02,-3.639877500000001760e+02,-3.611596250000001760e+02,-3.575346250000001760e+02,-3.535815000000001760e+02,-3.482533750000001760e+02,-3.406752500000001760e+02,-3.323783750000001760e+02,-3.224096250000001760e+02,-3.115190000000001760e+02,-2.993783750000001760e+02,-2.857065000000001760e+02,-2.697377500000001760e+02,-2.531596250000001760e+02,-2.363471250000001760e+02,-2.187690000000001760e+02,-1.998158750000001760e+02,-1.781127500000001191e+02,-1.539252500000000907e+02,-1.257533750000000907e+02,-9.442525000000006230e+01,-5.933150000000004809e+01,-2.106587500000001967e+01,1.891850000000000165e+01,5.946537500000002296e+01,1.004028750000000514e+02,1.404653750000000798e+02,1.781060000000001082e+02,2.139497500000001651e+02,2.474810000000001651e+02,2.786372500000001651e+02,3.094966250000001651e+02,3.400747500000002219e+02,3.681528750000002219e+02,3.946841250000003356e+02,4.198872500000003356e+02,4.423247500000003356e+02,4.612153750000003356e+02,4.769966250000003356e+02,4.887622500000003356e+02,4.968403750000003356e+02,5.027153750000003356e+02,5.062153750000003356e+02,5.074185000000003356e+02,5.071060000000003356e+02,5.060435000000003356e+02,5.042466250000003356e+02,5.010747500000003356e+02,4.970747500000003356e+02,4.904966250000003356e+02,4.820122500000003356e+02,4.715903750000003356e+02,4.586216250000003356e+02,4.428872500000003356e+02,4.244810000000003356e+02,4.047935000000003356e+02,3.821841250000003356e+02,3.602935000000002219e+02,3.382153750000001651e+02,3.159653750000001651e+02,2.958091250000001651e+02,2.777622500000001651e+02,2.616528750000001651e+02,2.469185000000001651e+02,2.349497500000001651e+02,2.247310000000001651e+02,2.164028750000001651e+02,2.097153750000001651e+02,2.039341250000001651e+02,1.999966250000001651e+02,1.974185000000001651e+02,1.969810000000001651e+02,1.985591250000001651e+02,2.007310000000001651e+02,2.032466250000001651e+02,2.068091250000001651e+02,2.088247500000001651e+02,2.104028750000001651e+02,2.127622500000001651e+02,2.128560000000001651e+02,2.118716250000001651e+02,2.101216250000001651e+02,2.073403750000001651e+02,2.047310000000001651e+02,2.047935000000001651e+02,2.047935000000001651e+02,2.031372500000001651e+02,2.036997500000001651e+02,2.040903750000001651e+02,2.046372500000001651e+02,2.075591250000001651e+02,2.092778750000001651e+02,2.097310000000001651e+02,2.111060000000001651e+02,2.133247500000001651e+02,2.152153750000001651e+02,2.178872500000001651e+02,2.223091250000001651e+02,2.256841250000001651e+02,2.285278750000001651e+02,2.327310000000001651e+02,2.357153750000001651e+02,2.381841250000001651e+02,2.402466250000001651e+02,2.411841250000001651e+02,2.403872500000001651e+02,2.405122500000001651e+02,2.414497500000001651e+02,2.404810000000001651e+02,2.391997500000001651e+02,2.393247500000001651e+02,2.386216250000001651e+02,2.379028750000001651e+02,2.351685000000001651e+02,2.284497500000001651e+02,2.228247500000001651e+02,2.169497500000001651e+02,2.109341250000001651e+02,2.016216250000001651e+02,1.917778750000001367e+02,1.820747500000001082e+02,1.739028750000000798e+02,1.676060000000000798e+02,1.594028750000000798e+02,1.508091250000000798e+02,1.417153750000000798e+02,1.353403750000000798e+02,1.291685000000000798e+02,1.220435000000000798e+02,1.150591250000000798e+02,1.084810000000000798e+02,1.013716250000000798e+02,9.473100000000007981e+01,8.830912500000005139e+01,8.049662500000003718e+01,7.305912500000003718e+01,6.560600000000003718e+01,5.732475000000003718e+01,4.857475000000003007e+01,4.074662500000002296e+01,3.218412500000001586e+01,2.393412500000000875e+01,1.421537500000000342e+01,4.012249999999997208e+00,-6.206500000000009010e+00,-1.734712500000001612e+01,-2.969087500000001967e+01,-4.311275000000003388e+01,-5.676900000000004809e+01,-7.305025000000006230e+01,-8.955025000000006230e+01,-1.075815000000000907e+02,-1.261908750000000907e+02,-1.448158750000000907e+02,-1.636596250000001191e+02,-1.834252500000001760e+02,-2.039877500000001760e+02,-2.223002500000001760e+02,-2.385971250000001760e+02,-2.543783750000001760e+02,-2.701127500000001760e+02,-2.847533750000001760e+02,-2.996752500000001760e+02,-3.133940000000001760e+02,-3.260971250000001760e+02,-3.396283750000001760e+02,-3.539877500000001760e+02,-3.677221250000002328e+02,-3.808315000000003465e+02,-3.934408750000003465e+02,-4.039877500000003465e+02,-4.140033750000003465e+02,-4.220190000000003465e+02,-4.289721250000003465e+02,-4.348315000000003465e+02,-4.394096250000003465e+02,-4.425815000000003465e+02,-4.454096250000003465e+02,-4.477065000000003465e+02,-4.495190000000003465e+02,-4.525815000000003465e+02,-4.543315000000003465e+02,-4.563002500000003465e+02,-4.581596250000003465e+02,-4.602221250000003465e+02,-4.628158750000003465e+02,-4.653940000000003465e+02,-4.667065000000003465e+02,-4.673783750000003465e+02,-4.690658750000003465e+02,-4.700190000000003465e+02,-4.708002500000003465e+02,-4.717846250000003465e+02,-4.712846250000003465e+02,-4.709408750000003465e+02,-4.722690000000003465e+02,-4.734877500000003465e+02,-4.742690000000003465e+02,-4.754565000000003465e+02,-4.767065000000003465e+02,-4.778627500000003465e+02,-4.803315000000003465e+02,-4.827377500000003465e+02,-4.838940000000003465e+02,-4.849252500000003465e+02,-4.860033750000003465e+02,-4.866752500000003465e+02,-4.864565000000003465e+02,-4.858471250000003465e+02,-4.834565000000003465e+02,-4.804721250000003465e+02,-4.772065000000003465e+02,-4.726752500000003465e+02,-4.672377500000003465e+02,-4.613627500000003465e+02,-4.561440000000003465e+02,-4.504565000000003465e+02,-4.467846250000003465e+02,-4.431596250000003465e+02,-4.410033750000003465e+02,-4.414877500000003465e+02,-4.429096250000003465e+02,-4.452846250000003465e+02,-4.489408750000003465e+02,-4.537221250000003465e+02,-4.572221250000003465e+02,-4.620971250000003465e+02,-4.664096250000003465e+02,-4.693627500000003465e+02,-4.727690000000003465e+02,-4.760346250000003465e+02,-4.782065000000003465e+02,-4.802221250000003465e+02,-4.831283750000003465e+02,-4.851127500000003465e+02,-4.868471250000003465e+02,-4.885971250000003465e+02,-4.897065000000003465e+02,-4.905815000000003465e+02,-4.914721250000003465e+02,-4.920190000000003465e+02,-4.920346250000003465e+02,-4.920190000000003465e+02,-4.914252500000003465e+02,-4.899252500000003465e+02,-4.881127500000003465e+02,-4.846440000000003465e+02,-4.795658750000003465e+02,-4.731596250000003465e+02,-4.651127500000003465e+02,-4.553002500000003465e+02,-4.441908750000003465e+02,-4.328783750000003465e+02,-4.199721250000003465e+02,-4.070502500000003465e+02,-3.938471250000003465e+02,-3.805815000000003465e+02,-3.673471250000002328e+02,-3.539565000000001760e+02,-3.411127500000001760e+02,-3.272065000000001760e+02,-3.135033750000001760e+02,-3.008471250000001760e+02,-2.885346250000001760e+02,-2.750658750000001760e+02,-2.608002500000001760e+02,-2.461908750000001760e+02,-2.310033750000001760e+02,-2.170033750000001760e+02,-2.025971250000001760e+02,-1.860658750000001476e+02,-1.703471250000001191e+02,-1.559096250000000907e+02,-1.428627500000000907e+02,-1.312221250000000907e+02,-1.198471250000000907e+02,-1.078315000000000907e+02,-9.650337500000009072e+01,-8.670650000000006230e+01,-7.555025000000006230e+01,-6.342525000000004809e+01,-5.014400000000004098e+01,-3.622212500000003388e+01,-2.165962500000001967e+01,-6.112750000000010786e+00,9.355999999999999872e+00,2.537162500000000875e+01,4.110600000000002296e+01,5.607475000000003718e+01,7.076225000000003718e+01,8.573100000000005139e+01,1.001997500000000798e+02,1.138872500000000798e+02,1.286997500000000798e+02,1.440591250000000798e+02,1.593716250000000798e+02,1.741060000000001082e+02,1.881372500000001651e+02,2.025122500000001651e+02,2.158560000000001651e+02,2.288247500000001651e+02,2.402310000000001651e+02,2.506060000000001651e+02,2.609653750000001651e+02,2.722310000000001651e+02,2.845903750000001651e+02,2.967153750000001651e+02,3.103560000000001651e+02,3.247622500000001651e+02,3.405903750000001651e+02,3.562778750000001651e+02,3.717153750000002219e+02,3.869028750000003356e+02,4.002310000000003356e+02,4.129185000000003356e+02,4.242622500000003356e+02,4.338403750000003356e+02,4.420435000000003356e+02,4.506216250000003356e+02,4.586372500000003356e+02,4.661216250000003356e+02,4.742153750000003356e+02,4.812153750000003356e+02,4.876372500000003356e+02,4.939185000000003356e+02,4.992778750000003356e+02,5.031685000000003356e+02,5.061372500000003356e+02,5.080747500000003356e+02,5.089966250000003356e+02,5.097466250000003356e+02,5.101685000000003356e+02,5.102622500000003356e+02,5.103247500000003356e+02,5.103872500000003356e+02,5.104497500000003356e+02,5.105435000000003356e+02,5.106216250000003356e+02,5.106997500000003356e+02,5.107778750000003356e+02,5.109028750000003356e+02,5.110278750000003356e+02,5.111528750000003356e+02,5.112622500000003356e+02,5.113403750000003356e+02,5.114341250000003356e+02,5.115435000000003356e+02,5.116372500000003356e+02,5.116997500000003356e+02,5.117466250000003356e+02,5.117778750000003356e+02,5.118247500000003356e+02,5.118872500000003356e+02,5.119341250000003356e+02,5.119653750000003356e+02,5.119966250000003356e+02,5.120278750000003356e+02,5.120591250000003356e+02,5.120903750000003356e+02,5.121060000000003356e+02,5.120903750000003356e+02,5.120435000000003356e+02,5.120122500000003356e+02,5.119653750000003356e+02,5.119341250000003356e+02,5.119028750000003356e+02,5.118872500000003356e+02,5.118716250000003356e+02,5.118716250000003356e+02,5.119341250000003356e+02,5.119653750000003356e+02,5.120278750000003356e+02,5.120747500000003356e+02,5.121216250000003356e+02,5.121372500000003356e+02,5.121372500000003356e+02,5.121528750000003356e+02,5.121372500000003356e+02,5.121372500000003356e+02,5.121060000000003356e+02,5.120591250000003356e+02,5.119966250000003356e+02,5.119185000000003356e+02,5.118560000000003356e+02,5.117622500000003356e+02,5.116372500000003356e+02,5.114966250000003356e+02,5.113560000000003356e+02,5.111841250000003356e+02,5.109966250000003356e+02,5.108247500000003356e+02,5.105591250000003356e+02,5.101997500000003356e+02,5.097622500000003356e+02,5.086841250000003356e+02,5.065747500000003356e+02,5.029185000000003356e+02,4.973560000000003356e+02,4.900747500000003356e+02,4.801841250000003356e+02,4.680278750000003356e+02,4.531841250000003356e+02,4.357622500000003356e+02,4.166216250000003356e+02,3.961372500000003356e+02,3.749653750000003356e+02,3.534653750000002219e+02,3.351528750000001651e+02,3.195903750000001651e+02,3.022778750000001651e+02,2.835122500000001651e+02,2.620122500000001651e+02,2.396685000000001651e+02,2.158560000000001651e+02,1.888091250000001367e+02,1.549810000000001082e+02,1.137466250000000656e+02,7.599662500000003718e+01,4.313725000000002296e+01,1.576225000000000520e+01,-8.456500000000012562e+00,-2.884712500000002677e+01,-4.464400000000004098e+01,-5.451900000000004809e+01,-5.809712500000004809e+01,-6.117525000000004809e+01,-6.583150000000004809e+01,-7.030025000000004809e+01,-7.458150000000004809e+01,-7.969087500000004809e+01,-8.380025000000004809e+01,-8.790962500000006230e+01,-9.148775000000006230e+01,-9.501900000000006230e+01,-9.625337500000009072e+01,-9.806587500000009072e+01,-9.876900000000009072e+01,-9.755025000000009072e+01,-9.630025000000009072e+01,-9.408150000000007651e+01,-9.098775000000006230e+01,-8.686275000000004809e+01,-8.495650000000004809e+01,-8.275337500000004809e+01,-8.309712500000004809e+01,-8.509712500000004809e+01,-8.812837500000006230e+01,-9.303462500000006230e+01,-9.976900000000009072e+01,-1.091127500000000907e+02,-1.179877500000000907e+02,-1.284565000000000907e+02,-1.371440000000000907e+02,-1.455346250000000907e+02,-1.542690000000000907e+02,-1.622846250000000907e+02,-1.699877500000000907e+02,-1.752846250000000907e+02,-1.795190000000000907e+02,-1.822221250000000907e+02,-1.854721250000001191e+02,-1.888002500000001191e+02,-1.919408750000001476e+02,-1.956596250000001760e+02,-1.988471250000001760e+02,-2.030346250000001760e+02,-2.091752500000001760e+02,-2.159252500000001760e+02,-2.223002500000001760e+02,-2.288940000000001760e+02,-2.354096250000001760e+02,-2.408002500000001760e+02,-2.467377500000001760e+02,-2.526908750000001760e+02,-2.571283750000001760e+02,-2.606440000000001760e+02,-2.640190000000001760e+02,-2.668471250000001760e+02,-2.687377500000001760e+02,-2.707377500000001760e+02,-2.715190000000001760e+02,-2.721127500000001760e+02,-2.721440000000001760e+02,-2.720658750000001760e+02,-2.728158750000001760e+02,-2.736596250000001760e+02,-2.753158750000001760e+02,-2.773471250000001760e+02,-2.797533750000001760e+02,-2.818783750000001760e+02,-2.846440000000001760e+02,-2.885033750000001760e+02,-2.908315000000001760e+02,-2.928627500000001760e+02,-2.931440000000001760e+02,-2.927690000000001760e+02,-2.930658750000001760e+02,-2.925658750000001760e+02,-2.920190000000001760e+02,-2.904252500000001760e+02,-2.891440000000001760e+02,-2.876908750000001760e+02,-2.871752500000001760e+02,-2.869252500000001760e+02,-2.857846250000001760e+02,-2.845971250000001760e+02,-2.828158750000001760e+02,-2.804252500000001760e+02,-2.785190000000001760e+02,-2.758158750000001760e+02,-2.735971250000001760e+02,-2.708158750000001760e+02,-2.680190000000001760e+02,-2.661752500000001760e+02,-2.639408750000001760e+02,-2.632533750000001760e+02,-2.620346250000001760e+02,-2.616752500000001760e+02,-2.613315000000001760e+02,-2.612690000000001760e+02,-2.610502500000001760e+02,-2.598627500000001760e+02,-2.601596250000001760e+02,-2.593315000000001760e+02,-2.594408750000001760e+02,-2.594408750000001760e+02,-2.587377500000001760e+02,-2.587846250000001760e+02,-2.588158750000001760e+02,-2.593315000000001760e+02,-2.588627500000001760e+02,-2.580658750000001760e+02,-2.562065000000001760e+02,-2.550033750000001760e+02,-2.533158750000001760e+02,-2.507846250000001760e+02,-2.483940000000001760e+02,-2.461752500000001760e+02,-2.440346250000001760e+02,-2.422690000000001760e+02,-2.404096250000001760e+02,-2.377846250000001760e+02,-2.360658750000001760e+02,-2.343315000000001760e+02,-2.325346250000001760e+02,-2.309096250000001760e+02,-2.284721250000001760e+02,-2.261440000000001760e+02,-2.244408750000001760e+02,-2.221752500000001760e+02,-2.193783750000001760e+02,-2.155346250000001760e+02,-2.109096250000001760e+02,-2.052846250000001760e+02,-2.006127500000001760e+02,-1.959408750000001760e+02,-1.906440000000001476e+02,-1.856908750000001191e+02,-1.808940000000000907e+02,-1.778940000000000907e+02,-1.766908750000000907e+02,-1.759408750000000907e+02,-1.740658750000000907e+02,-1.722846250000000907e+02,-1.703158750000000907e+02,-1.680033750000000907e+02,-1.657065000000000907e+02,-1.625971250000000907e+02,-1.577690000000000907e+02,-1.531596250000000907e+02,-1.500033750000000907e+02,-1.467221250000000907e+02,-1.436752500000000907e+02,-1.411127500000000907e+02,-1.384721250000000907e+02,-1.351752500000000907e+02,-1.321283750000000907e+02,-1.286752500000000907e+02,-1.243002500000000907e+02,-1.197533750000000907e+02,-1.148940000000000907e+02,-1.098783750000000907e+02,-1.049565000000000907e+02,-1.005502500000000907e+02,-9.678462500000009072e+01,-9.315962500000006230e+01,-9.014400000000004809e+01,-8.659712500000004809e+01,-8.353462500000004809e+01,-8.144087500000004809e+01,-7.928462500000004809e+01,-7.776900000000004809e+01,-7.690962500000004809e+01,-7.555025000000004809e+01,-7.333150000000004809e+01,-7.262837500000004809e+01,-7.258150000000004809e+01,-7.175337500000004809e+01,-7.106587500000004809e+01,-6.931587500000004809e+01,-6.662837500000004809e+01,-6.464400000000004809e+01,-6.334712500000004809e+01,-6.136275000000004809e+01,-5.897212500000004809e+01,-5.601900000000004809e+01,-5.289400000000004809e+01,-5.150337500000004809e+01,-5.033150000000004809e+01,-4.970650000000004809e+01,-4.992525000000004809e+01,-4.953462500000004809e+01,-4.928462500000004809e+01,-4.965962500000004809e+01,-5.050337500000004809e+01,-4.956587500000004809e+01,-4.815962500000004809e+01,-4.644087500000004098e+01,-4.301900000000003388e+01,-3.992525000000003388e+01,-3.655025000000002677e+01,-3.398775000000002677e+01,-3.117525000000002677e+01,-2.898775000000002677e+01,-2.794087500000002677e+01,-2.581587500000002677e+01,-2.505025000000002677e+01,-2.528462500000002677e+01,-2.487837500000002677e+01,-2.295650000000002322e+01,-2.022212500000001967e+01,-1.844087500000001967e+01,-1.531587500000001434e+01,-1.314400000000001256e+01,-1.025337500000001256e+01,-6.597125000000009010e+00,-3.472125000000008122e+00,-1.909625000000006789e+00,-1.940875000000006789e+00,-3.783750000000056790e-01,2.787499999999461242e-02,4.966249999999948761e-01,3.716249999999947096e-01,5.278749999999947651e-01,3.872499999999948206e-01,1.309124999999995653e+00,3.746624999999997208e+00,4.918499999999998096e+00,6.980999999999998984e+00,8.996624999999999872e+00,1.143412500000000165e+01,1.344975000000000520e+01,1.565287500000000520e+01,1.718412500000000520e+01,1.773100000000000520e+01,1.810600000000000520e+01,1.719975000000000520e+01,1.544975000000000520e+01,1.396537500000000520e+01,1.246537500000000165e+01,1.082475000000000165e+01,9.856000000000001648e+00,8.262249999999999872e+00,7.324749999999999872e+00,7.668499999999999872e+00,9.356000000000001648e+00,9.559125000000001648e+00,1.009037500000000165e+01,9.559125000000001648e+00,8.371624999999999872e+00,8.574749999999999872e+00,8.543499999999999872e+00,7.902874999999999872e+00,6.168499999999998096e+00,6.199749999999998096e+00,5.324749999999998096e+00,6.215374999999998096e+00,7.059124999999998096e+00,6.496624999999998096e+00,6.434124999999998096e+00,6.043499999999998096e+00,6.152874999999998984e+00,4.559124999999998096e+00,3.137249999999997208e+00,1.224999999999476508e-02,-2.628375000000007233e+00,-4.753375000000009010e+00,-7.487750000000010786e+00,-1.039400000000001256e+01,-1.347212500000001612e+01,-1.517525000000001612e+01,-1.584712500000001612e+01,-1.497212500000001612e+01,-1.490962500000001612e+01,-1.434712500000001612e+01,-1.433150000000001612e+01,-1.348775000000001612e+01,-1.251900000000001612e+01,-1.173775000000001256e+01,-1.148775000000001256e+01,-1.172212500000001256e+01,-1.058150000000001256e+01,-9.081500000000012562e+00,-6.722125000000009898e+00,-4.128375000000008122e+00,-1.097125000000005901e+00,1.434124999999995431e+00,3.012249999999996319e+00,4.715374999999998096e+00,5.355999999999998096e+00,4.543499999999997208e+00,3.965374999999997208e+00,2.309124999999995875e+00,-1.908750000000056790e-01,-2.065875000000006789e+00,-2.206500000000006789e+00,-3.159625000000007233e+00,-4.144000000000008122e+00,-4.222125000000008122e+00,-4.956500000000009010e+00,-4.722125000000009010e+00,-3.347125000000007233e+00,-2.565875000000007233e+00,-3.534625000000007677e+00,-3.956500000000008122e+00,-3.628375000000008122e+00,-3.409625000000008122e+00,-2.300250000000007233e+00,-1.862750000000006789e+00,-2.784625000000007677e+00,-3.284625000000008122e+00,-2.737750000000007233e+00,-1.644000000000006567e+00,-6.908750000000059011e-01,4.497499999999948206e-01,2.466249999999947096e-01,4.184999999999947096e-01,1.105999999999994987e+00,1.199749999999995431e+00,1.668499999999995875e+00,1.574749999999995431e+00,6.841249999999948761e-01,-6.908750000000059011e-01,-9.565000000000061231e-01,-2.144000000000006789e+00,-2.472125000000007233e+00,-2.815875000000007233e+00,-4.769000000000008122e+00,-7.253375000000009010e+00,-9.347125000000010786e+00,-1.120650000000001256e+01,-1.401900000000001612e+01,-1.522212500000001612e+01,-1.730025000000001612e+01,-1.919087500000001612e+01,-1.950337500000001612e+01,-1.964400000000001612e+01,-1.915962500000001612e+01,-1.844087500000001612e+01,-1.706587500000001612e+01,-1.636275000000001612e+01,-1.583150000000001612e+01,-1.394087500000001612e+01,-1.226900000000001256e+01,-9.331500000000012562e+00,-7.362750000000010786e+00,-4.690875000000009010e+00,-9.252500000000061231e-01,2.387249999999995875e+00,6.512249999999998096e+00,9.340375000000001648e+00,1.151225000000000165e+01,1.201225000000000342e+01,1.321537500000000520e+01,1.234037500000000165e+01,9.246624999999999872e+00,6.277874999999998096e+00,2.027874999999995875e+00,-3.112750000000007677e+00,-7.862750000000010786e+00,-1.181587500000001256e+01,-1.700337500000001612e+01,-2.034712500000001967e+01,-2.281587500000002322e+01,-2.580025000000002677e+01,-2.764400000000002677e+01,-2.786275000000002677e+01,-2.855025000000002677e+01,-2.933150000000002677e+01,-2.826900000000002677e+01,-2.792525000000002677e+01,-2.783150000000002677e+01,-2.694087500000002677e+01,-2.608150000000002677e+01,-2.586275000000002677e+01,-2.545650000000002677e+01,-2.423775000000001967e+01,-2.420650000000001967e+01,-2.470650000000002677e+01,-2.383150000000001967e+01,-2.286275000000001967e+01,-2.286275000000001967e+01,-2.265962500000001967e+01,-2.164400000000001967e+01,-2.205025000000001967e+01,-2.167525000000001967e+01,-1.997212500000001612e+01,-1.945650000000001612e+01,-1.795650000000001612e+01,-1.519087500000001612e+01,-1.267525000000001256e+01,-9.909625000000012562e+00,-5.862750000000009010e+00,-2.487750000000007233e+00,8.716249999999952092e-01,5.387249999999998096e+00,8.121625000000001648e+00,1.046537500000000342e+01,1.374662500000000520e+01,1.562162500000000520e+01,1.690287500000000520e+01,1.935600000000000520e+01,2.091850000000000875e+01,2.102787500000000875e+01,2.191850000000000875e+01,2.218412500000000875e+01,2.029350000000000520e+01,1.837162500000000520e+01,1.549662500000000520e+01,1.052787500000000165e+01,5.309124999999998096e+00,-2.065000000000059011e-01,-6.597125000000009010e+00,-1.348775000000001256e+01,-1.884712500000001967e+01,-2.426900000000002322e+01,-2.867525000000002677e+01,-3.931587500000003388e+01,-5.706587500000004809e+01,-8.119087500000006230e+01,-1.119877500000000907e+02,-1.482533750000001191e+02,-1.897065000000001191e+02,-2.346440000000001760e+02
-4.373437500000002842e+01,-8.496875000000005684e+01,-9.678125000000005684e+01,-8.215625000000005684e+01,-4.678125000000002842e+01,-1.401562500000000888e+01,5.625000000000012212e-01,-4.171875000000003553e+00,-1.978125000000001421e+01,-4.931250000000004263e+01,-7.506250000000005684e+01,-8.718750000000005684e+01,-8.818750000000005684e+01,-5.910937500000003553e+01,-1.325000000000000711e+01,3.375000000000002842e+01,7.684375000000005684e+01,9.620312500000005684e+01,9.223437500000005684e+01,7.525000000000004263e+01,4.985937500000002842e+01,2.676562500000001421e+01,1.207812500000000711e+01,3.593750000000002665e+00,4.218750000000002776e-01,1.562500000000001110e-01,1.875000000000001665e-01,3.125000000000002220e-01,3.750000000000002776e-01,3.437500000000002220e-01,2.812500000000001665e-01,1.718750000000001110e-01,-1.562500000000000000e-02,-9.375000000000005551e-02,-1.562500000000001110e-01,-1.093750000000000694e-01,-1.562500000000001041e-02,1.562500000000001041e-02,4.687500000000002776e-02,-3.125000000000002776e-02,-7.812500000000005551e-02,-1.093750000000000833e-01,-1.250000000000000833e-01,-7.812500000000005551e-02,4.687500000000004857e-02,1.562500000000001110e-01,2.031250000000001388e-01,2.187500000000001665e-01,-1.562499999999998612e-02,-1.718750000000001110e-01,-2.187500000000001110e-01,-2.031250000000001110e-01,9.375000000000004163e-02,2.343750000000001665e-01,2.656250000000001665e-01,2.031250000000001110e-01,-4.687500000000002082e-02,-1.250000000000000833e-01,-1.406250000000001110e-01,-9.375000000000006939e-02,1.562500000000001041e-02,-1.562500000000001735e-02,-6.250000000000005551e-02,-1.250000000000001110e-01,-1.406250000000001110e-01,-3.125000000000004163e-02,9.375000000000005551e-02,2.343750000000001665e-01,2.968750000000002220e-01,2.500000000000001665e-01,1.562500000000001110e-01,1.562500000000000694e-02,-1.093750000000000833e-01,-7.812500000000005551e-02,1.312500000000000666e+00,4.125000000000001776e+00,8.281250000000003553e+00,1.401562500000000711e+01,1.710937500000001066e+01,1.837500000000001066e+01,1.759375000000001066e+01,1.368750000000001066e+01,1.150000000000000888e+01,7.968750000000006217e+00,4.703125000000003553e+00,2.531250000000001776e+00,-4.531250000000001110e-01,-6.875000000000002220e-01,-3.906250000000001110e-01,-7.812500000000000000e-02,1.046875000000000444e+00,1.187500000000000666e+00,1.000000000000000444e+00,1.031250000000000444e+00,6.562500000000003331e-01,7.968750000000003331e-01,1.250000000000000000e-01,4.843750000000002220e-01,-8.437500000000004441e-01,-4.046875000000002665e+00,-4.031250000000002665e+00,-5.984375000000003553e+00,-5.359375000000003553e+00,-2.421875000000000888e+00,-3.984375000000002665e+00,-4.843750000000003553e+00,-5.890625000000003553e+00,-9.375000000000007105e+00,-8.843750000000007105e+00,-5.890625000000004441e+00,-4.375000000000003553e+00,6.406250000000004441e-01,2.593750000000001332e+00,1.875000000000001110e-01,-1.171875000000001110e+00,-6.078125000000003553e+00,-8.890625000000005329e+00,-8.843750000000005329e+00,-9.359375000000005329e+00,-7.656250000000005329e+00,-6.375000000000004441e+00,-5.140625000000003553e+00,-3.578125000000002665e+00,-2.453125000000001776e+00,-1.593750000000001332e+00,-1.281250000000000888e+00,-7.656250000000004441e-01,-5.312500000000003331e-01,-2.968750000000001665e-01,-1.562500000000001041e-02,-1.562500000000001041e-02,3.125000000000002082e-02,3.125000000000002082e-02,-5.625000000000003331e-01,-1.562500000000000888e+00,-3.281250000000001776e+00,-4.968750000000003553e+00,-4.703125000000003553e+00,-3.687500000000002665e+00,-3.125000000000004441e-01,1.468750000000000888e+00,-9.843750000000006661e-01,-3.343750000000002665e+00,-9.703125000000007105e+00,-1.217187500000000711e+01,-8.125000000000003553e+00,-5.359375000000002665e+00,2.937500000000002665e+00,9.687500000000007105e+00,1.067187500000000711e+01,1.335937500000000888e+01,1.067187500000000711e+01,4.937500000000003553e+00,2.421875000000001776e+00,-1.046875000000000444e+00,-2.859375000000001776e+00,-1.171875000000000666e+00,-2.406250000000001332e+00,-5.046875000000003553e+00,-4.359375000000002665e+00,-5.375000000000003553e+00,-3.390625000000002220e+00,1.156250000000001332e+00,-2.015625000000000888e+00,-6.234375000000004441e+00,-1.181250000000000711e+01,-1.807812500000001421e+01,-1.312500000000001066e+01,-3.656250000000003109e+00,5.390625000000003553e+00,1.326562500000001066e+01,8.000000000000007105e+00,-3.703125000000002220e+00,-1.565625000000001066e+01,-2.784375000000001776e+01,-2.895312500000001776e+01,-2.440625000000001421e+01,-1.781250000000001066e+01,-8.015625000000001776e+00,-1.749999999999998890e+00,4.015625000000003553e+00,1.032812500000000711e+01,1.520312500000000711e+01,1.793750000000001066e+01,1.578125000000000888e+01,9.812500000000007105e+00,9.687500000000004441e-01,-6.328125000000005329e+00,-7.218750000000005329e+00,-3.546875000000003109e+00,4.984375000000001776e+00,1.571875000000001066e+01,2.253125000000001421e+01,2.489062500000001776e+01,2.279687500000001421e+01,1.640625000000001066e+01,9.890625000000007105e+00,5.328125000000003553e+00,2.515625000000001776e+00,1.687500000000001332e+00,1.937500000000001332e+00,2.625000000000001776e+00,3.359375000000002220e+00,5.218750000000003553e+00,6.531250000000004441e+00,8.296875000000005329e+00,1.103125000000000711e+01,1.101562500000000711e+01,1.342187500000000711e+01,1.284375000000000711e+01,9.875000000000007105e+00,1.006250000000000711e+01,4.609375000000003553e+00,1.000000000000000444e+00,-2.046875000000003109e+00,-9.109375000000007105e+00,-1.270312500000001066e+01,-1.490625000000001066e+01,-1.548437500000001066e+01,-1.162500000000000711e+01,-4.718750000000002665e+00,-6.875000000000002220e-01,1.703125000000001554e+00,5.156250000000006661e-01,-7.703125000000005329e+00,-1.201562500000000711e+01,-1.418750000000000888e+01,-1.387500000000000888e+01,-5.515625000000003553e+00,-7.500000000000005551e-01,1.859375000000000888e+00,4.671875000000002665e+00,3.093750000000001776e+00,4.578125000000003553e+00,6.781250000000005329e+00,8.312500000000005329e+00,6.546875000000003553e+00,1.546875000000000222e+00,-4.843750000000007772e-01,-7.125000000000005329e+00,-6.062500000000005329e+00,-2.625000000000001776e+00,-7.031250000000005329e+00,-1.156250000000000888e+00,-7.968750000000008882e-01,-1.468750000000001332e+00,5.921875000000003553e+00,2.828125000000002220e+00,1.312500000000000888e+00,-1.062500000000000888e+00,-6.156250000000003553e+00,-4.859375000000003553e+00,-4.343750000000002665e+00,-1.140625000000000444e+00,-2.031249999999997780e-01,-4.843750000000001110e-01,6.875000000000002220e-01,1.140625000000000666e+00,6.421875000000003553e+00,7.421875000000004441e+00,9.359375000000007105e+00,7.593750000000005329e+00,-2.468750000000002220e+00,-3.843750000000003109e+00,-1.025000000000000533e+01,-1.046875000000000533e+01,2.031250000000001776e+00,4.296875000000003553e+00,1.301562500000000711e+01,1.618750000000001066e+01,8.093750000000003553e+00,8.218750000000003553e+00,2.593750000000001332e+00,-1.703125000000000888e+00,-2.265625000000000888e+00,-5.484375000000003553e+00,-4.281250000000002665e+00,1.562499999999977796e-02,3.625000000000002220e+00,4.078125000000002665e+00,2.359375000000001776e+00,-3.171875000000002220e+00,-6.734375000000005329e+00,-4.812500000000003553e+00,-2.937500000000001776e+00,7.968750000000006661e-01,4.437500000000003553e+00,3.109375000000002220e+00,2.062500000000001332e+00,1.671875000000000888e+00,-1.015625000000000444e+00,-8.906250000000004441e-01,6.250000000000004441e-01,9.375000000000019429e-02,1.531250000000000888e+00,2.671875000000001332e+00,9.843750000000004441e-01,5.468750000000002220e-01,3.906250000000002220e-01,-3.124999999999955591e-02,2.375000000000001776e+00,6.703125000000003553e+00,7.234375000000005329e+00,7.781250000000005329e+00,6.437500000000003553e+00,4.687500000000006661e-01,1.093750000000000444e+00,1.812500000000001776e+00,3.609375000000003553e+00,8.421875000000007105e+00,4.828125000000004441e+00,-3.124999999999955591e-02,-5.281250000000003553e+00,-1.159375000000000711e+01,-9.921875000000007105e+00,-6.640625000000005329e+00,-4.718750000000003553e+00,-2.656250000000000000e-01,1.156250000000000444e+00,1.375000000000000666e+00,4.578125000000002665e+00,4.546875000000002665e+00,8.437500000000005551e-01,-7.968750000000006661e-01,-5.687500000000003553e+00,-9.890625000000007105e+00,-7.156250000000005329e+00,-7.828125000000005329e+00,-6.750000000000005329e+00,-3.046875000000002665e+00,-5.687500000000003553e+00,-4.421875000000002665e+00,-1.437500000000000888e+00,-3.109375000000001776e+00,5.625000000000000000e-01,1.375000000000000666e+00,-9.375000000000006661e-01,1.750000000000000888e+00,2.812500000000000000e-01,2.031249999999997780e-01,9.531250000000003331e-01,-8.281250000000006661e-01,-6.250000000000004441e-01,-1.875000000000001332e+00,-1.453125000000001110e+00,-2.328125000000001332e+00,-3.500000000000001776e+00,-9.062500000000002220e-01,-7.968750000000001110e-01,1.453125000000001332e+00,3.921875000000002665e+00,1.062500000000000888e+00,3.437500000000003331e-01,1.875000000000003331e-01,-7.500000000000002220e-01,1.750000000000001332e+00,2.781250000000001776e+00,1.250000000000000888e+00,3.437500000000000000e-01,-1.812500000000001554e+00,-3.218750000000002665e+00,-3.078125000000002665e+00,-3.281250000000002665e+00,-2.750000000000001776e+00,-2.484375000000001776e+00,-3.312500000000002665e+00,-3.921875000000002665e+00,-4.500000000000003553e+00,-5.906250000000003553e+00,-3.968750000000002665e+00,-1.781250000000000888e+00,-6.249999999999955591e-02,5.250000000000003553e+00,7.015625000000004441e+00,8.390625000000003553e+00,1.054687500000000533e+01,8.656250000000005329e+00,6.515625000000004441e+00,5.328125000000003553e+00,2.046875000000000888e+00,-1.359375000000001110e+00,-1.859375000000001332e+00,-4.359375000000003553e+00,-5.109375000000003553e+00,-2.531250000000001776e+00,-1.562500000000001332e+00,5.156250000000003331e-01,2.500000000000001776e+00,1.640625000000001332e+00,-2.031249999999997780e-01,-1.531250000000000888e+00,-3.046875000000001776e+00,-3.234375000000002220e+00,-1.812500000000001332e+00,-1.062500000000000888e+00,-4.218750000000003331e-01,-1.250000000000001110e-01,-4.218750000000002776e-01,-3.750000000000002220e-01,-7.812500000000004441e-01,-2.031250000000000888e+00,-3.593750000000001776e+00,-7.000000000000003553e+00,-9.828125000000007105e+00,-1.048437500000000711e+01,-1.146875000000000888e+01,-7.593750000000005329e+00,-3.078125000000001776e+00,-5.156249999999993339e-01,4.390625000000003553e+00,3.281250000000002665e+00,1.015625000000000444e+00,-5.000000000000013323e-01,-4.796875000000004441e+00,-3.812500000000003553e+00,-1.343750000000001110e+00,4.375000000000001110e-01,3.984375000000002220e+00,4.328125000000002665e+00,1.828125000000001110e+00,8.593750000000006661e-01,-2.031250000000000888e+00,-6.390625000000005329e+00,-7.265625000000005329e+00,-8.078125000000005329e+00,-5.421875000000003553e+00,2.984375000000003109e+00,9.578125000000007105e+00,1.226562500000000711e+01,1.134375000000000888e+01,5.703125000000004441e+00,-1.734375000000000444e+00,-3.437500000000001776e+00,-3.890625000000002220e+00,-4.062500000000002665e+00,9.375000000000000000e-02,-1.718750000000001332e+00,-3.562500000000002665e+00,-3.546875000000001776e+00,-8.046875000000003553e+00,-6.031250000000003553e+00,-2.125000000000000888e+00,4.687499999999977796e-02,7.125000000000003553e+00,8.906250000000003553e+00,5.906250000000003553e+00,4.687500000000002665e+00,-2.531250000000001332e+00,-7.406250000000004441e+00,-6.218750000000003553e+00,-7.390625000000003553e+00,-2.140625000000000888e+00,3.500000000000001776e+00,5.031250000000003553e+00,9.968750000000007105e+00,9.500000000000007105e+00,5.906250000000003553e+00,3.500000000000001332e+00,-2.187500000000002220e+00,-5.484375000000004441e+00,-4.000000000000003553e+00,-4.296875000000002665e+00,-3.609375000000000888e+00,-2.812500000000000888e+00,-7.031250000000004441e+00,-6.546875000000004441e+00,-4.046875000000003553e+00,-8.593750000000008882e-01,8.453125000000005329e+00,1.375000000000000888e+01,1.462500000000001066e+01,1.334375000000000711e+01,5.328125000000002665e+00,-3.125000000000001776e+00,-6.265625000000004441e+00,-7.656250000000005329e+00,-4.453125000000002665e+00,2.140625000000001332e+00,5.015625000000003553e+00,7.343750000000003553e+00,8.062500000000005329e+00,5.953125000000004441e+00,4.875000000000003553e+00,3.468750000000002220e+00,1.968750000000001332e+00,1.296875000000000888e+00,6.093750000000004441e-01,1.875000000000001110e-01,-3.125000000000002776e-02,-1.562500000000001110e-01,-1.562500000000001110e-01,-9.375000000000006939e-02,-3.469446951953614189e-18,4.687500000000003469e-02,3.125000000000002776e-02,-4.687500000000003469e-02,-4.687500000000004163e-02,-4.687500000000004163e-02,-4.687500000000004857e-02,3.125000000000002082e-02,1.562500000000001388e-02,4.687500000000002776e-02,1.250000000000000833e-01,9.375000000000005551e-02,9.375000000000005551e-02,4.687500000000002776e-02,-4.687500000000002776e-02,-3.125000000000002082e-02,-3.125000000000002082e-02,-1.562500000000001041e-02,1.562500000000001041e-02,-1.562500000000001041e-02,1.562500000000001041e-02,4.687500000000002776e-02,7.812500000000005551e-02,1.250000000000000833e-01,7.812500000000005551e-02,6.250000000000004163e-02,3.125000000000002776e-02,1.562500000000001041e-02,4.687500000000002776e-02,-4.687500000000002776e-02,-9.375000000000006939e-02,-2.031250000000001665e-01,-2.656250000000002220e-01,-1.406250000000001110e-01,-4.687500000000004163e-02,1.406250000000001110e-01,2.187500000000001665e-01,1.718750000000001388e-01,9.375000000000008327e-02,-3.125000000000002082e-02,-4.687500000000002776e-02,-3.125000000000002082e-02,3.125000000000002776e-02,6.250000000000004163e-02,4.687500000000002776e-02,4.687500000000002776e-02,6.250000000000005551e-02,1.250000000000000833e-01,1.562500000000001110e-01,1.562500000000001110e-01,4.687500000000004163e-02,-6.250000000000002776e-02,-7.812500000000005551e-02,-7.812500000000008327e-02,9.375000000000005551e-02,2.968750000000001665e-01,4.062500000000002776e-01,5.937500000000004441e-01,1.234375000000000888e+00,2.656250000000002220e+00,5.562500000000004441e+00,1.006250000000000711e+01,1.390625000000001066e+01,1.679687500000001066e+01,1.607812500000000711e+01,1.104687500000000711e+01,6.656250000000004441e+00,9.218749999999993339e-01,-7.187500000000002220e-01,1.890625000000001776e+00,7.656250000000011102e-01,-7.343749999999988898e-01,-9.984375000000005329e+00,-2.035937500000001066e+01,-2.053125000000001066e+01,-7.781250000000003553e+00,2.406250000000001421e+01,5.256250000000002842e+01,6.504687500000004263e+01,5.018750000000002842e+01,7.859375000000003553e+00,-3.132812500000001776e+01,-5.859375000000003553e+01,-6.040625000000004263e+01,-4.350000000000002842e+01,-2.492187500000001421e+01,-5.750000000000004441e+00,1.687500000000001332e+00,6.578125000000004441e+00,8.656250000000007105e+00,3.500000000000001776e+00,2.531250000000001776e+00,-2.812500000000001332e+00,-6.203125000000003553e+00,-4.468750000000002665e+00,-4.921875000000002665e+00,-5.312500000000000000e-01,5.625000000000006661e-01,-7.812500000000000000e-02,-1.406250000000000000e-01,-5.750000000000003553e+00,-7.718750000000005329e+00,-7.781250000000005329e+00,-8.937500000000005329e+00,-3.031250000000001776e+00,1.656250000000000888e+00,4.250000000000002665e+00,1.067187500000000711e+01,1.170312500000000711e+01,1.332812500000000711e+01,1.379687500000000711e+01,9.203125000000005329e+00,4.187500000000002665e+00,-2.531250000000001332e+00,-5.156250000000003553e+00,-3.937500000000002665e+00,6.250000000000006661e-01,4.140625000000003553e+00,2.937500000000002220e+00,-2.921875000000001332e+00,-9.968750000000005329e+00,-1.242187500000000711e+01,-1.175000000000000711e+01,-4.109375000000001776e+00,1.953125000000001332e+00,4.468750000000003553e+00,7.734375000000005329e+00,4.640625000000003553e+00,3.953125000000002665e+00,4.203125000000002665e+00,1.093750000000000888e+00,1.656250000000000888e+00,2.187500000000000000e-01,-1.250000000000000666e+00,-9.218750000000006661e-01,-3.343750000000001776e+00,-3.406250000000002220e+00,-3.765625000000002665e+00,-3.765625000000002665e+00,-1.110223024625156540e-16,-5.625000000000004441e-01,-8.593750000000005551e-01,-1.656250000000000888e+00,-6.406250000000003553e+00,-5.250000000000003553e+00,-3.406250000000002665e+00,-1.125000000000001110e+00,4.046875000000002665e+00,4.859375000000003553e+00,3.953125000000002665e+00,3.671875000000002665e+00,2.265625000000001776e+00,1.171875000000000888e+00,2.171875000000001776e+00,-6.249999999999977796e-02,-2.703125000000001776e+00,-3.062500000000001776e+00,-5.531250000000003553e+00,-4.375000000000003553e+00,-3.750000000000002665e+00,-3.890625000000002665e+00,-2.390625000000001776e+00,-8.125000000000005551e-01,3.593750000000003109e+00,4.687500000000003553e+00,5.734375000000003553e+00,2.281250000000001776e+00,-4.593750000000002665e+00,-4.921875000000003553e+00,-7.296875000000003553e+00,-3.265625000000001332e+00,2.593750000000001776e+00,1.250000000000001110e+00,3.171875000000001776e+00,-6.093750000000008882e-01,-3.703125000000002665e+00,-8.125000000000006661e-01,9.374999999999983347e-02,4.046875000000002665e+00,6.859375000000005329e+00,4.890625000000003553e+00,1.781250000000001110e+00,-4.375000000000003331e-01,-4.437500000000002665e+00,-3.968750000000002665e+00,-9.687500000000007772e-01,-1.734375000000001332e+00,2.062500000000000888e+00,2.421875000000001332e+00,1.546875000000000888e+00,3.656250000000002665e+00,1.703125000000001110e+00,1.093750000000000833e-01,-1.812500000000001332e+00,-4.031250000000002665e+00,-5.640625000000003553e+00,-4.625000000000003553e+00,-2.140625000000001776e+00,-1.265625000000001110e+00,3.015625000000001776e+00,3.937500000000002665e+00,1.593750000000000888e+00,2.828125000000001776e+00,-1.625000000000000888e+00,-3.421875000000002220e+00,-6.093750000000005551e-01,-3.078125000000001776e+00,8.125000000000008882e-01,3.015625000000002220e+00,1.140625000000000888e+00,3.703125000000002220e+00,-2.500000000000000000e-01,-2.828125000000001332e+00,-3.531250000000002665e+00,-5.828125000000003553e+00,-2.734375000000001776e+00,-2.796875000000001776e+00,-2.234375000000000888e+00,-1.718750000000000888e+00,-3.265625000000001776e+00,1.687500000000001332e+00,5.296875000000003553e+00,8.312500000000005329e+00,1.081250000000000711e+01,5.734375000000003553e+00,1.484375000000000888e+00,-2.015625000000001332e+00,-5.921875000000003553e+00,-5.578125000000003553e+00,-6.453125000000003553e+00,-5.812500000000003553e+00,-3.046875000000001776e+00,-7.500000000000001110e-01,4.515625000000003553e+00,6.296875000000003553e+00,5.828125000000003553e+00,5.531250000000003553e+00,2.187500000000000000e-01,-2.609375000000002220e+00,-4.281250000000003553e+00,-7.765625000000005329e+00,-5.343750000000003553e+00,-3.718750000000001776e+00,-1.140625000000000000e+00,4.312500000000002665e+00,4.109375000000002665e+00,4.875000000000003553e+00,2.781250000000001776e+00,-1.734375000000001332e+00,-7.968750000000006661e-01,-1.500000000000001110e+00,8.281250000000000000e-01,4.015625000000002665e+00,2.484375000000001776e+00,2.078125000000001332e+00,6.875000000000005551e-01,3.281250000000003331e-01,1.656250000000001332e+00,2.250000000000001332e+00,1.484375000000000888e+00,-2.375000000000001776e+00,-3.703125000000002665e+00,-2.890625000000001776e+00,-1.828125000000001332e+00,2.796875000000002220e+00,2.437500000000001776e+00,-1.921875000000001332e+00,-2.468750000000001776e+00,-4.921875000000003553e+00,-2.687500000000001776e+00,4.000000000000002665e+00,4.859375000000003553e+00,6.062500000000003553e+00,5.250000000000003553e+00,1.406250000000000666e+00,6.406250000000003331e-01,3.906250000000001665e-01,-1.546875000000001332e+00,-3.265625000000002665e+00,-4.140625000000002665e+00,-6.921875000000003553e+00,-5.328125000000003553e+00,-2.937500000000001776e+00,-2.031250000000001332e+00,2.968750000000001332e+00,2.968750000000001332e+00,4.781250000000002665e+00,6.906250000000003553e+00,3.984375000000002665e+00,3.671875000000002665e+00,-9.062500000000004441e-01,-4.546875000000003553e+00,-5.390625000000003553e+00,-5.000000000000003553e+00,-1.671875000000001110e+00,-9.531250000000004441e-01,2.968750000000002220e-01,-6.250000000000005551e-01,-8.906250000000009992e-01,1.453125000000000888e+00,2.515625000000001776e+00,4.828125000000003553e+00,5.109375000000003553e+00,3.671875000000002665e+00,3.015625000000002220e+00,-2.031250000000004441e-01,-3.328125000000002665e+00,-3.484375000000002665e+00,-5.406250000000003553e+00,-2.828125000000001776e+00,4.843750000000001110e-01,-1.875000000000004996e-01,1.562500000000000666e+00,-1.015625000000000666e+00,-1.953125000000000888e+00,-2.812500000000000000e-01,2.031250000000003331e-01,4.359375000000002665e+00,4.812500000000002665e+00,4.625000000000002665e+00,5.156250000000002665e+00,2.218750000000001332e+00,2.390625000000001776e+00,1.328125000000000888e+00,-2.593750000000001332e+00,-4.937500000000003553e+00,-7.656250000000005329e+00,-7.781250000000005329e+00,-3.187500000000002665e+00,2.562500000000002220e+00,5.921875000000005329e+00,6.328125000000005329e+00,3.921875000000002665e+00,2.968750000000003331e-01,-1.906250000000001332e+00,-5.625000000000005551e-01,-1.109375000000000888e+00,-1.937500000000001554e+00,-7.187500000000005551e-01,-3.531250000000002665e+00,-1.671875000000001332e+00,4.843750000000002220e-01,6.718750000000002220e-01,3.296875000000002220e+00,2.937500000000001776e+00,2.765625000000001776e+00,1.609375000000000888e+00,1.343750000000000444e+00,1.656250000000001110e+00,1.859375000000001554e+00,3.484375000000002665e+00,1.343750000000001110e+00,-1.875000000000001332e+00,-4.421875000000002665e+00,-7.468750000000004441e+00,-6.296875000000003553e+00,-3.734375000000002220e+00,-2.421875000000001776e+00,2.031250000000002220e-01,1.375000000000000888e+00,3.281250000000002220e+00,5.437500000000003553e+00,5.281250000000003553e+00,2.218750000000001332e+00,-3.109375000000002220e+00,-8.000000000000005329e+00,-1.081250000000000711e+01,-7.734375000000005329e+00,-2.890625000000001776e+00,3.015625000000002220e+00,8.484375000000005329e+00,8.281250000000005329e+00,7.640625000000005329e+00,5.000000000000003553e+00,1.250000000000000888e+00,-4.687500000000005551e-02,-1.140625000000000888e+00,-1.015625000000000444e+00,-1.265625000000000888e+00,-1.062500000000000666e+00,-2.296875000000001332e+00,-4.562500000000002665e+00,-3.171875000000001776e+00,-1.250000000000000888e+00,1.828125000000000888e+00,5.390625000000003553e+00,3.796875000000002665e+00,-6.093749999999998890e-01,-3.687500000000001776e+00,-5.140625000000002665e+00,-1.921875000000000888e+00,2.656250000000001776e+00,4.218750000000002665e+00,3.765625000000002220e+00,-9.218750000000004441e-01,-3.031250000000001776e+00,-2.875000000000001776e+00,-3.640625000000002220e+00,1.562500000000000000e-01,-1.562500000000022204e-02,-3.125000000000004441e-01,3.812500000000001776e+00,3.593750000000001776e+00,4.625000000000003553e+00,4.406250000000003553e+00,-1.765625000000001332e+00,-4.703125000000003553e+00,-5.187500000000003553e+00,-3.625000000000003109e+00,2.453125000000000888e+00,6.046875000000003553e+00,6.937500000000004441e+00,4.234375000000002665e+00,5.781250000000006661e-01,-1.125000000000000444e+00,-3.250000000000001776e+00,-1.984375000000001332e+00,-2.531250000000001332e+00,-4.203125000000002665e+00,-4.203125000000002665e+00,-3.812500000000002665e+00,-1.609375000000001110e+00,7.968750000000006661e-01,3.734375000000002665e+00,1.906250000000001332e+00,5.625000000000005551e-01,-1.140625000000000444e+00,-5.625000000000003553e+00,-3.750000000000002220e+00,-4.656250000000003553e+00,-3.265625000000002220e+00,9.687500000000007772e-01,9.062500000000008882e-01,3.343750000000002665e+00,2.890625000000002665e+00,2.593750000000001776e+00,4.031250000000003553e+00,5.140625000000003553e+00,8.515625000000005329e+00,8.546875000000005329e+00,6.390625000000003553e+00,4.265625000000002665e+00,-1.468750000000000666e+00,-4.843750000000002665e+00,-4.453125000000002665e+00,-5.828125000000003553e+00,-3.796875000000002665e+00,-1.015625000000000666e+00,-1.593750000000001332e+00,-1.000000000000000888e+00,-6.562500000000005551e-01,-2.343750000000001776e+00,-2.812500000000001776e+00,-2.187500000000001332e+00,-2.343750000000001332e+00,-7.500000000000003331e-01,1.296875000000000888e+00,2.562500000000001776e+00,3.218750000000001776e+00,2.187500000000001332e+00,-9.375000000000011102e-02,-2.625000000000001776e+00,-3.187500000000001776e+00,-2.875000000000001776e+00,2.187500000000002220e-01,3.218750000000002665e+00,2.265625000000001776e+00,3.000000000000001776e+00,2.187500000000000000e-01,-3.656250000000002665e+00,-1.984375000000001332e+00,-3.125000000000001332e+00,-3.937500000000001776e+00,-1.203125000000000888e+00,-2.906250000000001776e+00,-4.109375000000002665e+00,-3.437500000000004441e-01,-1.562500000000000000e-01,1.546875000000000666e+00,5.593750000000003553e+00,2.734375000000001332e+00,1.265625000000000666e+00,4.843750000000000000e-01,-2.015625000000001776e+00,7.812500000000000000e-02,1.687500000000001110e+00,3.187500000000002220e+00,3.265625000000002220e+00,8.750000000000006661e-01,1.421875000000000666e+00,9.375000000000002220e-01,3.546875000000001776e+00,9.609375000000005329e+00,9.953125000000005329e+00,9.296875000000005329e+00,5.562500000000002665e+00,-4.421875000000002665e+00,-8.968750000000005329e+00,-1.035937500000000711e+01,-9.187500000000005329e+00,-7.812500000000000000e-01,9.796875000000007105e+00,2.548437500000001421e+01,4.567187500000002842e+01,6.721875000000004263e+01,7.248437500000005684e+01,5.381250000000003553e+01,1.437500000000001066e+01
-5.606250000000002842e+01,-8.031250000000004263e+01,-3.656250000000001421e+01,-2.950000000000001066e+01,-1.456250000000000533e+01,3.450000000000001421e+01,3.262500000000001421e+01,-1.737500000000000711e+01,-2.793750000000001066e+01,4.750000000000001776e+00,1.306250000000000533e+01,-3.993750000000001421e+01,-7.968750000000002842e+01,-3.100000000000001421e+01,1.925000000000000355e+01,1.325000000000000178e+01,2.406250000000000711e+01,5.156250000000002132e+01,4.093750000000002132e+01,1.318750000000000533e+01,1.937500000000000888e+00,6.875000000000003331e-01,6.250000000000005551e-02,-3.750000000000001665e-01,-2.500000000000001110e-01,1.250000000000000833e-01,2.500000000000001110e-01,1.875000000000000833e-01,0.000000000000000000e+00,-6.250000000000002776e-02,1.875000000000001110e-01,2.500000000000001110e-01,0.000000000000000000e+00,-1.250000000000000555e-01,-2.500000000000001110e-01,-2.500000000000001110e-01,1.875000000000000833e-01,4.375000000000002220e-01,-6.250000000000000000e-02,-4.375000000000002220e-01,6.250000000000000000e-02,3.125000000000001110e-01,-1.875000000000000833e-01,-2.500000000000001110e-01,1.250000000000000555e-01,0.000000000000000000e+00,-6.250000000000002776e-02,3.750000000000002220e-01,3.750000000000002220e-01,-1.875000000000000833e-01,-6.250000000000003331e-01,-3.750000000000002220e-01,3.125000000000001110e-01,4.375000000000001665e-01,1.875000000000000833e-01,6.250000000000002776e-02,-1.250000000000000555e-01,-2.500000000000001110e-01,-1.875000000000000833e-01,6.250000000000002776e-02,2.500000000000001110e-01,6.250000000000002776e-02,-1.250000000000000555e-01,-6.250000000000002776e-02,-6.250000000000002776e-02,-1.875000000000000833e-01,-6.250000000000002776e-02,3.125000000000001110e-01,3.125000000000001110e-01,-6.250000000000002776e-02,-1.250000000000000555e-01,1.250000000000000555e-01,1.250000000000000555e-01,-1.875000000000001110e-01,-3.125000000000001665e-01,0.000000000000000000e+00,2.500000000000001110e-01,3.750000000000001665e-01,5.750000000000001776e+00,1.562500000000000533e+01,9.750000000000003553e+00,-8.500000000000003553e+00,-5.750000000000001776e+00,1.225000000000000711e+01,1.162500000000000533e+01,-6.125000000000003553e+00,-1.075000000000000533e+01,1.250000000000001332e+00,5.312500000000001776e+00,1.375000000000000222e+00,6.875000000000002220e-01,-3.500000000000001776e+00,-4.812500000000001776e+00,6.562500000000004441e+00,8.812500000000005329e+00,-7.250000000000005329e+00,-1.043750000000000533e+01,6.375000000000001776e+00,1.006250000000000178e+01,-1.562500000000000444e+00,-7.562500000000002665e+00,-7.625000000000003553e+00,-5.625000000000000000e-01,5.437500000000003553e+00,1.687500000000001110e+00,-6.250000000000011102e-02,-4.625000000000002665e+00,-1.000000000000000533e+01,2.250000000000000888e+00,6.875000000000003553e+00,-1.100000000000000355e+01,-1.018750000000000355e+01,1.193750000000000355e+01,1.600000000000000711e+01,-3.625000000000001776e+00,-1.781250000000000711e+01,-5.000000000000001776e+00,9.875000000000003553e+00,3.125000000000000000e-01,-1.075000000000000355e+01,-4.250000000000001776e+00,3.625000000000001332e+00,1.312500000000000444e+00,-2.312500000000000888e+00,-1.500000000000000444e+00,6.250000000000000000e-02,5.000000000000002220e-01,6.250000000000000000e-02,-3.750000000000002220e-01,-1.250000000000000833e-01,1.250000000000000555e-01,6.250000000000002776e-02,6.250000000000002776e-02,1.250000000000000555e-01,-6.250000000000002776e-02,-3.125000000000001665e-01,-1.250000000000000833e-01,-1.875000000000000888e+00,-5.750000000000002665e+00,-4.312500000000001776e+00,4.062500000000001776e+00,1.081250000000000533e+01,4.062500000000002665e+00,-1.081250000000000355e+01,-1.162500000000000533e+01,-6.437500000000003553e+00,-1.750000000000000888e+00,1.287500000000000355e+01,7.750000000000001776e+00,-1.293750000000000533e+01,5.000000000000017764e-01,2.281250000000001421e+01,8.875000000000005329e+00,-1.600000000000000711e+01,-1.431250000000000711e+01,8.687500000000003553e+00,1.400000000000000533e+01,-7.375000000000001776e+00,-1.031250000000000355e+01,7.125000000000003553e+00,9.375000000000008882e-01,-1.262500000000000711e+01,-3.750000000000002665e+00,1.112500000000000355e+01,1.512500000000000711e+01,-3.437500000000001776e+00,-2.681250000000001421e+01,-1.768750000000000711e+01,5.625000000000004441e+00,1.225000000000000711e+01,9.312500000000003553e+00,7.250000000000003553e+00,6.500000000000003553e+00,-6.750000000000001776e+00,-2.450000000000001066e+01,-1.581250000000000711e+01,1.312500000000001998e+00,-1.250000000000000000e-01,-4.937500000000004441e+00,-6.875000000000000000e-01,5.750000000000005329e+00,2.250000000000000444e+00,-6.187500000000005329e+00,4.437500000000002665e+00,2.475000000000001421e+01,1.293750000000000533e+01,-1.912500000000000711e+01,-1.493750000000000533e+01,1.012500000000000711e+01,1.375000000000000888e+00,-1.468750000000000711e+01,2.625000000000002665e+00,2.087500000000000711e+01,1.387500000000000533e+01,3.187500000000001776e+00,1.062500000000000666e+00,7.500000000000003331e-01,1.875000000000000555e-01,2.500000000000001665e-01,3.750000000000002220e-01,4.375000000000002220e-01,5.625000000000002220e-01,6.250000000000002220e-01,4.375000000000001110e-01,8.750000000000003331e-01,3.687500000000001776e+00,4.187500000000001776e+00,8.750000000000003331e-01,1.187500000000000888e+00,5.250000000000002665e+00,1.012500000000000355e+01,2.625000000000000444e+00,-1.156250000000000533e+01,2.187500000000001776e+00,1.606250000000000711e+01,-6.125000000000003553e+00,-1.812500000000000711e+01,-3.749999999999991118e-01,4.062500000000001776e+00,-9.562500000000003553e+00,-1.100000000000000533e+01,3.187500000000002220e+00,1.412500000000000711e+01,5.750000000000002665e+00,-7.500000000000003553e+00,-6.250000000000003553e+00,-8.000000000000003553e+00,-1.062500000000000533e+01,6.875000000000000000e-01,5.750000000000002665e+00,4.375000000000002665e+00,4.500000000000002665e+00,-4.187500000000001776e+00,-6.750000000000003553e+00,3.187500000000001332e+00,6.312500000000002665e+00,6.562500000000002665e+00,9.812500000000003553e+00,-5.875000000000002665e+00,-2.137500000000001066e+01,1.750000000000000000e+00,1.431250000000000711e+01,-3.125000000000000888e+00,-3.062500000000000444e+00,-5.312500000000001776e+00,-8.437500000000003553e+00,1.075000000000000533e+01,1.162500000000000533e+01,-3.562500000000001776e+00,-3.812500000000001776e+00,-2.187500000000000888e+00,-6.375000000000002665e+00,-2.312500000000000888e+00,6.062500000000002665e+00,1.250000000000000888e+00,-1.812500000000000444e+00,3.812500000000001332e+00,-4.375000000000001776e+00,-1.212500000000000355e+01,8.562500000000005329e+00,2.568750000000001421e+01,-2.250000000000000000e+00,-2.081250000000001066e+01,6.625000000000003553e+00,1.125000000000000711e+01,-1.250000000000000711e+01,-2.062500000000000711e+01,-4.687500000000001776e+00,3.156250000000001421e+01,2.762500000000001421e+01,-1.856250000000000711e+01,-2.181250000000000711e+01,8.187500000000003553e+00,1.750000000000000711e+01,5.375000000000003553e+00,-1.206250000000000355e+01,-1.756250000000000711e+01,-3.937500000000001776e+00,1.475000000000000711e+01,1.800000000000000711e+01,-4.375000000000000000e-01,-1.756250000000000711e+01,-7.375000000000002665e+00,6.375000000000002665e+00,1.250000000000004441e-01,-8.750000000000000000e-01,3.812500000000001776e+00,-1.750000000000001110e+00,2.187500000000000888e+00,7.500000000000003553e+00,-7.000000000000002665e+00,-9.937500000000003553e+00,7.750000000000003553e+00,9.312500000000003553e+00,-5.625000000000002665e+00,-9.437500000000003553e+00,4.312500000000001776e+00,1.450000000000000711e+01,-1.375000000000000000e+00,-1.800000000000000711e+01,-1.687500000000000000e+00,1.562500000000000711e+01,4.937500000000002665e+00,-3.187500000000000888e+00,1.062500000000000666e+00,3.312500000000001776e+00,3.187500000000001776e+00,-7.500000000000003553e+00,-1.143750000000000355e+01,9.125000000000003553e+00,2.181250000000000711e+01,5.687500000000003553e+00,-1.800000000000000711e+01,-1.712500000000000711e+01,3.000000000000001332e+00,5.250000000000001776e+00,-9.375000000000004441e-01,3.500000000000001776e+00,-3.750000000000001776e+00,-9.250000000000003553e+00,7.750000000000002665e+00,1.106250000000000355e+01,-3.125000000000000888e+00,-2.500000000000001332e+00,2.499999999999995559e-01,-4.687500000000001776e+00,-6.125000000000001776e+00,-4.437500000000001776e+00,5.000000000000001776e+00,5.250000000000001776e+00,-9.750000000000003553e+00,-4.437500000000001776e+00,6.250000000000002665e+00,-3.500000000000001776e+00,-3.125000000000001776e+00,6.375000000000002665e+00,3.250000000000001776e+00,-4.437500000000001776e+00,-7.250000000000003553e+00,3.437500000000001776e+00,1.200000000000000711e+01,-2.125000000000000888e+00,-1.325000000000000711e+01,6.250000000000088818e-02,1.056250000000000533e+01,-1.250000000000000000e-01,-6.000000000000002665e+00,-2.312500000000000888e+00,-4.187500000000001776e+00,2.562500000000001332e+00,9.750000000000003553e+00,4.375000000000000000e-01,-3.625000000000002220e+00,-1.937500000000001110e+00,-5.562500000000002665e+00,1.437500000000000888e+00,1.056250000000000533e+01,2.312500000000000888e+00,-7.125000000000003553e+00,-3.562500000000001776e+00,2.125000000000000888e+00,1.562500000000000888e+00,-1.062500000000000444e+00,-2.812500000000001332e+00,-3.437500000000001776e+00,1.500000000000000888e+00,5.625000000000003553e+00,-2.812500000000000444e+00,-9.687500000000003553e+00,-1.312500000000000000e+00,4.125000000000002665e+00,9.375000000000006661e-01,-1.062500000000000666e+00,-2.000000000000000888e+00,5.500000000000003553e+00,1.018750000000000533e+01,-1.437500000000000888e+00,-3.125000000000001776e+00,6.437500000000003553e+00,6.250000000000008882e-01,-3.437500000000001776e+00,3.562500000000001776e+00,-3.312500000000001776e+00,-7.500000000000003553e+00,4.125000000000001776e+00,1.812500000000000000e+00,-6.750000000000003553e+00,2.437500000000000888e+00,8.812500000000003553e+00,-4.375000000000000000e-01,-5.875000000000002665e+00,-2.625000000000000888e+00,6.250000000000005551e-02,7.500000000000004441e-01,3.750000000000002220e-01,-1.250000000000000555e-01,-1.250000000000000555e-01,-3.125000000000001110e-01,-3.750000000000001665e-01,-6.250000000000002776e-02,1.875000000000000833e-01,1.875000000000000833e-01,1.250000000000000555e-01,-2.125000000000000888e+00,-8.125000000000003553e+00,-6.437500000000001776e+00,3.375000000000001332e+00,-1.500000000000001332e+00,-7.375000000000003553e+00,7.062500000000002665e+00,1.125000000000000355e+01,-3.687500000000000888e+00,-8.187500000000003553e+00,2.375000000000000888e+00,4.500000000000001776e+00,-1.006250000000000355e+01,-8.500000000000003553e+00,1.450000000000000711e+01,1.325000000000000711e+01,-8.812500000000003553e+00,-1.006250000000000355e+01,2.062500000000000888e+00,7.562500000000003553e+00,4.000000000000000888e+00,-1.093750000000000355e+01,-1.575000000000000533e+01,-1.875000000000000000e-01,1.050000000000000355e+01,1.387500000000000711e+01,1.275000000000000533e+01,-6.250000000000003553e+00,-1.668750000000000711e+01,2.500000000000000000e+00,9.375000000000003553e+00,-5.000000000000001776e+00,-5.812500000000001776e+00,2.375000000000000888e+00,5.437500000000002665e+00,5.000000000000008882e-01,-7.312500000000002665e+00,-5.625000000000001776e+00,-3.750000000000001776e+00,8.125000000000000000e-01,1.075000000000000533e+01,2.000000000000000888e+00,-5.187500000000002665e+00,9.312500000000003553e+00,7.062500000000001776e+00,-1.125000000000000533e+01,-1.275000000000000533e+01,-9.375000000000004441e-01,8.500000000000003553e+00,2.375000000000000888e+00,-5.437500000000002665e+00,2.250000000000001776e+00,6.125000000000003553e+00,5.750000000000002665e+00,7.000000000000002665e+00,-5.187500000000002665e+00,-1.350000000000000533e+01,-1.499999999999999556e+00,6.937500000000003553e+00,3.125000000000001332e+00,-2.812500000000000888e+00,-4.500000000000001776e+00,-5.625000000000006661e-01,-4.000000000000001776e+00,-6.375000000000001776e+00,3.875000000000001776e+00,7.000000000000001776e+00,7.187500000000003553e+00,1.187500000000000711e+01,2.312500000000001776e+00,-8.437500000000003553e+00,-5.375000000000002665e+00,-5.750000000000003553e+00,-3.687500000000001776e+00,6.625000000000003553e+00,5.500000000000002665e+00,-7.500000000000002220e-01,1.500000000000000666e+00,3.250000000000001332e+00,1.187500000000000444e+00,1.250000000000000555e-01,1.875000000000000833e-01,1.875000000000000833e-01,1.250000000000000555e-01,1.250000000000000555e-01,0.000000000000000000e+00,-1.875000000000000833e-01,-2.500000000000001110e-01,-1.250000000000000555e-01,1.875000000000001110e-01,3.125000000000001665e-01,0.000000000000000000e+00,-2.500000000000001110e-01,-1.250000000000000555e-01,0.000000000000000000e+00,1.250000000000000555e-01,1.875000000000000833e-01,-1.250000000000000833e-01,-2.500000000000001110e-01,6.250000000000002776e-02,2.500000000000001110e-01,1.875000000000000833e-01,-6.250000000000002776e-02,-2.500000000000001110e-01,-6.250000000000002776e-02,1.250000000000000555e-01,6.250000000000002776e-02,0.000000000000000000e+00,0.000000000000000000e+00,-6.250000000000002776e-02,-1.250000000000000555e-01,6.250000000000002776e-02,2.500000000000001110e-01,6.250000000000002776e-02,-1.250000000000000555e-01,-6.250000000000002776e-02,0.000000000000000000e+00,0.000000000000000000e+00,1.250000000000000555e-01,1.875000000000000833e-01,-1.875000000000000833e-01,-3.750000000000001665e-01,-6.250000000000002776e-02,6.250000000000002776e-02,6.250000000000002776e-02,1.875000000000000833e-01,1.875000000000000833e-01,0.000000000000000000e+00,-1.250000000000000555e-01,-1.250000000000000555e-01,-1.250000000000000555e-01,6.250000000000002776e-02,3.125000000000001665e-01,1.250000000000000833e-01,-3.125000000000001110e-01,-2.500000000000001110e-01,2.500000000000001110e-01,3.125000000000001110e-01,-6.250000000000002776e-02,-6.250000000000002776e-02,1.875000000000000833e-01,-1.250000000000000555e-01,-4.375000000000002220e-01,6.250000000000000000e-02,3.750000000000001665e-01,1.250000000000000555e-01,1.250000000000000833e-01,6.250000000000005551e-02,-1.387778780781445676e-17,5.000000000000002220e-01,5.625000000000003331e-01,2.000000000000000888e+00,7.500000000000003553e+00,1.087500000000000533e+01,6.750000000000003553e+00,-1.937500000000001332e+00,-7.062500000000003553e+00,-1.687500000000000444e+00,1.375000000000001332e+00,-5.000000000000001110e-01,6.062500000000002665e+00,6.125000000000002665e+00,-3.437500000000001776e+00,-9.750000000000005329e+00,-2.400000000000001066e+01,-3.400000000000001421e+01,9.562500000000007105e+00,8.837500000000004263e+01,8.231250000000002842e+01,-2.037500000000000711e+01,-7.693750000000002842e+01,-4.281250000000001421e+01,3.750000000000008882e-01,5.437500000000003553e+00,-4.000000000000001776e+00,-6.125000000000003553e+00,-2.437500000000001776e+00,9.500000000000003553e+00,9.500000000000003553e+00,-3.187500000000000888e+00,-1.000000000000000000e+00,1.125000000000000444e+00,-4.625000000000002665e+00,-3.250000000000001776e+00,-9.375000000000003331e-01,-1.750000000000000666e+00,1.187500000000000444e+00,7.312500000000002665e+00,6.875000000000000000e-01,-9.000000000000003553e+00,7.500000000000008882e-01,2.062500000000000888e+00,-1.150000000000000533e+01,-4.750000000000001776e+00,6.687500000000003553e+00,4.187500000000001776e+00,2.812500000000001332e+00,3.750000000000000000e-01,5.000000000000000000e-01,7.312500000000002665e+00,8.562500000000003553e+00,3.312500000000001332e+00,-1.875000000000000444e+00,-7.625000000000001776e+00,-1.187500000000000533e+01,-2.250000000000001776e+00,1.387500000000000533e+01,1.356250000000000533e+01,-1.062500000000000444e+00,-1.106250000000000711e+01,-1.306250000000000711e+01,-8.750000000000003553e+00,3.312500000000000888e+00,9.500000000000003553e+00,5.812500000000002665e+00,-1.812500000000001110e+00,-6.250000000000002665e+00,4.125000000000002665e+00,7.812500000000003553e+00,-3.937500000000001332e+00,-1.750000000000000000e+00,4.562500000000002665e+00,-3.875000000000000888e+00,-4.937500000000001776e+00,7.625000000000003553e+00,4.875000000000002665e+00,-1.306250000000000711e+01,-7.875000000000004441e+00,1.037500000000000355e+01,3.812500000000001776e+00,-4.812500000000001776e+00,2.375000000000001776e+00,1.625000000000000888e+00,-8.000000000000003553e+00,-9.500000000000005329e+00,3.750000000000001776e+00,1.150000000000000533e+01,-1.312500000000000888e+00,-4.312500000000001776e+00,7.875000000000003553e+00,8.125000000000008882e-01,-1.118750000000000533e+01,1.937500000000000888e+00,1.368750000000000711e+01,2.187500000000001776e+00,-1.312500000000000533e+01,-1.062500000000000355e+01,7.000000000000002665e+00,1.000000000000000355e+01,-5.062500000000002665e+00,-9.062500000000003553e+00,-4.375000000000000000e-01,1.562500000000000888e+00,1.687500000000000888e+00,9.187500000000003553e+00,5.875000000000002665e+00,-5.500000000000002665e+00,-8.062500000000003553e+00,-7.375000000000003553e+00,-1.875000000000000000e-01,5.812500000000003553e+00,4.250000000000001776e+00,4.625000000000001776e+00,-2.562500000000001776e+00,-8.000000000000003553e+00,-1.437500000000000222e+00,1.062500000000000444e+00,1.875000000000000666e+00,4.625000000000001776e+00,3.875000000000001776e+00,2.875000000000001332e+00,-2.250000000000000888e+00,-8.062500000000003553e+00,-7.500000000000000000e-01,2.562500000000001776e+00,-2.625000000000000888e+00,4.250000000000001776e+00,4.250000000000001776e+00,-6.875000000000003553e+00,-2.937500000000001776e+00,8.062500000000003553e+00,7.187500000000003553e+00,-4.375000000000001776e+00,-1.087500000000000533e+01,-8.125000000000008882e-01,8.312500000000003553e+00,-3.125000000000001776e+00,-9.937500000000005329e+00,4.250000000000001776e+00,7.687500000000003553e+00,8.125000000000003331e-01,1.437500000000000444e+00,-3.375000000000001332e+00,-4.687500000000001776e+00,1.125000000000000222e+00,6.250000000000000000e-01,1.750000000000000666e+00,-1.500000000000000888e+00,-3.500000000000001776e+00,7.250000000000003553e+00,5.625000000000002665e+00,-5.750000000000002665e+00,-5.062500000000001776e+00,-3.125000000000001110e-01,-2.250000000000001332e+00,-3.062500000000001332e+00,6.250000000000003553e+00,6.562500000000003553e+00,-7.812500000000003553e+00,-1.206250000000000355e+01,-1.124999999999999556e+00,1.456250000000000533e+01,1.556250000000000533e+01,-2.312500000000000888e+00,-9.312500000000003553e+00,-3.187500000000001332e+00,-5.625000000000004441e-01,3.375000000000001776e+00,2.937500000000001332e+00,-7.750000000000003553e+00,-1.037500000000000533e+01,3.500000000000000888e+00,9.625000000000003553e+00,-1.062500000000000444e+00,3.750000000000000000e-01,7.875000000000003553e+00,-2.625000000000001776e+00,-6.187500000000003553e+00,3.437500000000001332e+00,3.749999999999995559e-01,-8.250000000000003553e+00,-5.250000000000001776e+00,5.375000000000001776e+00,4.562500000000000888e+00,-4.500000000000002665e+00,3.062500000000001776e+00,1.075000000000000533e+01,-1.750000000000000888e+00,-1.281250000000000711e+01,-4.875000000000002665e+00,1.050000000000000355e+01,6.250000000000002665e+00,-6.812500000000003553e+00,2.187500000000000888e+00,8.062500000000003553e+00,-8.937500000000005329e+00,-1.062500000000000533e+01,1.081250000000000533e+01,1.362500000000000711e+01,-3.312500000000000888e+00,-9.562500000000003553e+00,-9.062500000000003553e+00,-3.125000000000000888e+00,1.231250000000000355e+01,1.118750000000000355e+01,-4.000000000000001776e+00,-8.687500000000003553e+00,-7.125000000000003553e+00,-5.625000000000008882e-01,4.625000000000001776e+00,2.875000000000001332e+00,8.250000000000003553e+00,4.687500000000001776e+00,-1.225000000000000533e+01,-5.625000000000001776e+00,1.237500000000000533e+01,4.437500000000001776e+00,-8.000000000000003553e+00,-3.062500000000001332e+00,6.249999999999977796e-02,-2.750000000000001776e+00,-2.562500000000000888e+00,6.875000000000006661e-01,1.812500000000000888e+00,2.500000000000000555e-01,4.125000000000001776e+00,8.125000000000000000e-01,-5.312500000000002665e+00,7.125000000000002665e+00,1.093750000000000355e+01,-7.437500000000002665e+00,-1.425000000000000711e+01,-1.812500000000000888e+00,4.875000000000002665e+00,4.375000000000001776e+00,6.000000000000002665e+00,-4.000000000000001776e+00,-1.387500000000000711e+01,6.250000000000000000e-01,1.543750000000000711e+01,3.312500000000001776e+00,-1.093750000000000533e+01,4.375000000000000000e-01,1.068750000000000533e+01,-8.125000000000008882e-01,-4.562500000000002665e+00,1.437500000000000666e+00,-5.500000000000002665e+00,-6.750000000000003553e+00,4.250000000000001776e+00,7.250000000000003553e+00,1.937500000000000888e+00,-4.750000000000001776e+00,-4.750000000000001776e+00,3.125000000000001110e-01,2.125000000000000888e+00,9.375000000000004441e-01,1.875000000000000833e-01,5.000000000000001776e+00,4.375000000000001776e+00,-4.687500000000001776e+00,-3.125000000000001332e+00,3.187500000000001332e+00,4.000000000000001776e+00,3.312500000000001776e+00,-5.375000000000003553e+00,-1.331250000000000711e+01,-4.750000000000002665e+00,5.562500000000002665e+00,7.750000000000003553e+00,1.006250000000000355e+01,2.250000000000000000e+00,-1.343750000000000533e+01,-7.437500000000002665e+00,9.750000000000003553e+00,5.687500000000002665e+00,-3.000000000000000888e+00,-2.500000000000000888e+00,-5.062500000000002665e+00,-1.062500000000000444e+00,4.937500000000001776e+00,1.062500000000000444e+00,-1.250000000000000444e+00,-2.500000000000001665e-01,5.625000000000002220e-01,4.062500000000001776e+00,3.750000000000001776e+00,-6.187500000000003553e+00,-7.250000000000003553e+00,6.750000000000003553e+00,1.087500000000000533e+01,7.500000000000004441e-01,-8.125000000000003553e+00,-8.875000000000003553e+00,-2.125000000000000888e+00,2.687500000000001332e+00,3.312500000000001776e+00,2.875000000000001332e+00,-4.062500000000001776e+00,-7.812500000000002665e+00,3.312500000000002665e+00,1.293750000000000711e+01,5.500000000000003553e+00,-5.937500000000001776e+00,-7.187500000000002665e+00,-4.375000000000001776e+00,-4.562500000000001776e+00,-3.250000000000001332e+00,4.062500000000001776e+00,6.812500000000002665e+00,3.437500000000001776e+00,4.125000000000001776e+00,-6.250000000000008882e-01,-6.062500000000002665e+00,3.312500000000001776e+00,6.062500000000002665e+00,-7.312500000000003553e+00,-6.187500000000002665e+00,8.250000000000003553e+00,3.937500000000002220e+00,-5.812500000000002665e+00,-1.875000000000000888e+00,-4.562500000000001776e+00,-6.625000000000001776e+00,9.187500000000003553e+00,1.550000000000000533e+01,6.250000000000000000e-01,-1.137500000000000533e+01,-1.200000000000000533e+01,-3.937500000000001776e+00,9.625000000000003553e+00,1.387500000000000711e+01,1.250000000000000888e+00,-9.562500000000003553e+00,-4.750000000000001776e+00,-1.000000000000000444e+00,6.250000000000000000e-02,6.125000000000002665e+00,1.500000000000000000e+00,-5.625000000000003553e+00,-3.187500000000001332e+00,-6.249999999999977796e-02,8.187500000000003553e+00,9.250000000000003553e+00,-4.437500000000001776e+00,-5.875000000000002665e+00,-1.625000000000000444e+00,-8.500000000000003553e+00,-3.500000000000002220e+00,1.350000000000000533e+01,1.256250000000000355e+01,-3.250000000000000888e+00,-8.500000000000003553e+00,-3.937500000000001776e+00,2.000000000000000444e+00,6.687500000000002665e+00,-1.437500000000000000e+00,-8.125000000000003553e+00,2.187500000000000888e+00,3.437500000000000888e+00,-9.750000000000003553e+00,-4.625000000000001776e+00,1.281250000000000533e+01,8.437500000000003553e+00,-6.500000000000002665e+00,-8.437500000000003553e+00,8.750000000000008882e-01,5.812500000000002665e+00,-3.750000000000001776e+00,-6.312500000000002665e+00,4.375000000000004441e-01,6.875000000000006661e-01,5.125000000000001776e+00,7.250000000000002665e+00,-5.125000000000002665e+00,-1.006250000000000533e+01,5.125000000000001776e+00,1.187500000000000533e+01,-3.125000000000000000e-01,-6.875000000000000000e-01,6.437500000000003553e+00,-1.437500000000000444e+00,-5.062500000000001776e+00,-2.000000000000000888e+00,-5.187500000000002665e+00,1.625000000000000000e+00,6.312500000000001776e+00,-5.875000000000003553e+00,-3.625000000000001776e+00,8.000000000000003553e+00,-1.625000000000001776e+00,-7.625000000000004441e+00,4.187500000000001776e+00,1.750000000000000888e+00,-8.187500000000003553e+00,1.375000000000000888e+00,9.000000000000003553e+00,-2.875000000000002220e+00,-5.000000000000002665e+00,9.062500000000003553e+00,4.812500000000001776e+00,-1.337500000000000533e+01,-8.312500000000003553e+00,8.875000000000003553e+00,4.875000000000002665e+00,-1.375000000000000666e+00,4.625000000000001776e+00,-2.437500000000001776e+00,-6.437500000000003553e+00,4.937500000000001776e+00,-1.187500000000001776e+00,-7.625000000000003553e+00,5.375000000000003553e+00,4.062500000000002665e+00,-5.750000000000002665e+00,-3.562500000000001776e+00,-2.875000000000001332e+00,3.812500000000002220e+00,9.250000000000005329e+00,-3.875000000000001776e+00,-2.750000000000001776e+00,9.000000000000003553e+00,-4.875000000000003553e+00,-1.350000000000000711e+01,6.937500000000003553e+00,1.362500000000000711e+01,-4.812500000000002665e+00,-5.312500000000002665e+00,6.625000000000002665e+00,-2.750000000000001776e+00,-7.437500000000003553e+00,5.375000000000002665e+00,8.000000000000003553e+00,6.375000000000003553e+00,5.125000000000003553e+00,-3.000000000000001776e+00,-5.562500000000003553e+00,-7.812500000000004441e+00,-1.081250000000000533e+01,6.875000000000008882e-01,1.225000000000000711e+01,8.312500000000003553e+00,-3.750000000000001776e+00,-6.250000000000001776e+00,2.950000000000001421e+01,8.212500000000004263e+01,4.900000000000002842e+01
-1.080000000000000284e+02,2.500000000000000555e-01,0.000000000000000000e+00,0.000000000000000000e+00,-3.925000000000000711e+01,3.875000000000000711e+01,2.225000000000000355e+01,-2.650000000000000355e+01,-1.275000000000000355e+01,1.275000000000000355e+01,-2.500000000000000888e+00,3.000000000000000711e+01,-9.100000000000001421e+01,2.150000000000000711e+01,2.375000000000000355e+01,-1.400000000000000355e+01,-4.500000000000000000e+00,3.850000000000000711e+01,1.500000000000000444e+00,1.250000000000000444e+00,2.500000000000000555e-01,-2.500000000000000555e-01,7.500000000000002220e-01,-1.000000000000000222e+00,5.000000000000001110e-01,-2.500000000000000555e-01,2.500000000000000555e-01,0.000000000000000000e+00,0.000000000000000000e+00,0.000000000000000000e+00,-2.500000000000000555e-01,7.500000000000002220e-01,-7.500000000000002220e-01,5.000000000000001110e-01,-2.500000000000000555e-01,-2.500000000000000555e-01,2.500000000000000555e-01,0.000000000000000000e+00,5.000000000000001110e-01,-1.000000000000000222e+00,5.000000000000001110e-01,2.500000000000000555e-01,-2.500000000000000555e-01,-2.500000000000000555e-01,2.500000000000000555e-01,2.500000000000000555e-01,-7.500000000000002220e-01,7.500000000000002220e-01,0.000000000000000000e+00,-2.500000000000000555e-01,2.500000000000000555e-01,-1.000000000000000222e+00,1.000000000000000222e+00,-2.500000000000000555e-01,0.000000000000000000e+00,2.500000000000000555e-01,-2.500000000000000555e-01,0.000000000000000000e+00,0.000000000000000000e+00,-2.500000000000000555e-01,5.000000000000001110e-01,-2.500000000000000555e-01,0.000000000000000000e+00,0.000000000000000000e+00,0.000000000000000000e+00,0.000000000000000000e+00,-2.500000000000000555e-01,2.500000000000000555e-01,2.500000000000000555e-01,-2.500000000000000555e-01,0.000000000000000000e+00,0.000000000000000000e+00,2.500000000000000555e-01,-2.500000000000000555e-01,0.000000000000000000e+00,-2.500000000000000555e-01,5.000000000000001110e-01,-2.500000000000000555e-01,0.000000000000000000e+00,1.250000000000000222e+00,1.850000000000000355e+01,-1.875000000000000355e+01,-2.000000000000000444e+00,1.125000000000000178e+01,5.000000000000000000e-01,6.250000000000001776e+00,-2.450000000000000711e+01,2.275000000000000711e+01,-1.250000000000000355e+01,1.025000000000000355e+01,-1.125000000000000355e+01,1.625000000000000355e+01,-2.325000000000000355e+01,1.625000000000000355e+01,1.500000000000001776e+00,-5.000000000000000000e-01,-1.350000000000000355e+01,5.750000000000001776e+00,1.675000000000000355e+01,-2.150000000000000355e+01,1.625000000000000355e+01,-1.500000000000000355e+01,1.500000000000000222e+00,1.000000000000000355e+01,-7.500000000000002665e+00,7.500000000000000000e-01,7.250000000000002665e+00,-1.375000000000000355e+01,-2.500000000000000888e+00,2.275000000000000355e+01,-1.925000000000000355e+01,-8.250000000000001776e+00,1.600000000000000355e+01,-1.000000000000000000e+00,8.000000000000001776e+00,-1.775000000000000355e+01,-3.500000000000000888e+00,1.825000000000000355e+01,-9.000000000000001776e+00,-2.250000000000000444e+00,-5.250000000000000888e+00,9.250000000000001776e+00,-4.500000000000000888e+00,2.500000000000000555e-01,-5.000000000000001110e-01,0.000000000000000000e+00,5.000000000000001110e-01,0.000000000000000000e+00,-5.000000000000001110e-01,2.500000000000000555e-01,0.000000000000000000e+00,0.000000000000000000e+00,0.000000000000000000e+00,0.000000000000000000e+00,2.500000000000000555e-01,-5.000000000000001110e-01,2.500000000000000555e-01,-2.500000000000000555e-01,7.500000000000002220e-01,-9.500000000000001776e+00,1.125000000000000178e+01,-8.000000000000001776e+00,1.800000000000000355e+01,-1.625000000000000355e+01,-6.000000000000000888e+00,1.425000000000000355e+01,-2.050000000000000355e+01,1.100000000000000355e+01,2.100000000000000355e+01,-3.075000000000000711e+01,4.500000000000001776e+00,1.975000000000000355e+01,-2.000000000000000000e+00,-6.500000000000001776e+00,-1.000000000000000178e+01,3.250000000000000000e+00,1.775000000000000355e+01,-9.250000000000001776e+00,-1.650000000000000355e+01,1.775000000000000355e+01,6.000000000000000888e+00,-2.675000000000000711e+01,2.025000000000000355e+01,-1.275000000000000355e+01,1.550000000000000355e+01,4.750000000000000000e+00,-2.075000000000000355e+01,-8.500000000000001776e+00,1.675000000000000355e+01,-8.500000000000001776e+00,1.075000000000000178e+01,-1.500000000000000444e+00,-4.000000000000000888e+00,1.950000000000000355e+01,-3.275000000000000711e+01,4.500000000000000000e+00,6.500000000000001776e+00,-4.750000000000001776e+00,0.000000000000000000e+00,-2.500000000000000000e+00,2.750000000000001776e+00,6.000000000000000888e+00,-7.500000000000002665e+00,-5.500000000000000000e+00,1.550000000000000355e+01,1.275000000000000355e+01,-1.550000000000000355e+01,-1.925000000000000711e+01,2.700000000000000711e+01,-3.000000000000000888e+00,-1.700000000000000355e+01,2.750000000000000000e+00,1.725000000000000355e+01,-4.000000000000000888e+00,2.000000000000000444e+00,-2.500000000000000555e-01,5.000000000000001110e-01,-2.500000000000000555e-01,0.000000000000000000e+00,5.000000000000001110e-01,-5.000000000000001110e-01,7.500000000000002220e-01,-2.500000000000000555e-01,2.500000000000000555e-01,5.000000000000001110e-01,-1.500000000000000444e+00,5.750000000000000888e+00,-1.500000000000000000e+00,-6.250000000000001776e+00,1.600000000000000355e+01,-2.150000000000000711e+01,3.750000000000000711e+01,-3.825000000000000711e+01,8.500000000000001776e+00,2.075000000000000355e+01,-9.750000000000001776e+00,-1.700000000000000355e+01,1.050000000000000355e+01,5.750000000000000888e+00,-9.750000000000001776e+00,-4.250000000000000888e+00,3.750000000000000888e+00,-2.500000000000000555e-01,1.800000000000000355e+01,-2.475000000000000711e+01,1.125000000000000355e+01,1.750000000000000000e+00,-1.850000000000000355e+01,1.125000000000000355e+01,5.250000000000001776e+00,-1.350000000000000355e+01,1.900000000000000355e+01,-9.750000000000001776e+00,-8.250000000000001776e+00,1.225000000000000355e+01,-6.500000000000001776e+00,8.000000000000001776e+00,-8.500000000000001776e+00,2.600000000000000355e+01,-3.925000000000000711e+01,3.500000000000000000e+00,4.050000000000001421e+01,-4.500000000000001421e+01,1.950000000000000355e+01,1.400000000000000355e+01,-4.575000000000001421e+01,4.475000000000001421e+01,-1.375000000000000355e+01,-1.500000000000000444e+00,1.750000000000000444e+00,-2.000000000000000444e+00,2.000000000000000444e+00,-1.025000000000000178e+01,9.750000000000001776e+00,7.250000000000001776e+00,-2.425000000000000711e+01,2.975000000000000711e+01,-1.950000000000000711e+01,4.500000000000001776e+00,-1.325000000000000355e+01,2.575000000000000711e+01,1.225000000000000178e+01,-5.225000000000001421e+01,3.675000000000000711e+01,8.500000000000001776e+00,-3.125000000000000711e+01,2.425000000000000711e+01,-3.025000000000000711e+01,9.500000000000001776e+00,5.900000000000000711e+01,-7.000000000000001421e+01,2.875000000000000711e+01,-1.475000000000000355e+01,2.025000000000000355e+01,-4.750000000000000000e+00,-2.250000000000000888e+00,-7.250000000000001776e+00,-7.000000000000001776e+00,1.500000000000000355e+01,-2.500000000000000000e+00,1.425000000000000355e+01,-2.300000000000000355e+01,-2.500000000000008882e-01,1.425000000000000355e+01,-7.250000000000001776e+00,-7.000000000000001776e+00,1.525000000000000355e+01,-7.750000000000001776e+00,-1.000000000000000178e+01,2.550000000000000711e+01,-1.750000000000000355e+01,-5.250000000000000888e+00,6.000000000000000888e+00,1.225000000000000355e+01,-1.550000000000000355e+01,7.000000000000001776e+00,-1.250000000000000355e+01,2.000000000000000355e+01,-2.500000000000000000e-01,-1.800000000000000355e+01,5.000000000000000000e-01,1.500000000000000355e+01,2.500000000000000000e+00,-2.150000000000000355e+01,3.025000000000000711e+01,-2.975000000000000711e+01,2.525000000000000711e+01,-8.750000000000001776e+00,-1.500000000000000355e+01,1.125000000000000355e+01,9.000000000000003553e+00,1.750000000000000000e+00,-3.750000000000001776e+00,-2.000000000000000355e+01,1.450000000000000355e+01,6.750000000000000888e+00,-1.825000000000000355e+01,1.550000000000000355e+01,2.250000000000000000e+00,-2.175000000000000355e+01,1.475000000000000355e+01,1.000000000000000355e+01,-1.275000000000000355e+01,-2.000000000000000444e+00,1.725000000000000355e+01,-2.600000000000000711e+01,2.225000000000000711e+01,-1.875000000000000711e+01,3.750000000000001332e+00,1.675000000000000355e+01,-1.675000000000000355e+01,-8.750000000000001776e+00,2.575000000000000711e+01,-1.800000000000000355e+01,-5.750000000000000888e+00,2.275000000000000711e+01,-2.275000000000000711e+01,2.100000000000000355e+01,-1.975000000000000355e+01,3.500000000000000888e+00,1.425000000000000355e+01,-6.250000000000000888e+00,-6.750000000000001776e+00,-4.500000000000000888e+00,1.625000000000000355e+01,-4.500000000000000888e+00,-1.250000000000000355e+01,1.600000000000000355e+01,-1.125000000000000355e+01,-5.750000000000000888e+00,2.225000000000000711e+01,-1.525000000000000355e+01,7.500000000000000000e-01,7.000000000000001776e+00,-8.250000000000001776e+00,-4.500000000000000888e+00,1.650000000000000355e+01,-7.250000000000001776e+00,-1.500000000000000444e+00,-2.750000000000000444e+00,4.000000000000000888e+00,-5.000000000000002220e-01,-1.000000000000000222e+00,0.000000000000000000e+00,-2.500000000000000555e-01,-5.750000000000001776e+00,1.175000000000000355e+01,-5.500000000000000888e+00,-2.750000000000000444e+00,-8.500000000000001776e+00,2.200000000000000355e+01,-2.575000000000000711e+01,2.425000000000000711e+01,-1.825000000000000355e+01,4.250000000000000888e+00,1.325000000000000355e+01,-7.750000000000001776e+00,-6.500000000000000888e+00,9.500000000000001776e+00,6.250000000000000888e+00,-2.250000000000000711e+01,2.350000000000000711e+01,-7.250000000000000888e+00,-1.400000000000000355e+01,1.475000000000000355e+01,5.000000000000000000e-01,-1.075000000000000178e+01,2.250000000000000000e+00,1.175000000000000355e+01,-8.250000000000001776e+00,-5.000000000000001110e-01,5.000000000000001110e-01,-1.250000000000000222e+00,1.750000000000000444e+00,-7.500000000000002220e-01,0.000000000000000000e+00,2.500000000000000555e-01,-2.500000000000000555e-01,-2.500000000000000555e-01,2.500000000000000555e-01,-2.500000000000000555e-01,5.000000000000001110e-01,-5.000000000000001110e-01,5.000000000000001110e-01,-2.500000000000000555e-01,-9.000000000000001776e+00,3.500000000000000888e+00,1.475000000000000355e+01,-3.025000000000000711e+01,2.150000000000000355e+01,3.500000000000000888e+00,-8.500000000000001776e+00,2.250000000000000444e+00,-8.250000000000001776e+00,1.725000000000000355e+01,-1.050000000000000355e+01,-1.275000000000000355e+01,1.300000000000000355e+01,1.525000000000000355e+01,-1.950000000000000355e+01,2.500000000000000000e-01,6.750000000000001776e+00,-6.000000000000001776e+00,1.025000000000000355e+01,-2.000000000000000444e+00,-2.025000000000000355e+01,1.425000000000000355e+01,-7.500000000000000000e-01,-2.500000000000000000e-01,1.075000000000000178e+01,2.750000000000000888e+00,-2.275000000000000711e+01,6.750000000000001776e+00,2.100000000000000711e+01,-2.625000000000000711e+01,1.225000000000000355e+01,-2.250000000000000888e+00,-3.750000000000000888e+00,1.525000000000000355e+01,-2.000000000000000355e+01,7.750000000000000888e+00,2.500000000000000444e+00,-1.425000000000000355e+01,1.600000000000000355e+01,7.000000000000001776e+00,-2.650000000000000711e+01,2.225000000000000355e+01,5.250000000000000888e+00,-1.825000000000000355e+01,7.250000000000001776e+00,-7.750000000000001776e+00,4.250000000000000000e+00,1.500000000000000355e+01,-2.775000000000000711e+01,2.125000000000000355e+01,-4.500000000000000888e+00,-4.500000000000001776e+00,1.225000000000000355e+01,-2.250000000000000000e+00,-1.400000000000000355e+01,4.250000000000000000e+00,9.750000000000003553e+00,-1.225000000000000355e+01,1.525000000000000355e+01,-1.825000000000000711e+01,9.500000000000003553e+00,4.750000000000000888e+00,-2.050000000000000355e+01,1.775000000000000355e+01,-2.000000000000000444e+00,-5.750000000000001776e+00,1.250000000000000355e+01,3.500000000000000888e+00,-1.650000000000000355e+01,1.000000000000000178e+01,-1.250000000000000222e+00,-1.400000000000000355e+01,1.700000000000000355e+01,-3.750000000000000888e+00,-3.250000000000000888e+00,3.500000000000000888e+00,5.000000000000001110e-01,-2.500000000000000555e-01,2.500000000000000555e-01,-2.500000000000000555e-01,5.000000000000001110e-01,-5.000000000000001110e-01,5.000000000000001110e-01,-2.500000000000000555e-01,0.000000000000000000e+00,0.000000000000000000e+00,-2.500000000000000555e-01,2.500000000000000555e-01,0.000000000000000000e+00,2.500000000000000555e-01,-5.000000000000001110e-01,2.500000000000000555e-01,0.000000000000000000e+00,-2.500000000000000555e-01,5.000000000000001110e-01,-2.500000000000000555e-01,-2.500000000000000555e-01,2.500000000000000555e-01,0.000000000000000000e+00,0.000000000000000000e+00,2.500000000000000555e-01,-5.000000000000001110e-01,2.500000000000000555e-01,0.000000000000000000e+00,0.000000000000000000e+00,0.000000000000000000e+00,0.000000000000000000e+00,0.000000000000000000e+00,0.000000000000000000e+00,-2.500000000000000555e-01,5.000000000000001110e-01,-2.500000000000000555e-01,0.000000000000000000e+00,0.000000000000000000e+00,0.000000000000000000e+00,0.000000000000000000e+00,0.000000000000000000e+00,0.000000000000000000e+00,5.000000000000001110e-01,-1.250000000000000444e+00,1.250000000000000444e+00,-1.000000000000000222e+00,7.500000000000002220e-01,-5.000000000000001110e-01,5.000000000000001110e-01,-2.500000000000000555e-01,0.000000000000000000e+00,0.000000000000000000e+00,0.000000000000000000e+00,-2.500000000000000555e-01,5.000000000000001110e-01,-2.500000000000000555e-01,2.500000000000000555e-01,-7.500000000000002220e-01,7.500000000000002220e-01,-2.500000000000000555e-01,2.500000000000000555e-01,-5.000000000000001110e-01,5.000000000000001110e-01,0.000000000000000000e+00,-5.000000000000001110e-01,0.000000000000000000e+00,7.500000000000002220e-01,-7.500000000000002220e-01,5.000000000000001110e-01,0.000000000000000000e+00,-2.500000000000000555e-01,0.000000000000000000e+00,1.000000000000000222e+00,-1.000000000000000222e+00,5.000000000000001110e-01,8.000000000000001776e+00,-2.000000000000000000e+00,2.500000000000000000e+00,-3.500000000000000888e+00,-8.750000000000001776e+00,1.975000000000000355e+01,-2.175000000000000355e+01,1.250000000000000355e+01,8.250000000000001776e+00,-1.650000000000000355e+01,1.275000000000000178e+01,-1.125000000000000178e+01,-1.275000000000000355e+01,-1.200000000000000355e+01,2.075000000000000711e+01,8.950000000000001421e+01,-6.825000000000001421e+01,-5.750000000000000000e+00,-2.775000000000000711e+01,2.125000000000000355e+01,1.500000000000000888e+00,-1.525000000000000355e+01,1.650000000000000355e+01,-1.775000000000000355e+01,7.000000000000001776e+00,1.800000000000000355e+01,-2.150000000000000711e+01,5.750000000000001776e+00,1.425000000000000355e+01,-2.750000000000000711e+01,2.750000000000000711e+01,-2.625000000000000711e+01,2.275000000000000711e+01,-1.975000000000000355e+01,1.300000000000000355e+01,6.500000000000000888e+00,-1.850000000000000355e+01,5.500000000000001776e+00,1.400000000000000178e+01,-1.850000000000000355e+01,-5.250000000000001776e+00,2.450000000000000711e+01,-2.550000000000000711e+01,2.125000000000000711e+01,-8.000000000000001776e+00,-6.750000000000001776e+00,1.700000000000000355e+01,-1.475000000000000355e+01,2.125000000000000355e+01,-2.350000000000000711e+01,2.175000000000000711e+01,-2.375000000000000711e+01,6.750000000000001776e+00,4.500000000000000888e+00,5.750000000000001776e+00,2.250000000000000000e+00,-1.400000000000000355e+01,1.075000000000000355e+01,-1.800000000000000355e+01,9.000000000000001776e+00,8.000000000000001776e+00,-1.150000000000000355e+01,1.800000000000000355e+01,-2.075000000000000711e+01,5.750000000000001776e+00,1.600000000000000355e+01,-1.700000000000000355e+01,1.000000000000000444e+00,1.250000000000000178e+01,-1.100000000000000178e+01,2.500000000000000000e-01,-1.500000000000000222e+00,1.625000000000000355e+01,-1.550000000000000355e+01,-1.025000000000000178e+01,1.825000000000000355e+01,2.750000000000000000e+00,-2.250000000000000711e+01,2.600000000000000711e+01,-1.750000000000000355e+01,1.075000000000000355e+01,-1.300000000000000355e+01,-5.000000000000000000e-01,1.650000000000000355e+01,-6.750000000000001776e+00,-1.100000000000000178e+01,1.375000000000000355e+01,4.250000000000000888e+00,-1.725000000000000355e+01,2.750000000000000888e+00,1.700000000000000355e+01,-1.200000000000000178e+01,7.000000000000001776e+00,-1.800000000000000355e+01,8.500000000000001776e+00,1.550000000000000355e+01,-2.000000000000000711e+01,1.100000000000000355e+01,-1.475000000000000355e+01,2.125000000000000355e+01,-2.225000000000000711e+01,1.575000000000000355e+01,7.000000000000000888e+00,-1.800000000000000355e+01,1.275000000000000355e+01,-8.750000000000001776e+00,-8.750000000000003553e+00,2.500000000000000711e+01,-2.600000000000000711e+01,2.100000000000000711e+01,-2.250000000000000888e+00,-1.950000000000000355e+01,2.325000000000000711e+01,-2.000000000000000355e+01,1.500000000000000355e+01,-9.250000000000001776e+00,1.125000000000000355e+01,-1.100000000000000355e+01,1.400000000000000355e+01,-1.425000000000000355e+01,-3.250000000000000888e+00,2.125000000000000711e+01,-2.550000000000000711e+01,1.200000000000000355e+01,1.275000000000000355e+01,-2.525000000000000711e+01,1.900000000000000711e+01,-1.500000000000000355e+01,2.250000000000000711e+01,-1.850000000000000355e+01,8.750000000000001776e+00,-1.650000000000000355e+01,2.150000000000000711e+01,-6.750000000000001776e+00,-1.150000000000000178e+01,4.500000000000000888e+00,1.675000000000000355e+01,-2.425000000000000711e+01,2.075000000000000711e+01,-5.750000000000001776e+00,-1.550000000000000355e+01,2.425000000000000711e+01,-2.050000000000000355e+01,8.750000000000001776e+00,9.000000000000001776e+00,-2.375000000000000711e+01,2.050000000000000355e+01,1.750000000000000888e+00,-1.500000000000000355e+01,1.375000000000000355e+01,-1.550000000000000355e+01,1.750000000000000355e+01,-1.825000000000000355e+01,7.250000000000000888e+00,1.375000000000000355e+01,-1.800000000000000355e+01,5.000000000000001776e+00,-5.500000000000001776e+00,2.000000000000000888e+00,1.850000000000000355e+01,-1.075000000000000355e+01,-8.250000000000001776e+00,1.225000000000000355e+01,-1.225000000000000355e+01,6.500000000000001776e+00,4.500000000000000888e+00,-6.750000000000001776e+00,-2.000000000000000444e+00,-7.000000000000000888e+00,2.100000000000000355e+01,-1.325000000000000355e+01,-4.500000000000000888e+00,1.625000000000000355e+01,-4.500000000000000888e+00,-1.675000000000000355e+01,2.300000000000000711e+01,-1.450000000000000355e+01,5.250000000000000888e+00,-7.750000000000001776e+00,1.500000000000000888e+00,1.300000000000000355e+01,-1.375000000000000355e+01,-3.000000000000000000e+00,2.300000000000000711e+01,-1.975000000000000355e+01,9.750000000000001776e+00,-1.650000000000000355e+01,1.225000000000000355e+01,1.125000000000000178e+01,-2.025000000000000355e+01,6.000000000000000888e+00,1.300000000000000355e+01,-9.500000000000001776e+00,-1.150000000000000178e+01,9.250000000000001776e+00,1.450000000000000355e+01,-1.475000000000000355e+01,1.000000000000000222e+00,4.000000000000000888e+00,-1.575000000000000355e+01,1.350000000000000355e+01,1.100000000000000178e+01,-1.675000000000000355e+01,7.500000000000001776e+00,-3.000000000000000888e+00,-1.175000000000000355e+01,2.325000000000000711e+01,-2.025000000000000355e+01,1.000000000000000178e+01,1.175000000000000355e+01,-1.625000000000000355e+01,-6.500000000000000888e+00,1.750000000000000355e+01,-2.500000000000000000e-01,-1.225000000000000355e+01,4.750000000000000888e+00,6.000000000000000888e+00,-1.550000000000000355e+01,1.950000000000000355e+01,-2.475000000000000711e+01,2.775000000000000711e+01,-2.225000000000000711e+01,9.250000000000001776e+00,1.125000000000000178e+01,-2.275000000000000711e+01,1.200000000000000355e+01,1.300000000000000355e+01,-1.575000000000000355e+01,3.500000000000000888e+00,-1.325000000000000355e+01,2.500000000000000711e+01,-2.600000000000000711e+01,2.300000000000000711e+01,-5.250000000000000888e+00,-1.400000000000000355e+01,5.500000000000000888e+00,4.500000000000000888e+00,1.275000000000000355e+01,-2.425000000000000711e+01,1.025000000000000178e+01,5.250000000000000888e+00,3.500000000000000888e+00,-1.950000000000000711e+01,2.250000000000000711e+01,-1.050000000000000178e+01,-1.275000000000000355e+01,2.150000000000000711e+01,-1.700000000000000355e+01,1.750000000000000355e+01,-1.225000000000000355e+01,-1.750000000000000000e+00,8.500000000000001776e+00,-1.100000000000000355e+01,1.350000000000000355e+01,-1.175000000000000355e+01,5.250000000000000888e+00,7.250000000000001776e+00,-7.000000000000001776e+00,-7.250000000000001776e+00,1.800000000000000355e+01,-2.025000000000000355e+01,2.175000000000000711e+01,-1.425000000000000355e+01,2.750000000000000888e+00,-1.375000000000000355e+01,2.050000000000000711e+01,-1.525000000000000355e+01,1.250000000000000355e+01,4.250000000000000888e+00,-1.125000000000000178e+01,-6.250000000000001776e+00,9.250000000000001776e+00,1.150000000000000355e+01,-2.625000000000000711e+01,2.800000000000000711e+01,-2.175000000000000711e+01,2.500000000000000888e+00,1.450000000000000355e+01,-1.825000000000000355e+01,1.750000000000000355e+01,-1.675000000000000355e+01,1.550000000000000355e+01,-1.425000000000000355e+01,1.575000000000000355e+01,-6.500000000000001776e+00,-1.200000000000000178e+01,1.350000000000000355e+01,-7.500000000000000000e-01,3.500000000000000888e+00,-8.000000000000001776e+00,3.500000000000000888e+00,-1.175000000000000178e+01,1.900000000000000355e+01,-2.000000000000000355e+01,2.025000000000000355e+01,-1.200000000000000178e+01,-1.000000000000000444e+00,-1.250000000000000000e+00,7.500000000000001776e+00,6.750000000000001776e+00,-1.425000000000000355e+01,9.750000000000001776e+00,-1.175000000000000355e+01,1.000000000000000355e+01,-1.175000000000000355e+01,6.000000000000001776e+00,5.250000000000000888e+00,-3.750000000000000888e+00,-1.500000000000000222e+00,1.525000000000000355e+01,-2.575000000000000711e+01,1.875000000000000355e+01,-4.250000000000000000e+00,5.500000000000001776e+00,-2.150000000000000711e+01,2.200000000000000711e+01,-1.500000000000000000e+00,-1.250000000000000355e+01,8.250000000000001776e+00,2.750000000000000444e+00,-1.650000000000000355e+01,1.075000000000000355e+01,1.025000000000000178e+01,-5.500000000000000888e+00,-4.000000000000000888e+00,-2.500000000000001110e-01,-8.750000000000001776e+00,1.000000000000000178e+01,1.750000000000000444e+00,6.750000000000001776e+00,-1.325000000000000355e+01,5.000000000000000000e-01,1.050000000000000355e+01,-1.775000000000000355e+01,1.525000000000000355e+01,3.250000000000000888e+00,-1.950000000000000711e+01,2.125000000000000711e+01,-1.875000000000000355e+01,9.500000000000001776e+00,8.750000000000001776e+00,-5.500000000000000888e+00,-1.275000000000000355e+01,2.175000000000000711e+01,-2.075000000000000711e+01,2.500000000000000000e+00,6.250000000000001776e+00,7.250000000000001776e+00,-1.750000000000000888e+00,-1.375000000000000355e+01,1.725000000000000355e+01,-2.075000000000000355e+01,2.050000000000000355e+01,-4.750000000000000888e+00,-1.150000000000000355e+01,7.500000000000001776e+00,5.000000000000000888e+00,-5.500000000000000888e+00,-1.275000000000000355e+01,1.750000000000000355e+01,5.000000000000000888e+00,-1.725000000000000355e+01,1.550000000000000355e+01,-2.200000000000000711e+01,2.525000000000000711e+01,-1.025000000000000178e+01,-1.475000000000000355e+01,2.650000000000000711e+01,-2.700000000000000711e+01,2.000000000000000355e+01,-6.500000000000000888e+00,8.000000000000001776e+00,-1.700000000000000355e+01,5.500000000000000888e+00,1.425000000000000355e+01,-9.500000000000001776e+00,-5.000000000000000888e+00,1.325000000000000355e+01,-2.000000000000000000e+00,-1.625000000000000355e+01,2.325000000000000711e+01,-2.100000000000000711e+01,3.500000000000000888e+00,1.450000000000000355e+01,-1.175000000000000178e+01,-7.750000000000001776e+00,1.650000000000000355e+01,-1.500000000000000000e+00,-1.825000000000000711e+01,1.725000000000000355e+01,-5.000000000000000000e-01,-1.025000000000000178e+01,2.500000000000000000e-01,1.250000000000000355e+01,-4.500000000000001776e+00,-1.175000000000000178e+01,1.225000000000000355e+01,7.000000000000000888e+00,-1.375000000000000355e+01,-5.000000000000000888e+00,8.750000000000001776e+00,9.750000000000001776e+00,-2.225000000000000711e+01,2.000000000000000711e+01,2.500000000000000000e-01,-2.325000000000000711e+01,2.400000000000000711e+01,-3.250000000000000888e+00,-1.850000000000000355e+01,1.600000000000000355e+01,5.500000000000001776e+00,-1.925000000000000355e+01,1.475000000000000355e+01,-4.500000000000000888e+00,-1.325000000000000355e+01,2.875000000000000711e+01,-1.700000000000000355e+01,-1.000000000000000355e+01,2.475000000000000711e+01,-1.075000000000000355e+01,-1.250000000000000178e+01,6.000000000000000888e+00,1.525000000000000355e+01,-8.500000000000001776e+00,-1.450000000000000355e+01,2.275000000000000711e+01,-6.500000000000000888e+00,-1.750000000000000355e+01,2.150000000000000711e+01,-7.500000000000001776e+00,-1.000000000000000222e+00,1.250000000000000178e+01,-1.000000000000000178e+01,-3.000000000000000888e+00,1.100000000000000178e+01,-2.075000000000000355e+01,7.750000000000000888e+00,9.250000000000003553e+00,-8.750000000000001776e+00,1.825000000000000355e+01,-3.200000000000000711e+01,2.925000000000000711e+01,-1.425000000000000355e+01,1.092500000000000284e+02
