-1.581258750000000930e+02,-1.480790000000000930e+02,-1.393758750000000930e+02,-1.333602500000000930e+02,-1.302196250000000930e+02,-1.287665000000000930e+02,-1.281258750000000930e+02,-1.288290000000000930e+02,-1.310165000000000930e+02,-1.315946250000000930e+02,-1.331571250000000930e+02,-1.344383750000000930e+02,-1.352508750000000930e+02,-1.355008750000000930e+02,-1.366102500000000930e+02,-1.378758750000000930e+02,-1.388446250000000930e+02,-1.404540000000000930e+02,-1.405477500000000930e+02,-1.393602500000000930e+02,-1.392508750000000930e+02,-1.389227500000000930e+02,-1.390633750000000930e+02,-1.391258750000000930e+02,-1.380008750000000930e+02,-1.368602500000000930e+02,-1.373602500000000930e+02,-1.400633750000000930e+02,-1.415633750000000930e+02,-1.432665000000000930e+02,-1.437040000000000930e+02,-1.447352500000000930e+02,-1.472508750000000930e+02,-1.493758750000000930e+02,-1.498915000000000930e+02,-1.490633750000000930e+02,-1.473446250000000930e+02,-1.466727500000000930e+02,-1.467040000000000930e+02,-1.449696250000000930e+02,-1.431102500000000930e+02,-1.419383750000000930e+02,-1.418915000000000930e+02,-1.410321250000000930e+02,-1.419071250000000930e+02,-1.406415000000000930e+02,-1.396258750000000930e+02,-1.396727500000000930e+02,-1.393290000000000930e+02,-1.381727500000000930e+02,-1.361883750000000930e+02,-1.357977500000000930e+02,-1.347040000000000930e+02,-1.347196250000000930e+02,-1.337508750000000930e+02,-1.339696250000000930e+02,-1.341102500000000930e+02,-1.336727500000000930e+02,-1.342665000000000930e+02,-1.344852500000000930e+02,-1.339852500000000930e+02,-1.345165000000000930e+02,-1.357352500000000930e+02,-1.352040000000000930e+02,-1.344071250000000930e+02,-1.354383750000000930e+02,-1.357977500000000930e+02,-1.352508750000000930e+02,-1.353446250000000930e+02,-1.344696250000000930e+02,-1.330633750000000930e+02,-1.321258750000000930e+02,-1.312977500000000930e+02,-1.294071250000000930e+02,-1.279227500000000930e+02,-1.273290000000000930e+02,-1.272508750000000930e+02,-1.262196250000000930e+02,-1.256258750000000930e+02,-1.257821250000000930e+02,-1.264540000000000930e+02,-1.270165000000000930e+02,-1.266727500000000930e+02,-1.263290000000000930e+02,-1.245790000000000930e+02,-1.240790000000000930e+02,-1.230633750000000930e+02,-1.212040000000000930e+02,-1.190946250000000930e+02,-1.168290000000000930e+02,-1.159852500000000930e+02,-1.144071250000000930e+02,-1.149383750000000930e+02,-1.153915000000000930e+02,-1.164227500000000930e+02,-1.182196250000000930e+02,-1.201571250000000930e+02,-1.230008750000000930e+02,-1.250477500000000930e+02,-1.275790000000000930e+02,-1.289540000000000930e+02,-1.305165000000000930e+02,-1.325790000000000930e+02,-1.333915000000000930e+02,-1.347352500000000930e+02,-1.360477500000000930e+02,-1.375008750000000930e+02,-1.388290000000000930e+02,-1.402352500000000930e+02,-1.414540000000000930e+02,-1.418602500000000930e+02,-1.436258750000000930e+02,-1.444071250000000930e+02,-1.447977500000000930e+02,-1.441415000000000930e+02,-1.440165000000000930e+02,-1.440321250000000930e+02,-1.438290000000000930e+02,-1.449696250000000930e+02,-1.457508750000000930e+02,-1.470633750000000930e+02,-1.482352500000000930e+02,-1.511258750000000930e+02,-1.544383750000000930e+02,-1.567196250000000930e+02,-1.594540000000000930e+02,-1.605946250000000930e+02,-1.611727500000000930e+02,-1.624071250000000930e+02,-1.640165000000000930e+02,-1.645477500000000930e+02,-1.641415000000000930e+02,-1.653758750000000930e+02,-1.656883750000000930e+02,-1.669540000000000930e+02,-1.693446250000000930e+02,-1.712821250000000930e+02,-1.719696250000000930e+02,-1.729227500000000930e+02,-1.743446250000000930e+02,-1.742977500000000930e+02,-1.744227500000000930e+02,-1.734696250000000930e+02,-1.721571250000000930e+02,-1.706415000000000930e+02,-1.713290000000000930e+02,-1.728915000000000930e+02,-1.736571250000000930e+02,-1.764696250000000930e+02,-1.807665000000000930e+02,-1.861415000000001214e+02,-1.919227500000001783e+02,-1.981415000000001783e+02,-2.031727500000001783e+02,-2.081883750000001783e+02,-2.141258750000001783e+02,-2.189071250000001783e+02,-2.226102500000001783e+02,-2.271883750000001783e+02,-2.304540000000001783e+02,-2.329540000000001783e+02,-2.362352500000001783e+02,-2.381727500000001783e+02,-2.399071250000001783e+02,-2.412508750000001783e+02,-2.423602500000001783e+02,-2.418446250000001783e+02,-2.427352500000001783e+02,-2.437352500000001783e+02,-2.428446250000001783e+02,-2.431415000000001783e+02,-2.431102500000001783e+02,-2.429852500000001783e+02,-2.434383750000001783e+02,-2.437196250000001783e+02,-2.427665000000001783e+02,-2.415946250000001783e+02,-2.420790000000001783e+02,-2.418446250000001783e+02,-2.423915000000001783e+02,-2.425946250000001783e+02,-2.418602500000001783e+02,-2.419071250000001783e+02,-2.421258750000001783e+02,-2.424071250000001783e+02,-2.419852500000001783e+02,-2.409071250000001783e+02,-2.381102500000001783e+02,-2.353915000000001783e+02,-2.326883750000001783e+02,-2.282508750000001783e+02,-2.235633750000001783e+02,-2.193446250000001783e+02,-2.135790000000001783e+02,-2.080790000000001783e+02,-2.036415000000001783e+02,-1.992040000000001783e+02,-1.957508750000001783e+02,-1.941102500000001783e+02,-1.915321250000001214e+02,-1.884383750000000930e+02,-1.867196250000000930e+02,-1.843758750000000930e+02,-1.820008750000000930e+02,-1.797665000000000930e+02,-1.765321250000000930e+02,-1.720165000000000930e+02,-1.691415000000000930e+02,-1.661258750000000930e+02,-1.632196250000000930e+02,-1.620165000000000930e+02,-1.601571250000000930e+02,-1.585946250000000930e+02,-1.574227500000000930e+02,-1.580633750000000930e+02,-1.579540000000000930e+02,-1.575008750000000930e+02,-1.581883750000000930e+02,-1.570790000000000930e+02,-1.565477500000000930e+02,-1.558758750000000930e+02,-1.544071250000000930e+02,-1.515165000000000930e+02,-1.500008750000000930e+02,-1.491883750000000930e+02,-1.470165000000000930e+02,-1.456727500000000930e+02,-1.437196250000000930e+02,-1.428758750000000930e+02,-1.428133750000000930e+02,-1.434383750000000930e+02,-1.426571250000000930e+02,-1.426727500000000930e+02,-1.419696250000000930e+02,-1.423602500000000930e+02,-1.440321250000000930e+02,-1.434227500000000930e+02,-1.426571250000000930e+02,-1.410946250000000930e+02,-1.395790000000000930e+02,-1.364540000000000930e+02,-1.349227500000000930e+02,-1.317977500000000930e+02,-1.266102500000000930e+02,-1.222821250000000930e+02,-1.185008750000000930e+02,-1.140633750000000930e+02,-1.097977500000000930e+02,-1.055477500000000930e+02,-9.950087500000009300e+01,-9.325087500000009300e+01,-8.890712500000006457e+01,-8.545400000000005036e+01,-8.062587500000005036e+01,-7.725087500000005036e+01,-7.279775000000005036e+01,-6.870400000000005036e+01,-6.645400000000005036e+01,-6.561025000000005036e+01,-6.314150000000005036e+01,-5.939150000000005036e+01,-5.664150000000005036e+01,-5.289150000000005036e+01,-5.112587500000005036e+01,-4.961025000000005036e+01,-4.590712500000003615e+01,-4.139150000000003615e+01,-3.762587500000002905e+01,-3.420400000000002905e+01,-3.118837500000002905e+01,-2.868837500000002905e+01,-2.479775000000002549e+01,-2.079775000000002194e+01,-1.796962500000001839e+01,-1.496962500000001839e+01,-1.282900000000001839e+01,-1.095400000000001484e+01,-7.922750000000013060e+00,-4.219625000000011283e+00,-1.282125000000008619e+00,1.499124999999993380e+00,3.061624999999994046e+00,4.295999999999994934e+00,6.608499999999995822e+00,9.061624999999997598e+00,1.192099999999999937e+01,1.370225000000000293e+01,1.718662500000000293e+01,2.129600000000000648e+01,2.806162500000001003e+01,3.573350000000001359e+01,4.409287500000002069e+01,5.213975000000003490e+01,5.879600000000003490e+01,6.562412500000003490e+01,7.001475000000003490e+01,7.382725000000003490e+01,7.517100000000003490e+01,7.482725000000003490e+01,7.310850000000003490e+01,7.104600000000003490e+01,6.848350000000003490e+01,6.607725000000003490e+01,6.420225000000003490e+01,6.195225000000003490e+01,6.009287500000003490e+01,5.778037500000003490e+01,5.349912500000003490e+01,4.817100000000002780e+01,4.265537500000002069e+01,3.560850000000001359e+01,2.756162500000001003e+01,1.760850000000000293e+01,4.780374999999996710e+00,-8.750875000000013060e+00,-2.134462500000002194e+01,-3.520400000000002194e+01,-5.115712500000003615e+01,-6.884462500000005036e+01,-8.898525000000006457e+01,-1.110008750000000930e+02,-1.338758750000000930e+02,-1.594227500000001214e+02,-1.891571250000001498e+02,-2.200633750000001783e+02,-2.520008750000001783e+02,-2.843290000000001783e+02,-3.155321250000001783e+02,-3.450633750000001783e+02,-3.715790000000002919e+02,-3.942665000000002919e+02,-4.117508750000002919e+02,-4.255008750000002919e+02,-4.352977500000003488e+02,-4.416258750000003488e+02,-4.454071250000003488e+02,-4.469227500000003488e+02,-4.475008750000003488e+02,-4.475165000000003488e+02,-4.474540000000003488e+02,-4.473915000000003488e+02,-4.473446250000003488e+02,-4.473133750000003488e+02,-4.472977500000003488e+02,-4.473133750000003488e+02,-4.473446250000003488e+02,-4.474071250000003488e+02,-4.474852500000003488e+02,-4.475633750000003488e+02,-4.476415000000003488e+02,-4.477040000000003488e+02,-4.477352500000003488e+02,-4.477508750000003488e+02,-4.477665000000003488e+02,-4.477665000000003488e+02,-4.452821250000003488e+02,-4.403133750000003488e+02,-4.342196250000003488e+02,-4.266883750000003488e+02,-4.166571250000002919e+02,-4.038133750000002919e+02,-3.877040000000002919e+02,-3.697508750000001783e+02,-3.506102500000001783e+02,-3.274071250000001783e+02,-2.959852500000001783e+02,-2.546415000000001783e+02,-2.029540000000001214e+02,-1.413290000000000930e+02,-7.057900000000003615e+01,1.215537500000001714e+01,1.007960000000000917e+02,1.895460000000001628e+02,2.741397500000001628e+02,3.502803750000002765e+02,4.138741250000003902e+02,4.648585000000003902e+02,5.034991250000003902e+02,5.283428750000003902e+02,5.436553750000003902e+02,5.523272500000003902e+02,5.558741250000003902e+02,5.565147500000003902e+02,5.568585000000003902e+02,5.570460000000003902e+02,5.571710000000003902e+02,5.572647500000003902e+02,5.573272500000003902e+02,5.573741250000003902e+02,5.573116250000003902e+02,5.572647500000003902e+02,5.572022500000003902e+02,5.571553750000003902e+02,5.571241250000003902e+02,5.570928750000003902e+02,5.570616250000003902e+02,5.570147500000003902e+02,5.570616250000003902e+02,5.570928750000003902e+02,5.571085000000003902e+02,5.571241250000003902e+02,5.571241250000003902e+02,5.571397500000003902e+02,5.571553750000003902e+02,5.572022500000003902e+02,5.571866250000003902e+02,5.571553750000003902e+02,5.571397500000003902e+02,5.571241250000003902e+02,5.571397500000003902e+02,5.571241250000003902e+02,5.570928750000003902e+02,5.570303750000003902e+02,5.569678750000003902e+02,5.569210000000003902e+02,5.568741250000003902e+02,5.568272500000003902e+02,5.567803750000003902e+02,5.567491250000003902e+02,5.567335000000003902e+02,5.567335000000003902e+02,5.567491250000003902e+02,5.567647500000003902e+02,5.567647500000003902e+02,5.567491250000003902e+02,5.566866250000003902e+02,5.566085000000003902e+02,5.565147500000003902e+02,5.564053750000003902e+02,5.562803750000003902e+02,5.560616250000003902e+02,5.545460000000003902e+02,5.516710000000003902e+02,5.475147500000003902e+02,5.414053750000003902e+02,5.326866250000003902e+02,5.202960000000003902e+02,5.047022500000003902e+02,4.851085000000003902e+02,4.637960000000003902e+02,4.400772500000003902e+02,4.137178750000003333e+02,3.848897500000002765e+02,3.552491250000002196e+02,3.262335000000001628e+02,2.961241250000001628e+02,2.659991250000001628e+02,2.350616250000001628e+02,2.046085000000001628e+02,1.736085000000001060e+02,1.437022500000000775e+02,1.125772500000000633e+02,8.049912500000004911e+01,4.935850000000002069e+01,1.893662500000000648e+01,-1.142275000000001484e+01,-4.234462500000003615e+01,-7.211025000000005036e+01,-1.018446250000000646e+02,-1.290321250000000930e+02,-1.554696250000001214e+02,-1.816571250000001498e+02,-2.062977500000001783e+02,-2.291883750000001783e+02,-2.503290000000001783e+02,-2.703602500000001783e+02,-2.891883750000001783e+02,-3.078290000000001783e+02,-3.246571250000001783e+02,-3.399852500000001783e+02,-3.556415000000001783e+02,-3.706571250000001783e+02,-3.848133750000002919e+02,-3.970633750000002919e+02,-4.077352500000002919e+02,-4.174071250000002919e+02,-4.257977500000003488e+02,-4.325790000000003488e+02,-4.371883750000003488e+02,-4.406883750000003488e+02,-4.429383750000003488e+02,-4.448602500000003488e+02,-4.462352500000003488e+02,-4.466883750000003488e+02,-4.469852500000003488e+02,-4.472821250000003488e+02,-4.475633750000003488e+02,-4.475633750000003488e+02,-4.475477500000003488e+02,-4.475477500000003488e+02,-4.470165000000003488e+02,-4.460790000000003488e+02,-4.443602500000003488e+02,-4.426102500000003488e+02,-4.406258750000003488e+02,-4.377665000000003488e+02,-4.343290000000003488e+02,-4.292352500000003488e+02,-4.232821250000003488e+02,-4.171727500000003488e+02,-4.106883750000002919e+02,-4.016571250000002919e+02,-3.911415000000002919e+02,-3.808446250000002919e+02,-3.702665000000001783e+02,-3.608915000000001783e+02,-3.524383750000001783e+02,-3.438133750000001783e+02,-3.366883750000001783e+02,-3.322665000000001783e+02,-3.293758750000001783e+02,-3.270946250000001783e+02,-3.245321250000001783e+02,-3.220321250000001783e+02,-3.194227500000001783e+02,-3.165946250000001783e+02,-3.129696250000001783e+02,-3.090165000000001783e+02,-3.036883750000001783e+02,-2.961102500000001783e+02,-2.878133750000001783e+02,-2.778446250000001783e+02,-2.669540000000001783e+02,-2.548133750000001783e+02,-2.411415000000001783e+02,-2.251727500000001783e+02,-2.085946250000001783e+02,-1.917821250000001783e+02,-1.742040000000001214e+02,-1.552508750000000930e+02,-1.335477500000000930e+02,-1.093602500000000930e+02,-8.118837500000006457e+01,-4.986025000000003615e+01,-1.476650000000001839e+01,2.349912500000000293e+01,6.348350000000003490e+01,1.040303750000000491e+02,1.449678750000000775e+02,1.850303750000001060e+02,2.226710000000001628e+02,2.585147500000001628e+02,2.920460000000001628e+02,3.232022500000002196e+02,3.540616250000002196e+02,3.846397500000002765e+02,4.127178750000003333e+02,4.392491250000003902e+02,4.644522500000003902e+02,4.868897500000003902e+02,5.057803750000003902e+02,5.215616250000003902e+02,5.333272500000003902e+02,5.414053750000003902e+02,5.472803750000003902e+02,5.507803750000003902e+02,5.519835000000003902e+02,5.516710000000003902e+02,5.506085000000003902e+02,5.488116250000003902e+02,5.456397500000003902e+02,5.416397500000003902e+02,5.350616250000003902e+02,5.265772500000003902e+02,5.161553750000003902e+02,5.031866250000003902e+02,4.874522500000003902e+02,4.690460000000003902e+02,4.493585000000003902e+02,4.267491250000003902e+02,4.048585000000003333e+02,3.827803750000002765e+02,3.605303750000002196e+02,3.403741250000001628e+02,3.223272500000001628e+02,3.062178750000001628e+02,2.914835000000001628e+02,2.795147500000001628e+02,2.692960000000001628e+02,2.609678750000001628e+02,2.542803750000001628e+02,2.484991250000001628e+02,2.445616250000001628e+02,2.419835000000001628e+02,2.415460000000001628e+02,2.431241250000001628e+02,2.452960000000001628e+02,2.478116250000001628e+02,2.513741250000001628e+02,2.533897500000001628e+02,2.549678750000001628e+02,2.573272500000001628e+02,2.574210000000001628e+02,2.564366250000001628e+02,2.546866250000001628e+02,2.519053750000001628e+02,2.492960000000001628e+02,2.493585000000001628e+02,2.493585000000001628e+02,2.477022500000001628e+02,2.482647500000001628e+02,2.486553750000001628e+02,2.492022500000001628e+02,2.521241250000001628e+02,2.538428750000001628e+02,2.542960000000001628e+02,2.556710000000001628e+02,2.578897500000001628e+02,2.597803750000001628e+02,2.624522500000001628e+02,2.668741250000001628e+02,2.702491250000001628e+02,2.730928750000001628e+02,2.772960000000001628e+02,2.802803750000001628e+02,2.827491250000001628e+02,2.848116250000001628e+02,2.857491250000001628e+02,2.849522500000001628e+02,2.850772500000001628e+02,2.860147500000001628e+02,2.850460000000001628e+02,2.837647500000001628e+02,2.838897500000001628e+02,2.831866250000001628e+02,2.824678750000001628e+02,2.797335000000001628e+02,2.730147500000001628e+02,2.673897500000001628e+02,2.615147500000001628e+02,2.554991250000001628e+02,2.461866250000001628e+02,2.363428750000001628e+02,2.266397500000001628e+02,2.184678750000001628e+02,2.121710000000001628e+02,2.039678750000001628e+02,1.953741250000001628e+02,1.862803750000001060e+02,1.799053750000001060e+02,1.737335000000000775e+02,1.666085000000000775e+02,1.596241250000000775e+02,1.530460000000000775e+02,1.459366250000000775e+02,1.392960000000000775e+02,1.328741250000000775e+02,1.250616250000000775e+02,1.176241250000000775e+02,1.101710000000000775e+02,1.018897500000000775e+02,9.313975000000007753e+01,8.531162500000004911e+01,7.674912500000003490e+01,6.849912500000003490e+01,5.878037500000003490e+01,4.857725000000002069e+01,3.835850000000001359e+01,2.721787500000000648e+01,1.487412499999999937e+01,1.452249999999991825e+00,-1.220400000000001484e+01,-2.848525000000002194e+01,-4.498525000000003615e+01,-6.301650000000005036e+01,-8.162587500000006457e+01,-1.002508750000000788e+02,-1.190946250000000930e+02,-1.388602500000000930e+02,-1.594227500000000930e+02,-1.777352500000001214e+02,-1.940321250000001783e+02,-2.098133750000001783e+02,-2.255477500000001783e+02,-2.401883750000001783e+02,-2.551102500000001783e+02,-2.688290000000001783e+02,-2.815321250000001783e+02,-2.950633750000001783e+02,-3.094227500000001783e+02,-3.231571250000001783e+02,-3.362665000000001783e+02,-3.488758750000001783e+02,-3.594227500000001783e+02,-3.694383750000001783e+02,-3.774540000000001783e+02,-3.844071250000002919e+02,-3.902665000000002919e+02,-3.948446250000002919e+02,-3.980165000000003488e+02,-4.008446250000003488e+02,-4.031415000000003488e+02,-4.049540000000003488e+02,-4.080165000000003488e+02,-4.097665000000003488e+02,-4.117352500000003488e+02,-4.135946250000003488e+02,-4.156571250000003488e+02,-4.182508750000003488e+02,-4.208290000000003488e+02,-4.221415000000003488e+02,-4.228133750000003488e+02,-4.245008750000003488e+02,-4.254540000000003488e+02,-4.262352500000003488e+02,-4.272196250000003488e+02,-4.267196250000003488e+02,-4.263758750000003488e+02,-4.277040000000003488e+02,-4.289227500000003488e+02,-4.297040000000003488e+02,-4.308915000000003488e+02,-4.321415000000003488e+02,-4.332977500000003488e+02,-4.357665000000003488e+02,-4.381727500000003488e+02,-4.393290000000003488e+02,-4.403602500000003488e+02,-4.414383750000003488e+02,-4.421102500000003488e+02,-4.418915000000003488e+02,-4.412821250000003488e+02,-4.388915000000003488e+02,-4.359071250000003488e+02,-4.326415000000003488e+02,-4.281102500000003488e+02,-4.226727500000003488e+02,-4.167977500000003488e+02,-4.115790000000003488e+02,-4.058915000000003488e+02,-4.022196250000003488e+02,-3.985946250000003488e+02,-3.964383750000003488e+02,-3.969227500000003488e+02,-3.983446250000003488e+02,-4.007196250000003488e+02,-4.043758750000003488e+02,-4.091571250000003488e+02,-4.126571250000003488e+02,-4.175321250000003488e+02,-4.218446250000003488e+02,-4.247977500000003488e+02,-4.282040000000003488e+02,-4.314696250000003488e+02,-4.336415000000003488e+02,-4.356571250000003488e+02,-4.385633750000003488e+02,-4.405477500000003488e+02,-4.422821250000003488e+02,-4.440321250000003488e+02,-4.451415000000003488e+02,-4.460165000000003488e+02,-4.469071250000003488e+02,-4.474540000000003488e+02,-4.474696250000003488e+02,-4.474540000000003488e+02,-4.468602500000003488e+02,-4.453602500000003488e+02,-4.435477500000003488e+02,-4.400790000000003488e+02,-4.350008750000003488e+02,-4.285946250000003488e+02,-4.205477500000002919e+02,-4.107352500000002919e+02,-3.996258750000002919e+02,-3.883133750000002919e+02,-3.754071250000001783e+02,-3.624852500000001783e+02,-3.492821250000001783e+02,-3.360165000000001783e+02,-3.227821250000001783e+02,-3.093915000000001783e+02,-2.965477500000001783e+02,-2.826415000000001783e+02,-2.689383750000001783e+02,-2.562821250000001783e+02,-2.439696250000001783e+02,-2.305008750000001783e+02,-2.162352500000001783e+02,-2.016258750000001783e+02,-1.864383750000001498e+02,-1.724383750000001214e+02,-1.580321250000000930e+02,-1.415008750000000930e+02,-1.257821250000000930e+02,-1.113446250000000930e+02,-9.829775000000009300e+01,-8.665712500000006457e+01,-7.528212500000005036e+01,-6.326650000000005036e+01,-5.193837500000004326e+01,-4.214150000000003615e+01,-3.098525000000002905e+01,-1.886025000000002194e+01,-5.579000000000013060e+00,8.342874999999997598e+00,2.290537500000000648e+01,3.845225000000001359e+01,5.392100000000002069e+01,6.993662500000003490e+01,8.567100000000004911e+01,1.006397500000000633e+02,1.153272500000000775e+02,1.302960000000000775e+02,1.447647500000000775e+02,1.584522500000000775e+02,1.732647500000001060e+02,1.886241250000001628e+02,2.039366250000001628e+02,2.186710000000001628e+02,2.327022500000001628e+02,2.470772500000001628e+02,2.604210000000001628e+02,2.733897500000001628e+02,2.847960000000001628e+02,2.951710000000001628e+02,3.055303750000001628e+02,3.167960000000001628e+02,3.291553750000001628e+02,3.412803750000001628e+02,3.549210000000001628e+02,3.693272500000001628e+02,3.851553750000002765e+02,4.008428750000002765e+02,4.162803750000002765e+02,4.314678750000002765e+02,4.447960000000003333e+02,4.574835000000003902e+02,4.688272500000003902e+02,4.784053750000003902e+02,4.866085000000003902e+02,4.951866250000003902e+02,5.032022500000003902e+02,5.106866250000003902e+02,5.187803750000003902e+02,5.257803750000003902e+02,5.322022500000003902e+02,5.384835000000003902e+02,5.438428750000003902e+02,5.477335000000003902e+02,5.507022500000003902e+02,5.526397500000003902e+02,5.535616250000003902e+02,5.543116250000003902e+02,5.547335000000003902e+02,5.548272500000003902e+02,5.548897500000003902e+02,5.549522500000003902e+02,5.550147500000003902e+02,5.551085000000003902e+02,5.551866250000003902e+02,5.552647500000003902e+02,5.553428750000003902e+02,5.554678750000003902e+02,5.555928750000003902e+02,5.557178750000003902e+02,5.558272500000003902e+02,5.559053750000003902e+02,5.559991250000003902e+02,5.561085000000003902e+02,5.562022500000003902e+02,5.562647500000003902e+02,5.563116250000003902e+02,5.563428750000003902e+02,5.563897500000003902e+02,5.564522500000003902e+02,5.564991250000003902e+02,5.565303750000003902e+02,5.565616250000003902e+02,5.565928750000003902e+02,5.566241250000003902e+02,5.566553750000003902e+02,5.566710000000003902e+02,5.566553750000003902e+02,5.566085000000003902e+02,5.565772500000003902e+02,5.565303750000003902e+02,5.564991250000003902e+02,5.564678750000003902e+02,5.564522500000003902e+02,5.564366250000003902e+02,5.564366250000003902e+02,5.564991250000003902e+02,5.565303750000003902e+02,5.565928750000003902e+02,5.566397500000003902e+02,5.566866250000003902e+02,5.567022500000003902e+02,5.567022500000003902e+02,5.567178750000003902e+02,5.567022500000003902e+02,5.567022500000003902e+02,5.566710000000003902e+02,5.566241250000003902e+02,5.565616250000003902e+02,5.564835000000003902e+02,5.564210000000003902e+02,5.563272500000003902e+02,5.562022500000003902e+02,5.560616250000003902e+02,5.559210000000003902e+02,5.557491250000003902e+02,5.555616250000003902e+02,5.553897500000003902e+02,5.551241250000003902e+02,5.547647500000003902e+02,5.543272500000003902e+02,5.532491250000003902e+02,5.511397500000003902e+02,5.474835000000003902e+02,5.419210000000003902e+02,5.346397500000003902e+02,5.247491250000003902e+02,5.125928750000003902e+02,4.977491250000003902e+02,4.803272500000003902e+02,4.611866250000003902e+02,4.407022500000003902e+02,4.195303750000003902e+02,3.980303750000003333e+02,3.797178750000002765e+02,3.641553750000001628e+02,3.468428750000001628e+02,3.280772500000001628e+02,3.065772500000001628e+02,2.842335000000001628e+02,2.604210000000001628e+02,2.333741250000001628e+02,1.995460000000001344e+02,1.583116250000001060e+02,1.205616250000000775e+02,8.770225000000004911e+01,6.032725000000003490e+01,3.610850000000002069e+01,1.571787500000000293e+01,-7.900000000000773070e-02,-9.954000000000014836e+00,-1.353212500000001484e+01,-1.661025000000001839e+01,-2.126650000000002194e+01,-2.573525000000002905e+01,-3.001650000000002905e+01,-3.512587500000002905e+01,-3.923525000000002905e+01,-4.334462500000003615e+01,-4.692275000000004326e+01,-5.045400000000005036e+01,-5.168837500000005036e+01,-5.350087500000005036e+01,-5.420400000000005036e+01,-5.298525000000005036e+01,-5.173525000000005036e+01,-4.951650000000005036e+01,-4.642275000000004326e+01,-4.229775000000003615e+01,-4.039150000000002905e+01,-3.818837500000002905e+01,-3.853212500000002905e+01,-4.053212500000002905e+01,-4.356337500000003615e+01,-4.846962500000005036e+01,-5.520400000000005036e+01,-6.454775000000005036e+01,-7.342275000000005036e+01,-8.389150000000006457e+01,-9.257900000000007878e+01,-1.009696250000000930e+02,-1.097040000000000930e+02,-1.177196250000000930e+02,-1.254227500000000930e+02,-1.307196250000000930e+02,-1.349540000000000930e+02,-1.376571250000000930e+02,-1.409071250000000930e+02,-1.442352500000000930e+02,-1.473758750000000930e+02,-1.510946250000000930e+02,-1.542821250000000930e+02,-1.584696250000000930e+02,-1.646102500000000930e+02,-1.713602500000000930e+02,-1.777352500000000930e+02,-1.843290000000001214e+02,-1.908446250000001498e+02,-1.962352500000001783e+02,-2.021727500000001783e+02,-2.081258750000001783e+02,-2.125633750000001783e+02,-2.160790000000001783e+02,-2.194540000000001783e+02,-2.222821250000001783e+02,-2.241727500000001783e+02,-2.261727500000001783e+02,-2.246102500000001783e+02,-2.207352500000001783e+02,-2.145165000000001783e+02,-2.060633750000001783e+02,-1.962821250000001783e+02,-1.848133750000001498e+02,-1.720633750000001214e+02
1.335937500000000711e+01,2.318750000000001421e+01,2.685937500000002132e+01,2.346875000000001421e+01,1.070312500000000711e+01,2.500000000000008882e-01,-6.453125000000003553e+00,-1.000000000000000711e+01,-6.062500000000004441e+00,-1.546875000000001332e+00,2.328125000000001332e+00,6.671875000000004441e+00,4.859375000000003553e+00,3.921875000000002665e+00,2.187500000000004441e-01,-5.515625000000003553e+00,-4.296875000000003553e+00,-5.250000000000003553e+00,-2.281250000000001776e+00,2.406250000000001776e+00,5.468750000000002220e-01,9.374999999999983347e-02,-1.078125000000000888e+00,-1.015625000000000444e+00,1.546875000000001332e+00,4.531250000000003553e+00,4.218750000000003553e+00,7.968750000000004441e-01,1.171875000000000888e+00,-6.875000000000004441e-01,6.875000000000004441e-01,3.156250000000002220e+00,-1.765625000000001332e+00,-3.453125000000002665e+00,-5.750000000000003553e+00,-7.453125000000004441e+00,-3.234375000000001776e+00,-1.218750000000000444e+00,1.437500000000000888e+00,3.328125000000002220e+00,3.906250000000002220e+00,3.859375000000001776e+00,1.250000000000000888e+00,9.531250000000007772e-01,-1.546875000000000888e+00,-3.062500000000001776e+00,-1.390625000000000888e+00,-2.656250000000001776e+00,-2.187500000000001776e+00,1.093750000000000444e+00,3.593750000000000000e-01,1.843750000000001110e+00,3.875000000000002665e+00,-1.093750000000000000e-01,1.671875000000000666e+00,1.015625000000000000e+00,-1.531250000000001332e+00,1.531250000000000666e+00,-7.500000000000006661e-01,-1.531250000000001332e+00,-3.437500000000003331e-01,-1.062500000000000666e+00,7.812500000000004441e-01,2.250000000000001776e+00,2.765625000000001776e+00,6.718750000000003331e-01,-2.218750000000001776e+00,-3.640625000000002665e+00,-4.671875000000003553e+00,-2.171875000000001332e+00,8.593750000000004441e-01,1.859375000000000888e+00,1.593750000000000888e+00,-4.218750000000003331e-01,-1.906250000000001332e+00,-1.750000000000000888e+00,1.484375000000000888e+00,4.890625000000002665e+00,5.796875000000003553e+00,4.890625000000003553e+00,-1.312500000000001554e+00,-5.375000000000003553e+00,-6.343750000000003553e+00,-5.937500000000003553e+00,6.249999999999977796e-02,2.125000000000001332e+00,2.234375000000001332e+00,1.312500000000000888e+00,-2.421875000000001776e+00,-3.187500000000002220e+00,-1.593750000000001110e+00,1.640625000000000888e+00,6.109375000000003553e+00,1.006250000000000711e+01,8.468750000000005329e+00,6.015625000000005329e+00,-4.218750000000000000e-01,-7.890625000000005329e+00,-7.156250000000005329e+00,-8.125000000000005329e+00,-1.687500000000000000e+00,5.625000000000004441e+00,4.750000000000003553e+00,6.687500000000005329e+00,7.812500000000004441e-01,-5.343750000000003553e+00,-4.953125000000003553e+00,-5.625000000000003553e+00,-1.562500000000000000e-01,4.937500000000003553e+00,4.593750000000002665e+00,3.921875000000002665e+00,-1.796875000000001554e+00,-6.593750000000004441e+00,-6.312500000000004441e+00,-6.625000000000005329e+00,-7.968750000000008882e-01,3.937500000000001776e+00,6.578125000000003553e+00,1.067187500000000711e+01,6.796875000000004441e+00,4.093750000000002665e+00,-1.515625000000000444e+00,-7.765625000000005329e+00,-6.171875000000005329e+00,-5.312500000000003553e+00,-2.343750000000004441e-01,2.906250000000001776e+00,1.578125000000000888e+00,-1.250000000000002220e-01,-3.531250000000002220e+00,-1.812500000000000888e+00,2.968750000000000555e-01,2.671875000000001332e+00,5.750000000000003553e+00,2.953125000000001776e+00,7.656250000000005551e-01,-6.093750000000003331e-01,-4.406250000000003553e+00,-4.296875000000003553e+00,-4.718750000000003553e+00,-5.281250000000003553e+00,-2.359375000000001332e+00,-1.546875000000000666e+00,2.000000000000001332e+00,5.625000000000003553e+00,8.000000000000003553e+00,1.107812500000000533e+01,1.020312500000000533e+01,6.562500000000003553e+00,1.875000000000000000e-01,-3.843750000000002665e+00,-6.562500000000003553e+00,-5.781250000000003553e+00,4.218750000000002220e-01,5.468750000000002220e-01,2.015625000000000888e+00,2.031250000000000888e+00,-4.078125000000002665e+00,-3.125000000000002220e+00,-4.187500000000002665e+00,-4.093750000000002665e+00,-2.812500000000001665e-01,-1.171875000000000666e+00,6.093750000000003331e-01,-1.343750000000000888e+00,-2.671875000000001776e+00,-1.156250000000000888e+00,-2.843750000000002220e+00,1.140625000000000000e+00,3.250000000000001776e+00,1.031250000000000444e+00,1.843750000000000888e+00,-8.281250000000008882e-01,-4.546875000000003553e+00,-1.625000000000000888e+00,-1.484375000000000888e+00,-1.437500000000000666e+00,3.390625000000001776e+00,2.187500000000000888e+00,3.515625000000001776e+00,4.843750000000002665e+00,-2.968750000000000000e-01,-2.640625000000001332e+00,-6.734375000000003553e+00,-7.906250000000003553e+00,-3.859375000000002665e+00,-6.562500000000005551e-01,3.125000000000001776e+00,1.546875000000000888e+00,-3.640625000000001776e+00,-6.578125000000003553e+00,-8.546875000000005329e+00,-5.000000000000002665e+00,3.625000000000002220e+00,8.437500000000005329e+00,9.875000000000005329e+00,9.734375000000005329e+00,2.593750000000001332e+00,-2.484375000000001776e+00,-1.828125000000001110e+00,-5.671875000000003553e+00,-4.578125000000002665e+00,-8.906250000000002220e-01,-4.125000000000002665e+00,4.531250000000004441e-01,3.937500000000002665e+00,9.375000000000006661e-01,5.109375000000003553e+00,1.640625000000001332e+00,-9.375000000000000000e-01,2.890625000000001776e+00,1.562499999999988898e-02,3.781250000000001776e+00,3.984375000000001776e+00,6.249999999999955591e-02,1.296875000000000444e+00,-2.640625000000002220e+00,-4.062500000000003553e+00,-2.218750000000001776e+00,-3.140625000000002220e+00,-3.046875000000001776e+00,-4.375000000000003331e-01,-7.656250000000005551e-01,-7.812500000000000000e-02,5.125000000000003553e+00,4.656250000000003553e+00,4.015625000000002665e+00,3.671875000000002665e+00,-4.015625000000002665e+00,-5.265625000000002665e+00,-2.046875000000000888e+00,-1.156250000000000444e+00,6.265625000000005329e+00,7.031250000000006217e+00,2.515625000000001776e+00,-4.062500000000000000e-01,-6.984375000000005329e+00,-8.984375000000007105e+00,-8.812500000000007105e+00,-5.750000000000004441e+00,-7.187500000000005551e-01,2.906250000000001776e+00,6.593750000000004441e+00,4.703125000000003553e+00,-2.656250000000001110e-01,-5.265625000000004441e+00,-8.218750000000007105e+00,-6.218750000000003553e+00,-1.328125000000000888e+00,4.546875000000003553e+00,5.765625000000003553e+00,4.375000000000003553e+00,3.046875000000002220e+00,9.843750000000005551e-01,1.468750000000000888e+00,8.125000000000004441e-01,-6.250000000000011102e-02,-2.156250000000001332e+00,-2.250000000000001332e+00,1.437500000000001332e+00,1.437500000000001332e+00,2.250000000000001332e+00,6.718750000000004441e-01,-4.156250000000002665e+00,-3.734375000000002665e+00,-1.125000000000000666e+00,-5.781250000000004441e-01,1.250000000000000666e+00,2.046875000000001332e+00,-1.203125000000000888e+00,1.156250000000000666e+00,3.656250000000002665e+00,1.140625000000000666e+00,2.515625000000001332e+00,-8.750000000000013323e-01,-5.000000000000003553e+00,-1.156250000000000888e+00,-8.593750000000007772e-01,1.015625000000000222e+00,3.734375000000001776e+00,2.343749999999997780e-01,1.437500000000000888e+00,2.500000000000001776e+00,2.421875000000001332e+00,2.812500000000001776e+00,-2.906250000000002220e+00,-8.703125000000005329e+00,-1.325000000000000711e+01,-1.314062500000000711e+01,-8.250000000000003553e+00,-1.421875000000000222e+00,5.468750000000005329e+00,8.875000000000007105e+00,1.154687500000000711e+01,1.253125000000001066e+01,1.146875000000000711e+01,9.750000000000007105e+00,5.843750000000003553e+00,-8.125000000000006661e-01,-3.937500000000002665e+00,-5.312500000000003553e+00,-5.281250000000003553e+00,1.093750000000001110e+00,2.718750000000002220e+00,2.578125000000002220e+00,4.265625000000003553e+00,4.218750000000004441e-01,3.187500000000001776e+00,9.203125000000005329e+00,1.062500000000000711e+01,1.329687500000000888e+01,7.687500000000005329e+00,-5.468749999999995559e-01,-3.328125000000001332e+00,-4.046875000000002665e+00,3.687500000000002665e+00,9.953125000000007105e+00,1.176562500000000711e+01,1.353125000000001066e+01,7.921875000000006217e+00,7.421875000000005329e+00,1.028125000000000711e+01,9.515625000000005329e+00,1.373437500000000711e+01,1.060937500000000711e+01,2.000000000000000888e+00,-6.359375000000004441e+00,-1.945312500000001066e+01,-2.718750000000001776e+01,-2.925000000000002132e+01,-2.695312500000001776e+01,-1.939062500000001421e+01,-1.209375000000000888e+01,-6.078125000000003553e+00,-2.296875000000001776e+00,-7.812500000000004441e-01,-1.406250000000000833e-01,-6.250000000000004163e-02,-6.250000000000004163e-02,0.000000000000000000e+00,1.562500000000001041e-02,1.093750000000000833e-01,2.187500000000001665e-01,2.343750000000001665e-01,2.656250000000002220e-01,1.406250000000001110e-01,-3.125000000000000694e-02,-1.406250000000000833e-01,-2.500000000000001665e-01,-1.875000000000001110e-01,-9.375000000000006939e-02,-1.562500000000001388e-02,6.250000000000004163e-02,-6.938893903907228378e-18,-2.484375000000001332e+00,-7.453125000000003553e+00,-1.354687500000000711e+01,-2.095312500000001421e+01,-2.110937500000001421e+01,-1.414062500000000888e+01,-5.937500000000003553e+00,6.046875000000005329e+00,7.281250000000005329e+00,-4.171875000000003553e+00,-1.978125000000001421e+01,-4.931250000000004263e+01,-7.506250000000005684e+01,-8.718750000000005684e+01,-8.818750000000005684e+01,-5.910937500000004263e+01,-1.325000000000001421e+01,3.375000000000002132e+01,7.684375000000005684e+01,9.620312500000008527e+01,9.223437500000008527e+01,7.525000000000005684e+01,4.985937500000002842e+01,2.676562500000001421e+01,1.207812500000000711e+01,3.593750000000002665e+00,4.218750000000002776e-01,1.562500000000001110e-01,1.875000000000001665e-01,3.125000000000002220e-01,3.750000000000002776e-01,3.437500000000002220e-01,2.812500000000001665e-01,1.718750000000001110e-01,-1.562500000000000000e-02,-9.375000000000005551e-02,-1.562500000000001110e-01,-1.093750000000000694e-01,-1.562500000000001041e-02,1.562500000000001041e-02,4.687500000000002776e-02,-3.125000000000002776e-02,-7.812500000000005551e-02,-1.093750000000000833e-01,-1.250000000000000833e-01,-7.812500000000005551e-02,4.687500000000004857e-02,1.562500000000001110e-01,2.031250000000001388e-01,2.187500000000001665e-01,-1.562499999999998612e-02,-1.718750000000001110e-01,-2.187500000000001110e-01,-2.031250000000001110e-01,9.375000000000004163e-02,2.343750000000001665e-01,2.656250000000001665e-01,2.031250000000001110e-01,-4.687500000000002082e-02,-1.250000000000000833e-01,-1.406250000000001110e-01,-9.375000000000006939e-02,1.562500000000001041e-02,-1.562500000000001735e-02,-6.250000000000005551e-02,-1.250000000000001110e-01,-1.406250000000001110e-01,-3.125000000000004163e-02,9.375000000000005551e-02,2.343750000000001665e-01,2.968750000000002220e-01,2.500000000000001665e-01,1.562500000000001110e-01,1.562500000000000694e-02,-1.093750000000000833e-01,-7.812500000000005551e-02,1.312500000000000666e+00,4.125000000000001776e+00,8.281250000000003553e+00,1.401562500000001066e+01,1.710937500000001776e+01,1.837500000000002132e+01,1.759375000000002487e+01,1.368750000000001776e+01,1.150000000000000888e+01,7.968749999999999112e+00,4.703124999999989342e+00,2.531249999999991118e+00,-4.531250000000072164e-01,-6.875000000000037748e-01,-3.906250000000001110e-01,-7.812500000000000000e-02,1.046875000000000444e+00,1.187500000000000666e+00,1.000000000000000444e+00,1.031250000000000444e+00,6.562500000000003331e-01,7.968750000000003331e-01,1.250000000000000000e-01,4.843750000000002220e-01,-8.437500000000004441e-01,-4.046875000000002665e+00,-4.031250000000002665e+00,-5.984375000000003553e+00,-5.359375000000003553e+00,-2.421875000000000888e+00,-3.984375000000002665e+00,-4.843750000000003553e+00,-5.890625000000003553e+00,-9.375000000000007105e+00,-8.843750000000007105e+00,-5.890625000000004441e+00,-4.375000000000003553e+00,6.406250000000004441e-01,2.593750000000001332e+00,1.875000000000001110e-01,-1.171875000000001110e+00,-6.078125000000003553e+00,-8.890625000000005329e+00,-8.843750000000005329e+00,-9.359375000000005329e+00,-7.656250000000005329e+00,-6.375000000000004441e+00,-5.140625000000003553e+00,-3.578125000000002665e+00,-2.453125000000001776e+00,-1.593750000000001332e+00,-1.281250000000000888e+00,-7.656250000000004441e-01,-5.312500000000003331e-01,-2.968750000000001665e-01,-1.562500000000001041e-02,-1.562500000000001041e-02,3.125000000000002082e-02,3.125000000000002082e-02,-5.625000000000003331e-01,-1.562500000000000888e+00,-3.281250000000001776e+00,-4.968750000000003553e+00,-4.703125000000003553e+00,-3.687500000000002665e+00,-3.125000000000004441e-01,1.468750000000000888e+00,-9.843750000000006661e-01,-3.343750000000002665e+00,-9.703125000000007105e+00,-1.217187500000000711e+01,-8.125000000000003553e+00,-5.359375000000002665e+00,2.937500000000002665e+00,9.687500000000007105e+00,1.067187500000000711e+01,1.335937500000000888e+01,1.067187500000000711e+01,4.937500000000003553e+00,2.421875000000001776e+00,-1.046875000000000444e+00,-2.859375000000001776e+00,-1.171875000000000666e+00,-2.406250000000001332e+00,-5.046875000000003553e+00,-4.359375000000002665e+00,-5.375000000000003553e+00,-3.390625000000002220e+00,1.156250000000001332e+00,-2.015625000000000888e+00,-6.234375000000004441e+00,-1.181250000000000711e+01,-1.807812500000001421e+01,-1.312500000000001066e+01,-3.656250000000003109e+00,5.390625000000003553e+00,1.326562500000001066e+01,8.000000000000007105e+00,-3.703125000000002220e+00,-1.565625000000001066e+01,-2.784375000000001776e+01,-2.895312500000001776e+01,-2.440625000000001421e+01,-1.781250000000001066e+01,-8.015625000000001776e+00,-1.749999999999998890e+00,4.015625000000003553e+00,1.032812500000000711e+01,1.520312500000000711e+01,1.793750000000001066e+01,1.578125000000000888e+01,9.812500000000003553e+00,9.687499999999933387e-01,-6.328125000000015987e+00,-7.218750000000019540e+00,-3.546875000000010214e+00,4.984375000000001776e+00,1.571875000000001776e+01,2.253125000000002842e+01,2.489062500000002842e+01,2.279687500000002132e+01,1.640625000000001421e+01,9.890625000000007105e+00,5.328125000000003553e+00,2.515625000000001776e+00,1.687500000000001332e+00,1.937500000000001332e+00,2.625000000000001776e+00,3.359375000000002220e+00,5.218750000000003553e+00,6.531250000000004441e+00,8.296875000000005329e+00,1.103125000000001066e+01,1.101562500000001421e+01,1.342187500000001776e+01,1.284375000000002132e+01,9.875000000000014211e+00,1.006250000000000711e+01,4.609374999999996447e+00,9.999999999999862332e-01,-2.046875000000013767e+00,-9.109375000000014211e+00,-1.270312500000001421e+01,-1.490625000000001066e+01,-1.548437500000001066e+01,-1.162500000000000711e+01,-4.718750000000002665e+00,-6.875000000000002220e-01,1.703125000000001554e+00,5.156250000000006661e-01,-7.703125000000005329e+00,-1.201562500000000711e+01,-1.418750000000000888e+01,-1.387500000000000888e+01,-5.515625000000003553e+00,-7.500000000000005551e-01,1.859375000000000888e+00,4.671875000000002665e+00,3.093750000000001776e+00,4.578125000000003553e+00,6.781250000000005329e+00,8.312500000000005329e+00,6.546875000000003553e+00,1.546875000000000222e+00,-4.843750000000007772e-01,-7.125000000000005329e+00,-6.062500000000005329e+00,-2.625000000000001776e+00,-7.031250000000005329e+00,-1.156250000000000888e+00,-7.968750000000008882e-01,-1.468750000000001332e+00,5.921875000000003553e+00,2.828125000000002220e+00,1.312500000000000888e+00,-1.062500000000000888e+00,-6.156250000000003553e+00,-4.859375000000003553e+00,-4.343750000000002665e+00,-1.140625000000000444e+00,-2.031249999999997780e-01,-4.843750000000001110e-01,6.875000000000002220e-01,1.140625000000000666e+00,6.421875000000003553e+00,7.421875000000004441e+00,9.359375000000007105e+00,7.593750000000005329e+00,-2.468750000000002220e+00,-3.843750000000003109e+00,-1.025000000000000533e+01,-1.046875000000000533e+01,2.031250000000001776e+00,4.296875000000003553e+00,1.301562500000000711e+01,1.618750000000001066e+01,8.093750000000003553e+00,8.218750000000003553e+00,2.593750000000001332e+00,-1.703125000000000888e+00,-2.265625000000000888e+00,-5.484375000000003553e+00,-4.281250000000002665e+00,1.562499999999977796e-02,3.625000000000002220e+00,4.078125000000002665e+00,2.359375000000001776e+00,-3.171875000000002220e+00,-6.734375000000005329e+00,-4.812500000000003553e+00,-2.937500000000001776e+00,7.968750000000006661e-01,4.437500000000003553e+00,3.109375000000002220e+00,2.062500000000001332e+00,1.671875000000000888e+00,-1.015625000000000444e+00,-8.906250000000004441e-01,6.250000000000004441e-01,9.375000000000019429e-02,1.531250000000000888e+00,2.671875000000001332e+00,9.843750000000004441e-01,5.468750000000002220e-01,3.906250000000002220e-01,-3.124999999999955591e-02,2.375000000000001776e+00,6.703125000000003553e+00,7.234375000000005329e+00,7.781250000000005329e+00,6.437500000000003553e+00,4.687500000000006661e-01,1.093750000000000444e+00,1.812500000000001776e+00,3.609375000000003553e+00,8.421875000000007105e+00,4.828125000000004441e+00,-3.124999999999955591e-02,-5.281250000000003553e+00,-1.159375000000000711e+01,-9.921875000000007105e+00,-6.640625000000005329e+00,-4.718750000000003553e+00,-2.656250000000000000e-01,1.156250000000000444e+00,1.375000000000000666e+00,4.578125000000002665e+00,4.546875000000002665e+00,8.437500000000005551e-01,-7.968750000000006661e-01,-5.687500000000003553e+00,-9.890625000000007105e+00,-7.156250000000005329e+00,-7.828125000000005329e+00,-6.750000000000005329e+00,-3.046875000000002665e+00,-5.687500000000003553e+00,-4.421875000000002665e+00,-1.437500000000000888e+00,-3.109375000000001776e+00,5.625000000000000000e-01,1.375000000000000666e+00,-9.375000000000006661e-01,1.750000000000000888e+00,2.812500000000000000e-01,2.031249999999997780e-01,9.531250000000003331e-01,-8.281250000000006661e-01,-6.250000000000004441e-01,-1.875000000000001332e+00,-1.453125000000001110e+00,-2.328125000000001332e+00,-3.500000000000001776e+00,-9.062500000000002220e-01,-7.968750000000001110e-01,1.453125000000001332e+00,3.921875000000002665e+00,1.062500000000000888e+00,3.437500000000003331e-01,1.875000000000003331e-01,-7.500000000000002220e-01,1.750000000000001332e+00,2.781250000000001776e+00,1.250000000000000888e+00,3.437500000000000000e-01,-1.812500000000001554e+00,-3.218750000000002665e+00,-3.078125000000002665e+00,-3.281250000000002665e+00,-2.750000000000001776e+00,-2.484375000000001776e+00,-3.312500000000002665e+00,-3.921875000000002665e+00,-4.500000000000003553e+00,-5.906250000000003553e+00,-3.968750000000002665e+00,-1.781250000000000888e+00,-6.249999999999955591e-02,5.250000000000003553e+00,7.015625000000004441e+00,8.390625000000003553e+00,1.054687500000000533e+01,8.656250000000005329e+00,6.515625000000004441e+00,5.328125000000003553e+00,2.046875000000000888e+00,-1.359375000000001110e+00,-1.859375000000001332e+00,-4.359375000000003553e+00,-5.109375000000003553e+00,-2.531250000000001776e+00,-1.562500000000001332e+00,5.156250000000003331e-01,2.500000000000001776e+00,1.640625000000001332e+00,-2.031249999999997780e-01,-1.531250000000000888e+00,-3.046875000000001776e+00,-3.234375000000002220e+00,-1.812500000000001332e+00,-1.062500000000000888e+00,-4.218750000000003331e-01,-1.250000000000001110e-01,-4.218750000000002776e-01,-3.750000000000002220e-01,-7.812500000000004441e-01,-2.031250000000000888e+00,-3.593750000000001776e+00,-7.000000000000003553e+00,-9.828125000000007105e+00,-1.048437500000000711e+01,-1.146875000000000888e+01,-7.593750000000005329e+00,-3.078125000000001776e+00,-5.156249999999993339e-01,4.390625000000003553e+00,3.281250000000002665e+00,1.015625000000000444e+00,-5.000000000000013323e-01,-4.796875000000004441e+00,-3.812500000000003553e+00,-1.343750000000001110e+00,4.375000000000001110e-01,3.984375000000002220e+00,4.328125000000002665e+00,1.828125000000001110e+00,8.593750000000006661e-01,-2.031250000000000888e+00,-6.390625000000005329e+00,-7.265625000000005329e+00,-8.078125000000005329e+00,-5.421875000000003553e+00,2.984375000000003109e+00,9.578125000000007105e+00,1.226562500000000711e+01,1.134375000000000888e+01,5.703125000000004441e+00,-1.734375000000000444e+00,-3.437500000000001776e+00,-3.890625000000002220e+00,-4.062500000000002665e+00,9.375000000000000000e-02,-1.718750000000001332e+00,-3.562500000000002665e+00,-3.546875000000001776e+00,-8.046875000000003553e+00,-6.031250000000003553e+00,-2.125000000000000888e+00,4.687499999999977796e-02,7.125000000000003553e+00,8.906250000000003553e+00,5.906250000000003553e+00,4.687500000000002665e+00,-2.531250000000001332e+00,-7.406250000000004441e+00,-6.218750000000003553e+00,-7.390625000000003553e+00,-2.140625000000000888e+00,3.500000000000001776e+00,5.031250000000003553e+00,9.968750000000007105e+00,9.500000000000007105e+00,5.906250000000003553e+00,3.500000000000001332e+00,-2.187500000000002220e+00,-5.484375000000004441e+00,-4.000000000000003553e+00,-4.296875000000002665e+00,-3.609375000000000888e+00,-2.812500000000000888e+00,-7.031250000000004441e+00,-6.546875000000004441e+00,-4.046875000000003553e+00,-8.593750000000008882e-01,8.453125000000005329e+00,1.375000000000000888e+01,1.462500000000000711e+01,1.334375000000000000e+01,5.328124999999992006e+00,-3.125000000000015987e+00,-6.265625000000011546e+00,-7.656250000000005329e+00,-4.453124999999995559e+00,2.140625000000015543e+00,5.015625000000014211e+00,7.343750000000010658e+00,8.062500000000008882e+00,5.953125000000004441e+00,4.875000000000003553e+00,3.468750000000002220e+00,1.968750000000001332e+00,1.296875000000000888e+00,6.093750000000004441e-01,1.875000000000001110e-01,-3.125000000000002776e-02,-1.562500000000001110e-01,-1.562500000000001110e-01,-9.375000000000006939e-02,-3.469446951953614189e-18,4.687500000000003469e-02,3.125000000000002776e-02,-4.687500000000003469e-02,-4.687500000000004163e-02,-4.687500000000004163e-02,-4.687500000000004857e-02,3.125000000000002082e-02,1.562500000000001388e-02,4.687500000000002776e-02,1.250000000000000833e-01,9.375000000000005551e-02,9.375000000000005551e-02,4.687500000000002776e-02,-4.687500000000002776e-02,-3.125000000000002082e-02,-3.125000000000002082e-02,-1.562500000000001041e-02,1.562500000000001041e-02,-1.562500000000001041e-02,1.562500000000001041e-02,4.687500000000002776e-02,7.812500000000005551e-02,1.250000000000000833e-01,7.812500000000005551e-02,6.250000000000004163e-02,3.125000000000002776e-02,1.562500000000001041e-02,4.687500000000002776e-02,-4.687500000000002776e-02,-9.375000000000006939e-02,-2.031250000000001665e-01,-2.656250000000002220e-01,-1.406250000000001110e-01,-4.687500000000004163e-02,1.406250000000001110e-01,2.187500000000001665e-01,1.718750000000001388e-01,9.375000000000008327e-02,-3.125000000000002082e-02,-4.687500000000002776e-02,-3.125000000000002082e-02,3.125000000000002776e-02,6.250000000000004163e-02,4.687500000000002776e-02,4.687500000000002776e-02,6.250000000000005551e-02,1.250000000000000833e-01,1.562500000000001110e-01,1.562500000000001110e-01,4.687500000000004163e-02,-6.250000000000002776e-02,-7.812500000000005551e-02,-7.812500000000008327e-02,9.375000000000005551e-02,2.968750000000001665e-01,4.062500000000002776e-01,5.937500000000004441e-01,1.234375000000000888e+00,2.656250000000002220e+00,5.562500000000004441e+00,1.006250000000000711e+01,1.390625000000001421e+01,1.679687500000001776e+01,1.607812500000002132e+01,1.104687500000002132e+01,6.656250000000011546e+00,9.218749999999993339e-01,-7.187500000000073275e-01,1.890624999999987566e+00,7.656249999999904521e-01,-7.343750000000059952e-01,-9.984375000000008882e+00,-2.035937500000001066e+01,-2.053125000000001066e+01,-7.781250000000003553e+00,2.406250000000001421e+01,5.256250000000002842e+01,6.504687500000004263e+01,5.018750000000002842e+01,7.859375000000003553e+00,-3.132812500000001776e+01,-5.859375000000003553e+01,-6.040625000000004263e+01,-4.350000000000002842e+01,-2.492187500000001421e+01,-5.750000000000004441e+00,1.687500000000001332e+00,6.578125000000004441e+00,8.656250000000007105e+00,3.500000000000001776e+00,2.531250000000001776e+00,-2.812500000000001332e+00,-6.203125000000003553e+00,-4.468750000000002665e+00,-4.921875000000002665e+00,-5.312500000000000000e-01,5.625000000000006661e-01,-7.812500000000000000e-02,-1.406250000000000000e-01,-5.750000000000003553e+00,-7.718750000000005329e+00,-7.781250000000005329e+00,-8.937500000000005329e+00,-3.031250000000001776e+00,1.656250000000000888e+00,4.250000000000002665e+00,1.067187500000000711e+01,1.170312500000000711e+01,1.332812500000000711e+01,1.379687500000000711e+01,9.203125000000005329e+00,4.187500000000002665e+00,-2.531250000000001332e+00,-5.156250000000003553e+00,-3.937500000000002665e+00,6.250000000000006661e-01,4.140625000000003553e+00,2.937500000000002220e+00,-2.921875000000001332e+00,-9.968750000000005329e+00,-1.242187500000000711e+01,-1.175000000000000711e+01,-4.109375000000001776e+00,1.953125000000001332e+00,4.468750000000003553e+00,7.734375000000005329e+00,4.640625000000003553e+00,3.953125000000002665e+00,4.203125000000002665e+00,1.093750000000000888e+00,1.656250000000000888e+00,2.187500000000000000e-01,-1.250000000000000666e+00,-9.218750000000006661e-01,-3.343750000000001776e+00,-3.406250000000002220e+00,-3.765625000000002665e+00,-3.765625000000002665e+00,-1.110223024625156540e-16,-5.625000000000004441e-01,-8.593750000000005551e-01,-1.656250000000000888e+00,-6.406250000000003553e+00,-7.593750000000005329e+00,-1.021875000000000711e+01,-1.418750000000001066e+01,-1.739062500000001066e+01,-1.773437500000001066e+01,-1.307812500000000888e+01,-2.765625000000003109e+00
2.406250000000001066e+01,1.368750000000000711e+01,4.312500000000000888e+00,1.443750000000000711e+01,6.562500000000004441e+00,-8.937500000000003553e+00,-9.375000000000005329e+00,-4.875000000000002665e+00,-3.750000000000002220e-01,2.687500000000001332e+00,1.375000000000000666e+00,-1.875000000000000555e-01,3.437500000000001776e+00,6.875000000000003553e+00,-1.812500000000001332e+00,-5.562500000000002665e+00,9.375000000000005551e-01,-5.250000000000002665e+00,-7.125000000000003553e+00,5.000000000000001776e+00,9.500000000000003553e+00,5.875000000000002665e+00,-6.312500000000002665e+00,-1.731250000000000711e+01,-2.000000000000000000e+00,1.962500000000001066e+01,1.068750000000000711e+01,-7.187500000000003553e+00,-8.812500000000003553e+00,-7.500000000000003553e+00,2.312500000000001776e+00,1.512500000000000711e+01,7.562500000000002665e+00,-9.125000000000003553e+00,-1.681250000000000711e+01,-4.437500000000001776e+00,1.437500000000000711e+01,5.687500000000003553e+00,-1.218750000000000533e+01,-4.562500000000001776e+00,9.250000000000003553e+00,6.125000000000002665e+00,1.187500000000000222e+00,-2.125000000000000888e+00,-1.025000000000000533e+01,-2.500000000000000000e-01,1.406250000000000711e+01,-2.375000000000000000e+00,-1.493750000000000533e+01,1.125000000000000888e+00,9.625000000000003553e+00,2.250000000000000888e+00,-3.625000000000001332e+00,-1.625000000000000222e+00,3.875000000000001776e+00,-1.750000000000000888e+00,-1.812500000000000444e+00,6.187500000000002665e+00,-4.437500000000001776e+00,-5.937500000000002665e+00,1.062500000000000355e+01,1.375000000000000000e+00,-1.550000000000000711e+01,1.000000000000000000e+00,1.643750000000000711e+01,1.062500000000000000e+00,-7.687500000000004441e+00,-8.125000000000006661e-01,-5.437500000000001776e+00,-5.812500000000002665e+00,8.750000000000003553e+00,8.312500000000003553e+00,-6.750000000000003553e+00,-4.875000000000002665e+00,7.375000000000003553e+00,1.125000000000000888e+00,-1.218750000000000533e+01,-4.375000000000001776e+00,1.512500000000000711e+01,1.493750000000000711e+01,-4.187500000000001776e+00,-1.356250000000000711e+01,-9.437500000000005329e+00,5.625000000000000000e-01,9.312500000000003553e+00,2.250000000000000000e+00,-4.375000000000001776e+00,3.187500000000001332e+00,3.812500000000001776e+00,-6.437500000000002665e+00,-7.875000000000003553e+00,2.312500000000000888e+00,7.125000000000002665e+00,1.625000000000000222e+00,1.500000000000000666e+00,8.750000000000003553e+00,3.375000000000001332e+00,-7.312500000000003553e+00,-9.250000000000003553e+00,-8.000000000000003553e+00,1.937500000000001332e+00,7.687500000000003553e+00,4.125000000000001776e+00,5.250000000000001776e+00,-1.250000000000000444e+00,-5.312500000000001776e+00,7.500000000000003331e-01,-6.250000000000003553e+00,-1.081250000000000533e+01,6.812500000000001776e+00,1.981250000000000711e+01,3.750000000000002665e+00,-1.675000000000000711e+01,-5.812500000000003553e+00,9.000000000000003553e+00,-4.562500000000001776e+00,-1.112500000000000355e+01,4.937500000000002665e+00,1.243750000000000533e+01,6.250000000000000000e-01,-5.437500000000001776e+00,7.687500000000003553e+00,8.937500000000003553e+00,-7.000000000000003553e+00,-1.456250000000000711e+01,-9.187500000000003553e+00,7.875000000000002665e+00,1.631250000000000711e+01,8.750000000000017764e-01,-1.106250000000000355e+01,-2.375000000000000888e+00,1.750000000000001554e+00,-6.375000000000002665e+00,2.812500000000000888e+00,1.425000000000000711e+01,-1.062500000000000000e+00,-8.937500000000005329e+00,2.125000000000000888e+00,1.125000000000000888e+00,-3.312500000000001332e+00,1.562500000000000444e+00,-5.000000000000000000e-01,-9.125000000000003553e+00,-2.750000000000000888e+00,1.268750000000000533e+01,4.000000000000001776e+00,-1.281250000000000533e+01,-3.750000000000000000e-01,1.806250000000000711e+01,1.150000000000000533e+01,-5.000000000000002665e+00,-1.268750000000000711e+01,-9.000000000000003553e+00,5.500000000000002665e+00,7.312500000000003553e+00,-6.875000000000003553e+00,4.375000000000000000e-01,1.062500000000000533e+01,-2.937500000000001776e+00,-8.375000000000003553e+00,-3.062500000000001776e+00,-1.250000000000002220e-01,4.500000000000001776e+00,2.625000000000001332e+00,-5.062500000000001776e+00,-3.250000000000001332e+00,7.312500000000003553e+00,1.437500000000001776e+00,-1.137500000000000533e+01,-2.000000000000001776e+00,6.687500000000002665e+00,5.125000000000001776e+00,5.937500000000002665e+00,-6.437500000000001776e+00,-1.268750000000000533e+01,5.687500000000001776e+00,7.125000000000002665e+00,-5.937500000000002665e+00,-1.000000000000000444e+00,3.750000000000001776e+00,1.250000000000001110e-01,-1.437500000000000666e+00,3.250000000000001332e+00,1.006250000000000355e+01,-2.812500000000001776e+00,-2.131250000000001066e+01,-8.937500000000005329e+00,1.631250000000000711e+01,1.256250000000000711e+01,-7.812500000000003553e+00,-4.062500000000001776e+00,5.937500000000002665e+00,-8.062500000000003553e+00,-1.462500000000000533e+01,7.500000000000008882e-01,1.150000000000000533e+01,1.487500000000000711e+01,5.812500000000002665e+00,-1.318750000000000711e+01,-5.937500000000003553e+00,8.062500000000003553e+00,-3.562500000000001776e+00,-3.000000000000001776e+00,5.187500000000002665e+00,-5.812500000000002665e+00,-4.125000000000002665e+00,3.875000000000000888e+00,2.000000000000000888e+00,6.812500000000003553e+00,1.375000000000000888e+00,-8.500000000000003553e+00,-2.437500000000000888e+00,3.875000000000001776e+00,4.187500000000001776e+00,6.250000000000004441e-01,1.937500000000001332e+00,1.500000000000000888e+00,-9.375000000000003553e+00,-8.125000000000000000e-01,1.181250000000000533e+01,-6.937500000000003553e+00,-1.350000000000000533e+01,9.750000000000005329e+00,9.812500000000003553e+00,-8.187500000000003553e+00,-8.312500000000003553e+00,1.062500000000000000e+00,1.350000000000000711e+01,1.250000000000000711e+01,-9.375000000000003553e+00,-1.475000000000000711e+01,-4.000000000000001776e+00,2.625000000000001332e+00,1.050000000000000533e+01,5.875000000000002665e+00,-2.187500000000000888e+00,2.625000000000001332e+00,-3.812500000000002220e+00,-1.337500000000000711e+01,4.375000000000000000e-01,1.000000000000000533e+01,-8.562500000000003553e+00,-1.206250000000000533e+01,1.381250000000000711e+01,1.612500000000000711e+01,-4.687500000000001776e+00,-7.125000000000002665e+00,-3.937500000000002220e+00,-1.118750000000000533e+01,-3.875000000000001776e+00,1.400000000000000533e+01,1.118750000000000355e+01,-1.375000000000000444e+00,-6.375000000000002665e+00,-8.437500000000003553e+00,8.750000000000008882e-01,1.468750000000000711e+01,6.062500000000001776e+00,-1.268750000000000533e+01,-9.312500000000003553e+00,1.000000000000000222e+00,3.500000000000000888e+00,1.318750000000000711e+01,7.750000000000003553e+00,-1.693750000000000711e+01,-1.506250000000000711e+01,6.312500000000003553e+00,1.175000000000000533e+01,6.000000000000002665e+00,-6.062500000000002665e+00,-1.181250000000000533e+01,3.937500000000001776e+00,7.937500000000003553e+00,-3.125000000000000888e+00,4.000000000000002665e+00,6.000000000000003553e+00,-7.750000000000003553e+00,-1.037500000000000533e+01,-2.875000000000001776e+00,1.056250000000000355e+01,1.406250000000000533e+01,-5.500000000000001776e+00,-1.543750000000000711e+01,-1.812500000000000888e+00,1.156250000000000533e+01,9.312500000000003553e+00,-1.250000000000000888e+00,-4.937500000000002665e+00,-7.000000000000002665e+00,-1.212500000000000533e+01,-6.937500000000003553e+00,7.875000000000003553e+00,1.018750000000000355e+01,-8.750000000000008882e-01,-2.875000000000001332e+00,4.000000000000001776e+00,7.000000000000003553e+00,5.375000000000002665e+00,1.625000000000000888e+00,2.500000000000004996e-01,-1.312500000000000444e+00,-9.375000000000003553e+00,-6.250000000000003553e+00,7.250000000000003553e+00,3.625000000000002665e+00,-3.750000000000000000e-01,5.500000000000002665e+00,-3.750000000000000000e-01,-6.562500000000002665e+00,-5.562500000000001776e+00,2.062500000000000444e+00,2.043750000000000711e+01,1.825000000000000711e+01,-9.687500000000005329e+00,-2.212500000000001066e+01,-8.062500000000003553e+00,8.062500000000003553e+00,1.200000000000000711e+01,1.212500000000000533e+01,2.500000000000000000e+00,-1.187500000000000711e+01,-2.500000000000000000e-01,1.168750000000000711e+01,1.875000000000017764e-01,-3.750000000000000000e-01,8.437500000000001776e+00,7.875000000000003553e+00,1.687500000000002442e+00,-9.187500000000005329e+00,-1.543750000000000711e+01,-1.268750000000000533e+01,-7.750000000000002665e+00,-3.062500000000000888e+00,-3.125000000000001665e-01,2.500000000000001110e-01,0.000000000000000000e+00,-2.500000000000001110e-01,-6.250000000000002776e-02,1.250000000000000555e-01,6.250000000000002776e-02,-6.250000000000002776e-02,-1.250000000000000555e-01,0.000000000000000000e+00,1.250000000000000555e-01,1.250000000000000555e-01,1.250000000000000555e-01,6.250000000000002776e-02,6.250000000000002776e-02,0.000000000000000000e+00,-3.125000000000001110e-01,-3.125000000000001110e-01,1.250000000000000833e-01,3.125000000000001665e-01,0.000000000000000000e+00,-1.875000000000000833e-01,6.250000000000002776e-02,6.250000000000002776e-02,-1.875000000000000833e-01,-6.250000000000002776e-02,-9.687500000000003553e+00,-2.950000000000001066e+01,-1.456250000000000533e+01,3.450000000000001421e+01,3.262500000000001421e+01,-1.737500000000000711e+01,-2.793750000000001066e+01,4.750000000000001776e+00,1.306250000000000533e+01,-3.993750000000001421e+01,-7.968750000000002842e+01,-3.100000000000001421e+01,1.924999999999999645e+01,1.324999999999998757e+01,2.406250000000000711e+01,5.156250000000003553e+01,4.093750000000002842e+01,1.318750000000000533e+01,1.937500000000000888e+00,6.875000000000003331e-01,6.250000000000005551e-02,-3.750000000000001665e-01,-2.500000000000001110e-01,1.250000000000000833e-01,2.500000000000001110e-01,1.875000000000000833e-01,0.000000000000000000e+00,-6.250000000000002776e-02,1.875000000000001110e-01,2.500000000000001110e-01,0.000000000000000000e+00,-1.250000000000000555e-01,-2.500000000000001110e-01,-2.500000000000001110e-01,1.875000000000000833e-01,4.375000000000002220e-01,-6.250000000000000000e-02,-4.375000000000002220e-01,6.250000000000000000e-02,3.125000000000001110e-01,-1.875000000000000833e-01,-2.500000000000001110e-01,1.250000000000000555e-01,0.000000000000000000e+00,-6.250000000000002776e-02,3.750000000000002220e-01,3.750000000000002220e-01,-1.875000000000000833e-01,-6.250000000000003331e-01,-3.750000000000002220e-01,3.125000000000001110e-01,4.375000000000001665e-01,1.875000000000000833e-01,6.250000000000002776e-02,-1.250000000000000555e-01,-2.500000000000001110e-01,-1.875000000000000833e-01,6.250000000000002776e-02,2.500000000000001110e-01,6.250000000000002776e-02,-1.250000000000000555e-01,-6.250000000000002776e-02,-6.250000000000002776e-02,-1.875000000000000833e-01,-6.250000000000002776e-02,3.125000000000001110e-01,3.125000000000001110e-01,-6.250000000000002776e-02,-1.250000000000000555e-01,1.250000000000000555e-01,1.250000000000000555e-01,-1.875000000000001110e-01,-3.125000000000001665e-01,0.000000000000000000e+00,2.500000000000001110e-01,3.750000000000001665e-01,5.750000000000001776e+00,1.562500000000001243e+01,9.750000000000017764e+00,-8.500000000000003553e+00,-5.750000000000015987e+00,1.225000000000000000e+01,1.162500000000000533e+01,-6.125000000000003553e+00,-1.075000000000000533e+01,1.250000000000001332e+00,5.312500000000001776e+00,1.375000000000000222e+00,6.875000000000002220e-01,-3.500000000000001776e+00,-4.812500000000001776e+00,6.562500000000004441e+00,8.812500000000005329e+00,-7.250000000000005329e+00,-1.043750000000000533e+01,6.375000000000001776e+00,1.006250000000000178e+01,-1.562500000000000444e+00,-7.562500000000002665e+00,-7.625000000000003553e+00,-5.625000000000000000e-01,5.437500000000003553e+00,1.687500000000001110e+00,-6.250000000000011102e-02,-4.625000000000002665e+00,-1.000000000000000533e+01,2.250000000000000888e+00,6.875000000000003553e+00,-1.100000000000000355e+01,-1.018750000000000355e+01,1.193750000000000355e+01,1.600000000000000711e+01,-3.625000000000001776e+00,-1.781250000000000711e+01,-5.000000000000001776e+00,9.875000000000003553e+00,3.125000000000000000e-01,-1.075000000000000355e+01,-4.250000000000001776e+00,3.625000000000001332e+00,1.312500000000000444e+00,-2.312500000000000888e+00,-1.500000000000000444e+00,6.250000000000000000e-02,5.000000000000002220e-01,6.250000000000000000e-02,-3.750000000000002220e-01,-1.250000000000000833e-01,1.250000000000000555e-01,6.250000000000002776e-02,6.250000000000002776e-02,1.250000000000000555e-01,-6.250000000000002776e-02,-3.125000000000001665e-01,-1.250000000000000833e-01,-1.875000000000000888e+00,-5.750000000000002665e+00,-4.312500000000001776e+00,4.062500000000001776e+00,1.081250000000000533e+01,4.062500000000002665e+00,-1.081250000000000355e+01,-1.162500000000000533e+01,-6.437500000000003553e+00,-1.750000000000000888e+00,1.287500000000000355e+01,7.750000000000001776e+00,-1.293750000000000533e+01,5.000000000000017764e-01,2.281250000000001421e+01,8.875000000000005329e+00,-1.600000000000000711e+01,-1.431250000000000711e+01,8.687500000000003553e+00,1.400000000000000533e+01,-7.375000000000001776e+00,-1.031250000000000355e+01,7.125000000000003553e+00,9.375000000000008882e-01,-1.262500000000000711e+01,-3.750000000000002665e+00,1.112500000000000355e+01,1.512500000000000711e+01,-3.437500000000001776e+00,-2.681250000000001421e+01,-1.768750000000000711e+01,5.625000000000004441e+00,1.225000000000000711e+01,9.312500000000003553e+00,7.250000000000003553e+00,6.500000000000003553e+00,-6.750000000000001776e+00,-2.450000000000001066e+01,-1.581250000000000711e+01,1.312500000000001998e+00,-1.250000000000000000e-01,-4.937500000000004441e+00,-6.875000000000000000e-01,5.750000000000005329e+00,2.250000000000000444e+00,-6.187500000000005329e+00,4.437500000000002665e+00,2.475000000000001421e+01,1.293750000000000533e+01,-1.912500000000000711e+01,-1.493750000000000533e+01,1.012500000000000711e+01,1.374999999999993783e+00,-1.468750000000002132e+01,2.625000000000002665e+00,2.087500000000002132e+01,1.387500000000001243e+01,3.187500000000001776e+00,1.062500000000000666e+00,7.500000000000003331e-01,1.875000000000000555e-01,2.500000000000001665e-01,3.750000000000002220e-01,4.375000000000002220e-01,5.625000000000002220e-01,6.250000000000002220e-01,4.375000000000001110e-01,8.750000000000003331e-01,3.687500000000001776e+00,4.187500000000001776e+00,8.750000000000003331e-01,1.187500000000007994e+00,5.250000000000016875e+00,1.012500000000000355e+01,2.624999999999986233e+00,-1.156250000000001243e+01,2.187500000000001776e+00,1.606250000000000711e+01,-6.125000000000003553e+00,-1.812500000000000711e+01,-3.749999999999991118e-01,4.062500000000001776e+00,-9.562500000000003553e+00,-1.100000000000000533e+01,3.187500000000002220e+00,1.412500000000000711e+01,5.750000000000002665e+00,-7.500000000000003553e+00,-6.250000000000003553e+00,-8.000000000000003553e+00,-1.062500000000000533e+01,6.875000000000000000e-01,5.750000000000002665e+00,4.375000000000002665e+00,4.500000000000002665e+00,-4.187500000000001776e+00,-6.750000000000003553e+00,3.187500000000001332e+00,6.312500000000002665e+00,6.562500000000002665e+00,9.812500000000003553e+00,-5.875000000000002665e+00,-2.137500000000001066e+01,1.750000000000000000e+00,1.431250000000000711e+01,-3.125000000000000888e+00,-3.062500000000000444e+00,-5.312500000000001776e+00,-8.437500000000003553e+00,1.075000000000000533e+01,1.162500000000000533e+01,-3.562500000000001776e+00,-3.812500000000001776e+00,-2.187500000000000888e+00,-6.375000000000002665e+00,-2.312500000000000888e+00,6.062500000000002665e+00,1.250000000000000888e+00,-1.812500000000000444e+00,3.812500000000001332e+00,-4.375000000000001776e+00,-1.212500000000000355e+01,8.562500000000005329e+00,2.568750000000001421e+01,-2.250000000000000000e+00,-2.081250000000001066e+01,6.625000000000003553e+00,1.125000000000000711e+01,-1.250000000000000711e+01,-2.062500000000000711e+01,-4.687500000000001776e+00,3.156250000000001421e+01,2.762500000000001421e+01,-1.856250000000000711e+01,-2.181250000000000711e+01,8.187500000000003553e+00,1.750000000000000711e+01,5.375000000000003553e+00,-1.206250000000000355e+01,-1.756250000000000711e+01,-3.937500000000001776e+00,1.475000000000000711e+01,1.800000000000000711e+01,-4.375000000000000000e-01,-1.756250000000000711e+01,-7.375000000000002665e+00,6.375000000000002665e+00,1.250000000000004441e-01,-8.750000000000000000e-01,3.812500000000001776e+00,-1.750000000000001110e+00,2.187500000000000888e+00,7.500000000000003553e+00,-7.000000000000002665e+00,-9.937500000000003553e+00,7.750000000000003553e+00,9.312500000000003553e+00,-5.625000000000002665e+00,-9.437500000000003553e+00,4.312500000000001776e+00,1.450000000000000711e+01,-1.375000000000000000e+00,-1.800000000000000711e+01,-1.687500000000000000e+00,1.562500000000000711e+01,4.937500000000002665e+00,-3.187500000000000888e+00,1.062500000000000666e+00,3.312500000000001776e+00,3.187500000000001776e+00,-7.500000000000003553e+00,-1.143750000000000355e+01,9.125000000000003553e+00,2.181250000000000711e+01,5.687500000000003553e+00,-1.800000000000000711e+01,-1.712500000000000711e+01,3.000000000000001332e+00,5.250000000000001776e+00,-9.375000000000004441e-01,3.500000000000001776e+00,-3.750000000000001776e+00,-9.250000000000003553e+00,7.750000000000002665e+00,1.106250000000000355e+01,-3.125000000000000888e+00,-2.500000000000001332e+00,2.499999999999995559e-01,-4.687500000000001776e+00,-6.125000000000001776e+00,-4.437500000000001776e+00,5.000000000000001776e+00,5.250000000000001776e+00,-9.750000000000003553e+00,-4.437500000000001776e+00,6.250000000000002665e+00,-3.500000000000001776e+00,-3.125000000000001776e+00,6.375000000000002665e+00,3.250000000000001776e+00,-4.437500000000001776e+00,-7.250000000000003553e+00,3.437500000000001776e+00,1.200000000000000711e+01,-2.125000000000000888e+00,-1.325000000000000711e+01,6.250000000000088818e-02,1.056250000000000533e+01,-1.250000000000000000e-01,-6.000000000000002665e+00,-2.312500000000000888e+00,-4.187500000000001776e+00,2.562500000000001332e+00,9.750000000000003553e+00,4.375000000000000000e-01,-3.625000000000002220e+00,-1.937500000000001110e+00,-5.562500000000002665e+00,1.437500000000000888e+00,1.056250000000000533e+01,2.312500000000000888e+00,-7.125000000000003553e+00,-3.562500000000001776e+00,2.125000000000000888e+00,1.562500000000000888e+00,-1.062500000000000444e+00,-2.812500000000001332e+00,-3.437500000000001776e+00,1.500000000000000888e+00,5.625000000000003553e+00,-2.812500000000000444e+00,-9.687500000000003553e+00,-1.312500000000000000e+00,4.125000000000002665e+00,9.375000000000006661e-01,-1.062500000000000666e+00,-2.000000000000000888e+00,5.500000000000003553e+00,1.018750000000000533e+01,-1.437500000000000888e+00,-3.125000000000001776e+00,6.437500000000003553e+00,6.250000000000008882e-01,-3.437500000000001776e+00,3.562500000000001776e+00,-3.312500000000001776e+00,-7.500000000000003553e+00,4.125000000000001776e+00,1.812500000000000000e+00,-6.750000000000003553e+00,2.437500000000000888e+00,8.812500000000003553e+00,-4.375000000000000000e-01,-5.875000000000002665e+00,-2.625000000000000888e+00,6.250000000000005551e-02,7.500000000000004441e-01,3.750000000000002220e-01,-1.250000000000000555e-01,-1.250000000000000555e-01,-3.125000000000001110e-01,-3.750000000000001665e-01,-6.250000000000002776e-02,1.875000000000000833e-01,1.875000000000000833e-01,1.250000000000000555e-01,-2.125000000000000888e+00,-8.125000000000003553e+00,-6.437500000000001776e+00,3.375000000000001332e+00,-1.500000000000001332e+00,-7.375000000000003553e+00,7.062500000000002665e+00,1.125000000000000355e+01,-3.687500000000000888e+00,-8.187500000000003553e+00,2.375000000000000888e+00,4.500000000000001776e+00,-1.006250000000000355e+01,-8.500000000000003553e+00,1.450000000000000711e+01,1.325000000000000711e+01,-8.812500000000003553e+00,-1.006250000000000355e+01,2.062500000000000888e+00,7.562500000000003553e+00,4.000000000000000888e+00,-1.093750000000000355e+01,-1.575000000000000533e+01,-1.875000000000000000e-01,1.050000000000000355e+01,1.387500000000000711e+01,1.275000000000000533e+01,-6.250000000000003553e+00,-1.668750000000000711e+01,2.500000000000000000e+00,9.375000000000003553e+00,-5.000000000000001776e+00,-5.812500000000001776e+00,2.375000000000000888e+00,5.437500000000002665e+00,5.000000000000008882e-01,-7.312500000000002665e+00,-5.625000000000001776e+00,-3.750000000000001776e+00,8.125000000000000000e-01,1.075000000000000533e+01,2.000000000000000888e+00,-5.187500000000002665e+00,9.312500000000003553e+00,7.062500000000001776e+00,-1.125000000000000533e+01,-1.275000000000000533e+01,-9.375000000000004441e-01,8.500000000000003553e+00,2.375000000000000888e+00,-5.437500000000002665e+00,2.250000000000001776e+00,6.125000000000003553e+00,5.750000000000002665e+00,7.000000000000002665e+00,-5.187500000000002665e+00,-1.350000000000000533e+01,-1.499999999999999556e+00,6.937500000000003553e+00,3.125000000000001332e+00,-2.812500000000000888e+00,-4.500000000000001776e+00,-5.625000000000006661e-01,-4.000000000000001776e+00,-6.375000000000001776e+00,3.875000000000001776e+00,7.000000000000001776e+00,7.187500000000003553e+00,1.187500000000000711e+01,2.312500000000001776e+00,-8.437500000000003553e+00,-5.375000000000009770e+00,-5.750000000000017764e+00,-3.687500000000001776e+00,6.625000000000017764e+00,5.500000000000009770e+00,-7.500000000000002220e-01,1.500000000000000666e+00,3.250000000000001332e+00,1.187500000000000444e+00,1.250000000000000555e-01,1.875000000000000833e-01,1.875000000000000833e-01,1.250000000000000555e-01,1.250000000000000555e-01,0.000000000000000000e+00,-1.875000000000000833e-01,-2.500000000000001110e-01,-1.250000000000000555e-01,1.875000000000001110e-01,3.125000000000001665e-01,0.000000000000000000e+00,-2.500000000000001110e-01,-1.250000000000000555e-01,0.000000000000000000e+00,1.250000000000000555e-01,1.875000000000000833e-01,-1.250000000000000833e-01,-2.500000000000001110e-01,6.250000000000002776e-02,2.500000000000001110e-01,1.875000000000000833e-01,-6.250000000000002776e-02,-2.500000000000001110e-01,-6.250000000000002776e-02,1.250000000000000555e-01,6.250000000000002776e-02,0.000000000000000000e+00,0.000000000000000000e+00,-6.250000000000002776e-02,-1.250000000000000555e-01,6.250000000000002776e-02,2.500000000000001110e-01,6.250000000000002776e-02,-1.250000000000000555e-01,-6.250000000000002776e-02,0.000000000000000000e+00,0.000000000000000000e+00,1.250000000000000555e-01,1.875000000000000833e-01,-1.875000000000000833e-01,-3.750000000000001665e-01,-6.250000000000002776e-02,6.250000000000002776e-02,6.250000000000002776e-02,1.875000000000000833e-01,1.875000000000000833e-01,0.000000000000000000e+00,-1.250000000000000555e-01,-1.250000000000000555e-01,-1.250000000000000555e-01,6.250000000000002776e-02,3.125000000000001665e-01,1.250000000000000833e-01,-3.125000000000001110e-01,-2.500000000000001110e-01,2.500000000000001110e-01,3.125000000000001110e-01,-6.250000000000002776e-02,-6.250000000000002776e-02,1.875000000000000833e-01,-1.250000000000000555e-01,-4.375000000000002220e-01,6.250000000000000000e-02,3.750000000000001665e-01,1.250000000000000555e-01,1.250000000000000833e-01,6.250000000000005551e-02,-1.387778780781445676e-17,5.000000000000002220e-01,5.625000000000003331e-01,2.000000000000000888e+00,7.500000000000003553e+00,1.087500000000001243e+01,6.750000000000017764e+00,-1.937500000000001332e+00,-7.062500000000017764e+00,-1.687500000000007550e+00,1.375000000000001332e+00,-5.000000000000001110e-01,6.062500000000002665e+00,6.125000000000002665e+00,-3.437500000000001776e+00,-9.750000000000005329e+00,-2.400000000000001066e+01,-3.400000000000001421e+01,9.562500000000007105e+00,8.837500000000004263e+01,8.231250000000002842e+01,-2.037500000000000711e+01,-7.693750000000002842e+01,-4.281250000000001421e+01,3.750000000000008882e-01,5.437500000000003553e+00,-4.000000000000001776e+00,-6.125000000000003553e+00,-2.437500000000001776e+00,9.500000000000003553e+00,9.500000000000003553e+00,-3.187500000000000888e+00,-1.000000000000000000e+00,1.125000000000000444e+00,-4.625000000000002665e+00,-3.250000000000001776e+00,-9.375000000000003331e-01,-1.750000000000000666e+00,1.187500000000000444e+00,7.312500000000002665e+00,6.875000000000000000e-01,-9.000000000000003553e+00,7.500000000000008882e-01,2.062500000000000888e+00,-1.150000000000000533e+01,-4.750000000000001776e+00,6.687500000000003553e+00,4.187500000000001776e+00,2.812500000000001332e+00,3.750000000000000000e-01,5.000000000000000000e-01,7.312500000000002665e+00,8.562500000000003553e+00,3.312500000000001332e+00,-1.875000000000000444e+00,-7.625000000000001776e+00,-1.187500000000000533e+01,-2.250000000000001776e+00,1.387500000000000533e+01,1.356250000000000533e+01,-1.062500000000000444e+00,-1.106250000000000711e+01,-1.306250000000000711e+01,-8.750000000000003553e+00,3.312500000000000888e+00,9.500000000000003553e+00,5.812500000000002665e+00,-1.812500000000001110e+00,-6.250000000000002665e+00,4.125000000000002665e+00,7.812500000000003553e+00,-3.937500000000001332e+00,-1.750000000000000000e+00,4.562500000000002665e+00,-3.875000000000000888e+00,-4.937500000000001776e+00,7.625000000000003553e+00,4.875000000000002665e+00,-1.306250000000000711e+01,-7.875000000000004441e+00,1.037500000000000355e+01,3.812500000000001776e+00,-4.812500000000001776e+00,2.375000000000001776e+00,1.625000000000000888e+00,-8.000000000000003553e+00,-9.500000000000005329e+00,3.750000000000001776e+00,1.150000000000000533e+01,-1.068750000000000533e+01,-3.156250000000001421e+01,-6.875000000000003553e+00
4.525000000000001421e+01,-1.525000000000000355e+01,-8.250000000000001776e+00,2.200000000000000355e+01,-5.500000000000000888e+00,-4.000000000000000000e+00,-4.500000000000000888e+00,6.250000000000001776e+00,-1.400000000000000355e+01,2.100000000000000355e+01,-2.200000000000000355e+01,2.250000000000000355e+01,-2.250000000000000355e+01,2.125000000000000355e+01,-4.250000000000000888e+00,-1.550000000000000355e+01,1.775000000000000355e+01,-4.500000000000000888e+00,-1.850000000000000355e+01,2.450000000000000711e+01,-1.525000000000000355e+01,1.250000000000000355e+01,0.000000000000000000e+00,-1.500000000000000355e+01,0.000000000000000000e+00,8.250000000000001776e+00,1.900000000000000355e+01,-3.200000000000000711e+01,2.375000000000000711e+01,-1.600000000000000355e+01,-4.750000000000000888e+00,2.200000000000000355e+01,-1.000000000000000178e+01,3.500000000000000444e+00,-7.000000000000001776e+00,-1.150000000000000355e+01,1.675000000000000355e+01,8.750000000000003553e+00,-2.500000000000000711e+01,1.475000000000000355e+01,-9.500000000000001776e+00,2.250000000000000711e+01,-3.000000000000000711e+01,3.275000000000000711e+01,-2.675000000000000711e+01,-5.000000000000000000e-01,2.050000000000000355e+01,-5.750000000000000888e+00,-1.500000000000000355e+01,3.500000000000000000e+00,1.875000000000000711e+01,-2.575000000000000711e+01,3.000000000000000711e+01,-3.500000000000000711e+01,2.975000000000000711e+01,-9.750000000000001776e+00,-1.400000000000000355e+01,2.350000000000000711e+01,-8.000000000000000000e+00,-1.850000000000000355e+01,2.425000000000000711e+01,-1.250000000000000000e+00,-1.600000000000000355e+01,-1.500000000000000000e+00,2.075000000000000355e+01,-4.750000000000000000e+00,-1.775000000000000355e+01,2.225000000000000355e+01,-1.500000000000000355e+01,-1.000000000000000000e+00,1.000000000000000000e+00,1.650000000000000355e+01,-1.800000000000000355e+01,3.250000000000000444e+00,1.000000000000000000e+00,1.250000000000000178e+01,-2.150000000000000355e+01,8.250000000000001776e+00,-3.750000000000001332e+00,2.150000000000000711e+01,-1.450000000000000355e+01,-4.500000000000000888e+00,6.000000000000001776e+00,-1.475000000000000355e+01,1.775000000000000355e+01,2.500000000000000000e-01,-1.725000000000000355e+01,2.025000000000000355e+01,-1.375000000000000355e+01,1.500000000000000355e+01,-2.600000000000000711e+01,2.300000000000000711e+01,-1.375000000000000355e+01,1.525000000000000355e+01,-1.600000000000000355e+01,1.100000000000000355e+01,1.075000000000000355e+01,-2.525000000000000711e+01,2.200000000000000355e+01,-1.975000000000000355e+01,2.500000000000000000e-01,2.275000000000000711e+01,-2.775000000000000711e+01,2.400000000000000711e+01,-4.250000000000000000e+00,-1.775000000000000355e+01,2.325000000000000355e+01,-1.475000000000000355e+01,-2.250000000000000000e+00,-2.750000000000000888e+00,1.700000000000000355e+01,-5.000000000000000000e-01,-7.500000000000001776e+00,-1.725000000000000355e+01,3.200000000000000711e+01,-1.725000000000000355e+01,-1.050000000000000355e+01,1.650000000000000355e+01,-1.050000000000000355e+01,2.200000000000000711e+01,-3.075000000000000711e+01,1.900000000000000355e+01,9.250000000000003553e+00,-1.925000000000000355e+01,1.200000000000000355e+01,-1.650000000000000355e+01,3.500000000000000000e+00,1.950000000000000711e+01,-1.350000000000000355e+01,4.750000000000000888e+00,-1.600000000000000355e+01,2.575000000000000711e+01,-2.200000000000000711e+01,-2.500000000000000000e-01,2.050000000000000711e+01,-7.000000000000002665e+00,-1.500000000000000355e+01,1.600000000000000355e+01,-2.250000000000000888e+00,-1.150000000000000355e+01,1.500000000000000355e+01,-1.125000000000000355e+01,9.500000000000001776e+00,-2.100000000000000355e+01,2.050000000000000355e+01,6.250000000000000888e+00,-2.275000000000000355e+01,8.500000000000000000e+00,5.750000000000001776e+00,9.250000000000003553e+00,-1.050000000000000355e+01,1.000000000000000000e+00,-3.750000000000000888e+00,-9.000000000000001776e+00,2.900000000000000711e+01,-2.600000000000000711e+01,-1.000000000000000000e+00,2.550000000000000711e+01,-1.925000000000000355e+01,-3.500000000000000444e+00,1.675000000000000355e+01,-2.800000000000000711e+01,3.250000000000000711e+01,-2.600000000000000711e+01,2.225000000000000711e+01,-2.450000000000000711e+01,1.575000000000000355e+01,8.000000000000000000e+00,-2.150000000000000355e+01,5.250000000000000888e+00,1.475000000000000355e+01,-2.050000000000000355e+01,2.075000000000000355e+01,-3.750000000000000000e+00,-1.850000000000000711e+01,8.250000000000003553e+00,2.150000000000000355e+01,-3.500000000000000711e+01,2.500000000000000711e+01,-8.000000000000001776e+00,-3.500000000000000888e+00,1.200000000000000355e+01,-1.950000000000000355e+01,2.225000000000000355e+01,-3.500000000000000000e+00,-1.325000000000000355e+01,-6.750000000000001776e+00,1.300000000000000355e+01,9.250000000000001776e+00,-9.500000000000001776e+00,-1.250000000000000355e+01,2.575000000000000711e+01,-1.550000000000000355e+01,-9.250000000000001776e+00,7.250000000000000888e+00,4.250000000000000888e+00,-5.000000000000000888e+00,2.075000000000000355e+01,-1.775000000000000355e+01,-1.450000000000000355e+01,3.375000000000000711e+01,-2.150000000000000355e+01,-8.500000000000003553e+00,2.825000000000000711e+01,-2.175000000000000711e+01,-6.250000000000001776e+00,2.775000000000000711e+01,-3.125000000000000711e+01,2.075000000000000355e+01,7.750000000000002665e+00,-3.100000000000000711e+01,3.125000000000000711e+01,-2.475000000000000711e+01,1.800000000000000711e+01,-2.000000000000000888e+00,-1.550000000000000355e+01,2.925000000000000711e+01,-2.625000000000000711e+01,-5.000000000000000000e-01,2.050000000000000355e+01,-6.500000000000000888e+00,-2.150000000000000355e+01,1.575000000000000355e+01,1.750000000000000355e+01,-3.300000000000000711e+01,2.475000000000000711e+01,-1.950000000000000355e+01,1.075000000000000178e+01,1.225000000000000355e+01,-6.250000000000002665e+00,-2.200000000000000355e+01,2.825000000000000711e+01,-2.725000000000000711e+01,1.775000000000000355e+01,1.200000000000000355e+01,-3.175000000000000711e+01,3.475000000000000711e+01,-2.300000000000000355e+01,9.000000000000001776e+00,-2.050000000000000355e+01,3.175000000000000711e+01,-1.525000000000000355e+01,-1.650000000000000355e+01,1.675000000000000355e+01,1.300000000000000355e+01,-1.600000000000000355e+01,0.000000000000000000e+00,8.500000000000001776e+00,-1.150000000000000355e+01,-4.750000000000000000e+00,9.250000000000001776e+00,1.350000000000000178e+01,-2.300000000000000355e+01,2.350000000000000711e+01,-2.475000000000000711e+01,1.100000000000000355e+01,-2.500000000000000000e-01,1.400000000000000355e+01,-1.500000000000000355e+01,-9.750000000000003553e+00,2.250000000000000711e+01,-2.275000000000000711e+01,1.400000000000000355e+01,1.425000000000000355e+01,-1.975000000000000355e+01,-8.750000000000003553e+00,1.475000000000000355e+01,-2.000000000000000444e+00,-5.000000000000002220e-01,1.075000000000000178e+01,-2.275000000000000711e+01,6.250000000000001776e+00,2.175000000000000711e+01,-2.850000000000000711e+01,1.300000000000000355e+01,1.325000000000000355e+01,-2.275000000000000711e+01,1.200000000000000178e+01,-8.500000000000001776e+00,-1.750000000000000000e+00,2.125000000000000711e+01,-1.025000000000000355e+01,-1.475000000000000355e+01,1.525000000000000355e+01,-1.450000000000000355e+01,2.850000000000000711e+01,-2.700000000000000711e+01,1.700000000000000355e+01,-1.050000000000000355e+01,-2.500000000000000000e-01,-5.000000000000000888e+00,-2.000000000000000000e+00,2.175000000000000355e+01,-2.325000000000000355e+01,1.625000000000000355e+01,-1.400000000000000355e+01,1.825000000000000355e+01,-1.475000000000000355e+01,1.725000000000000355e+01,-1.800000000000000355e+01,1.575000000000000355e+01,-8.250000000000001776e+00,-1.200000000000000178e+01,1.500000000000000355e+01,4.250000000000000888e+00,-2.175000000000000711e+01,2.800000000000000711e+01,-1.500000000000000355e+01,-3.250000000000000888e+00,1.125000000000000355e+01,-1.975000000000000711e+01,1.725000000000000355e+01,1.600000000000000355e+01,-1.800000000000000355e+01,-2.500000000000000000e-01,-1.100000000000000178e+01,1.300000000000000355e+01,7.500000000000000000e-01,-4.500000000000000888e+00,2.050000000000000355e+01,-2.250000000000000355e+01,-5.750000000000001776e+00,3.300000000000000711e+01,-2.900000000000000711e+01,1.025000000000000355e+01,7.500000000000001776e+00,-1.000000000000000355e+01,1.675000000000000355e+01,-1.575000000000000355e+01,1.750000000000000888e+00,-6.250000000000001776e+00,-1.000000000000000222e+00,-5.000000000000001110e-01,2.500000000000000555e-01,0.000000000000000000e+00,2.500000000000000555e-01,-5.000000000000001110e-01,2.500000000000000555e-01,0.000000000000000000e+00,0.000000000000000000e+00,0.000000000000000000e+00,0.000000000000000000e+00,-2.500000000000000555e-01,5.000000000000001110e-01,-5.000000000000001110e-01,5.000000000000001110e-01,-2.500000000000000555e-01,0.000000000000000000e+00,2.500000000000000555e-01,-2.500000000000000555e-01,-2.500000000000000555e-01,2.500000000000000555e-01,0.000000000000000000e+00,2.500000000000000555e-01,-5.000000000000001110e-01,2.500000000000000555e-01,2.500000000000000555e-01,-5.000000000000001110e-01,2.500000000000000555e-01,0.000000000000000000e+00,0.000000000000000000e+00,-3.925000000000000711e+01,3.875000000000000711e+01,2.225000000000000355e+01,-2.650000000000000355e+01,-1.275000000000000355e+01,1.275000000000000355e+01,-2.500000000000000888e+00,3.000000000000000711e+01,-9.100000000000001421e+01,2.150000000000000711e+01,2.375000000000000355e+01,-1.400000000000000355e+01,-4.500000000000014211e+00,3.850000000000002132e+01,1.500000000000000444e+00,1.250000000000000444e+00,2.500000000000000555e-01,-2.500000000000000555e-01,7.500000000000002220e-01,-1.000000000000000222e+00,5.000000000000001110e-01,-2.500000000000000555e-01,2.500000000000000555e-01,0.000000000000000000e+00,0.000000000000000000e+00,0.000000000000000000e+00,-2.500000000000000555e-01,7.500000000000002220e-01,-7.500000000000002220e-01,5.000000000000001110e-01,-2.500000000000000555e-01,-2.500000000000000555e-01,2.500000000000000555e-01,0.000000000000000000e+00,5.000000000000001110e-01,-1.000000000000000222e+00,5.000000000000001110e-01,2.500000000000000555e-01,-2.500000000000000555e-01,-2.500000000000000555e-01,2.500000000000000555e-01,2.500000000000000555e-01,-7.500000000000002220e-01,7.500000000000002220e-01,0.000000000000000000e+00,-2.500000000000000555e-01,2.500000000000000555e-01,-1.000000000000000222e+00,1.000000000000000222e+00,-2.500000000000000555e-01,0.000000000000000000e+00,2.500000000000000555e-01,-2.500000000000000555e-01,0.000000000000000000e+00,0.000000000000000000e+00,-2.500000000000000555e-01,5.000000000000001110e-01,-2.500000000000000555e-01,0.000000000000000000e+00,0.000000000000000000e+00,0.000000000000000000e+00,0.000000000000000000e+00,-2.500000000000000555e-01,2.500000000000000555e-01,2.500000000000000555e-01,-2.500000000000000555e-01,0.000000000000000000e+00,0.000000000000000000e+00,2.500000000000000555e-01,-2.500000000000000555e-01,0.000000000000000000e+00,-2.500000000000000555e-01,5.000000000000001110e-01,-2.500000000000000555e-01,0.000000000000000000e+00,1.250000000000000222e+00,1.850000000000001776e+01,-1.875000000000001776e+01,-2.000000000000000444e+00,1.125000000000000178e+01,5.000000000000000000e-01,6.250000000000001776e+00,-2.450000000000000711e+01,2.275000000000000711e+01,-1.250000000000000355e+01,1.025000000000000355e+01,-1.125000000000000355e+01,1.625000000000000355e+01,-2.325000000000000355e+01,1.625000000000000355e+01,1.500000000000001776e+00,-5.000000000000000000e-01,-1.350000000000000355e+01,5.750000000000001776e+00,1.675000000000000355e+01,-2.150000000000000355e+01,1.625000000000000355e+01,-1.500000000000000355e+01,1.500000000000000222e+00,1.000000000000000355e+01,-7.500000000000002665e+00,7.500000000000000000e-01,7.250000000000002665e+00,-1.375000000000000355e+01,-2.500000000000000888e+00,2.275000000000000355e+01,-1.925000000000000355e+01,-8.250000000000001776e+00,1.600000000000000355e+01,-1.000000000000000000e+00,8.000000000000001776e+00,-1.775000000000000355e+01,-3.500000000000000888e+00,1.825000000000000355e+01,-9.000000000000001776e+00,-2.250000000000000444e+00,-5.250000000000000888e+00,9.250000000000001776e+00,-4.500000000000000888e+00,2.500000000000000555e-01,-5.000000000000001110e-01,0.000000000000000000e+00,5.000000000000001110e-01,0.000000000000000000e+00,-5.000000000000001110e-01,2.500000000000000555e-01,0.000000000000000000e+00,0.000000000000000000e+00,0.000000000000000000e+00,0.000000000000000000e+00,2.500000000000000555e-01,-5.000000000000001110e-01,2.500000000000000555e-01,-2.500000000000000555e-01,7.500000000000002220e-01,-9.500000000000001776e+00,1.125000000000000178e+01,-8.000000000000001776e+00,1.800000000000000355e+01,-1.625000000000000355e+01,-6.000000000000000888e+00,1.425000000000000355e+01,-2.050000000000000355e+01,1.100000000000000355e+01,2.100000000000000355e+01,-3.075000000000000711e+01,4.500000000000001776e+00,1.975000000000000355e+01,-2.000000000000000000e+00,-6.500000000000001776e+00,-1.000000000000000178e+01,3.250000000000000000e+00,1.775000000000000355e+01,-9.250000000000001776e+00,-1.650000000000000355e+01,1.775000000000000355e+01,6.000000000000000888e+00,-2.675000000000000711e+01,2.025000000000000355e+01,-1.275000000000000355e+01,1.550000000000000355e+01,4.750000000000000000e+00,-2.075000000000000355e+01,-8.500000000000001776e+00,1.675000000000000355e+01,-8.500000000000001776e+00,1.075000000000000178e+01,-1.500000000000000444e+00,-4.000000000000000888e+00,1.950000000000000355e+01,-3.275000000000000711e+01,4.500000000000000000e+00,6.500000000000001776e+00,-4.750000000000001776e+00,0.000000000000000000e+00,-2.500000000000000000e+00,2.750000000000001776e+00,6.000000000000000888e+00,-7.500000000000002665e+00,-5.500000000000000000e+00,1.550000000000000355e+01,1.275000000000000355e+01,-1.550000000000000355e+01,-1.925000000000000711e+01,2.700000000000000711e+01,-3.000000000000000888e+00,-1.700000000000000355e+01,2.749999999999985789e+00,1.725000000000001776e+01,-4.000000000000000888e+00,2.000000000000000444e+00,-2.500000000000000555e-01,5.000000000000001110e-01,-2.500000000000000555e-01,0.000000000000000000e+00,5.000000000000001110e-01,-5.000000000000001110e-01,7.500000000000002220e-01,-2.500000000000000555e-01,2.500000000000000555e-01,5.000000000000001110e-01,-1.500000000000000444e+00,5.750000000000000888e+00,-1.499999999999985789e+00,-6.250000000000030198e+00,1.600000000000003197e+01,-2.150000000000002132e+01,3.750000000000000711e+01,-3.825000000000000711e+01,8.500000000000001776e+00,2.075000000000000355e+01,-9.750000000000001776e+00,-1.700000000000000355e+01,1.050000000000000355e+01,5.750000000000000888e+00,-9.750000000000001776e+00,-4.250000000000000888e+00,3.750000000000000888e+00,-2.500000000000000555e-01,1.800000000000000355e+01,-2.475000000000000711e+01,1.125000000000000355e+01,1.750000000000000000e+00,-1.850000000000000355e+01,1.125000000000000355e+01,5.250000000000001776e+00,-1.350000000000000355e+01,1.900000000000000355e+01,-9.750000000000001776e+00,-8.250000000000001776e+00,1.225000000000000355e+01,-6.500000000000001776e+00,8.000000000000001776e+00,-8.500000000000001776e+00,2.600000000000000355e+01,-3.925000000000000711e+01,3.500000000000000000e+00,4.050000000000001421e+01,-4.500000000000001421e+01,1.950000000000000355e+01,1.400000000000000355e+01,-4.575000000000001421e+01,4.475000000000001421e+01,-1.375000000000000355e+01,-1.500000000000000444e+00,1.750000000000000444e+00,-2.000000000000000444e+00,2.000000000000000444e+00,-1.025000000000000178e+01,9.750000000000001776e+00,7.250000000000001776e+00,-2.425000000000000711e+01,2.975000000000000711e+01,-1.950000000000000711e+01,4.500000000000001776e+00,-1.325000000000000355e+01,2.575000000000000711e+01,1.225000000000000178e+01,-5.225000000000001421e+01,3.675000000000000711e+01,8.500000000000001776e+00,-3.125000000000000711e+01,2.425000000000000711e+01,-3.025000000000000711e+01,9.500000000000001776e+00,5.900000000000000711e+01,-7.000000000000001421e+01,2.875000000000000711e+01,-1.475000000000000355e+01,2.025000000000000355e+01,-4.750000000000000000e+00,-2.250000000000000888e+00,-7.250000000000001776e+00,-7.000000000000001776e+00,1.500000000000000355e+01,-2.500000000000000000e+00,1.425000000000000355e+01,-2.300000000000000355e+01,-2.500000000000008882e-01,1.425000000000000355e+01,-7.250000000000001776e+00,-7.000000000000001776e+00,1.525000000000000355e+01,-7.750000000000001776e+00,-1.000000000000000178e+01,2.550000000000000711e+01,-1.750000000000000355e+01,-5.250000000000000888e+00,6.000000000000000888e+00,1.225000000000000355e+01,-1.550000000000000355e+01,7.000000000000001776e+00,-1.250000000000000355e+01,2.000000000000000355e+01,-2.500000000000000000e-01,-1.800000000000000355e+01,5.000000000000000000e-01,1.500000000000000355e+01,2.500000000000000000e+00,-2.150000000000000355e+01,3.025000000000000711e+01,-2.975000000000000711e+01,2.525000000000000711e+01,-8.750000000000001776e+00,-1.500000000000000355e+01,1.125000000000000355e+01,9.000000000000003553e+00,1.750000000000000000e+00,-3.750000000000001776e+00,-2.000000000000000355e+01,1.450000000000000355e+01,6.750000000000000888e+00,-1.825000000000000355e+01,1.550000000000000355e+01,2.250000000000000000e+00,-2.175000000000000355e+01,1.475000000000000355e+01,1.000000000000000355e+01,-1.275000000000000355e+01,-2.000000000000000444e+00,1.725000000000000355e+01,-2.600000000000000711e+01,2.225000000000000711e+01,-1.875000000000000711e+01,3.750000000000001332e+00,1.675000000000000355e+01,-1.675000000000000355e+01,-8.750000000000001776e+00,2.575000000000000711e+01,-1.800000000000000355e+01,-5.750000000000000888e+00,2.275000000000000711e+01,-2.275000000000000711e+01,2.100000000000000355e+01,-1.975000000000000355e+01,3.500000000000000888e+00,1.425000000000000355e+01,-6.250000000000000888e+00,-6.750000000000001776e+00,-4.500000000000000888e+00,1.625000000000000355e+01,-4.500000000000000888e+00,-1.250000000000000355e+01,1.600000000000000355e+01,-1.125000000000000355e+01,-5.750000000000000888e+00,2.225000000000000711e+01,-1.525000000000000355e+01,7.500000000000000000e-01,7.000000000000001776e+00,-8.250000000000001776e+00,-4.500000000000000888e+00,1.650000000000000355e+01,-7.250000000000001776e+00,-1.500000000000000444e+00,-2.750000000000000444e+00,4.000000000000000888e+00,-5.000000000000002220e-01,-1.000000000000000222e+00,0.000000000000000000e+00,-2.500000000000000555e-01,-5.750000000000001776e+00,1.175000000000000355e+01,-5.500000000000000888e+00,-2.750000000000000444e+00,-8.500000000000001776e+00,2.200000000000000355e+01,-2.575000000000000711e+01,2.425000000000000711e+01,-1.825000000000000355e+01,4.250000000000000888e+00,1.325000000000000355e+01,-7.750000000000001776e+00,-6.500000000000000888e+00,9.500000000000001776e+00,6.250000000000000888e+00,-2.250000000000000711e+01,2.350000000000000711e+01,-7.250000000000000888e+00,-1.400000000000000355e+01,1.475000000000000355e+01,5.000000000000000000e-01,-1.075000000000000178e+01,2.250000000000000000e+00,1.175000000000000355e+01,-8.250000000000001776e+00,-5.000000000000001110e-01,5.000000000000001110e-01,-1.250000000000000222e+00,1.750000000000000444e+00,-7.500000000000002220e-01,0.000000000000000000e+00,2.500000000000000555e-01,-2.500000000000000555e-01,-2.500000000000000555e-01,2.500000000000000555e-01,-2.500000000000000555e-01,5.000000000000001110e-01,-5.000000000000001110e-01,5.000000000000001110e-01,-2.500000000000000555e-01,-9.000000000000001776e+00,3.500000000000000888e+00,1.475000000000000355e+01,-3.025000000000000711e+01,2.150000000000000355e+01,3.500000000000000888e+00,-8.500000000000001776e+00,2.250000000000000444e+00,-8.250000000000001776e+00,1.725000000000000355e+01,-1.050000000000000355e+01,-1.275000000000000355e+01,1.300000000000000355e+01,1.525000000000000355e+01,-1.950000000000000355e+01,2.500000000000000000e-01,6.750000000000001776e+00,-6.000000000000001776e+00,1.025000000000000355e+01,-2.000000000000000444e+00,-2.025000000000000355e+01,1.425000000000000355e+01,-7.500000000000000000e-01,-2.500000000000000000e-01,1.075000000000000178e+01,2.750000000000000888e+00,-2.275000000000000711e+01,6.750000000000001776e+00,2.100000000000000711e+01,-2.625000000000000711e+01,1.225000000000000355e+01,-2.250000000000000888e+00,-3.750000000000000888e+00,1.525000000000000355e+01,-2.000000000000000355e+01,7.750000000000000888e+00,2.500000000000000444e+00,-1.425000000000000355e+01,1.600000000000000355e+01,7.000000000000001776e+00,-2.650000000000000711e+01,2.225000000000000355e+01,5.250000000000000888e+00,-1.825000000000000355e+01,7.250000000000001776e+00,-7.750000000000001776e+00,4.250000000000000000e+00,1.500000000000000355e+01,-2.775000000000000711e+01,2.125000000000000355e+01,-4.500000000000000888e+00,-4.500000000000001776e+00,1.225000000000000355e+01,-2.250000000000000000e+00,-1.400000000000000355e+01,4.250000000000000000e+00,9.750000000000003553e+00,-1.225000000000000355e+01,1.525000000000000355e+01,-1.825000000000000711e+01,9.500000000000003553e+00,4.750000000000000888e+00,-2.050000000000000355e+01,1.775000000000000355e+01,-2.000000000000000444e+00,-5.750000000000001776e+00,1.250000000000000355e+01,3.500000000000000888e+00,-1.650000000000000355e+01,1.000000000000000178e+01,-1.250000000000000222e+00,-1.400000000000001776e+01,1.700000000000001776e+01,-3.750000000000000888e+00,-3.250000000000000888e+00,3.500000000000000888e+00,5.000000000000001110e-01,-2.500000000000000555e-01,2.500000000000000555e-01,-2.500000000000000555e-01,5.000000000000001110e-01,-5.000000000000001110e-01,5.000000000000001110e-01,-2.500000000000000555e-01,0.000000000000000000e+00,0.000000000000000000e+00,-2.500000000000000555e-01,2.500000000000000555e-01,0.000000000000000000e+00,2.500000000000000555e-01,-5.000000000000001110e-01,2.500000000000000555e-01,0.000000000000000000e+00,-2.500000000000000555e-01,5.000000000000001110e-01,-2.500000000000000555e-01,-2.500000000000000555e-01,2.500000000000000555e-01,0.000000000000000000e+00,0.000000000000000000e+00,2.500000000000000555e-01,-5.000000000000001110e-01,2.500000000000000555e-01,0.000000000000000000e+00,0.000000000000000000e+00,0.000000000000000000e+00,0.000000000000000000e+00,0.000000000000000000e+00,0.000000000000000000e+00,-2.500000000000000555e-01,5.000000000000001110e-01,-2.500000000000000555e-01,0.000000000000000000e+00,0.000000000000000000e+00,0.000000000000000000e+00,0.000000000000000000e+00,0.000000000000000000e+00,0.000000000000000000e+00,5.000000000000001110e-01,-1.250000000000000444e+00,1.250000000000000444e+00,-1.000000000000000222e+00,7.500000000000002220e-01,-5.000000000000001110e-01,5.000000000000001110e-01,-2.500000000000000555e-01,0.000000000000000000e+00,0.000000000000000000e+00,0.000000000000000000e+00,-2.500000000000000555e-01,5.000000000000001110e-01,-2.500000000000000555e-01,2.500000000000000555e-01,-7.500000000000002220e-01,7.500000000000002220e-01,-2.500000000000000555e-01,2.500000000000000555e-01,-5.000000000000001110e-01,5.000000000000001110e-01,0.000000000000000000e+00,-5.000000000000001110e-01,0.000000000000000000e+00,7.500000000000002220e-01,-7.500000000000002220e-01,5.000000000000001110e-01,0.000000000000000000e+00,-2.500000000000000555e-01,0.000000000000000000e+00,1.000000000000000222e+00,-1.000000000000000222e+00,5.000000000000001110e-01,8.000000000000001776e+00,-1.999999999999985789e+00,2.499999999999985789e+00,-3.500000000000000888e+00,-8.750000000000001776e+00,1.975000000000000355e+01,-2.175000000000000355e+01,1.250000000000000355e+01,8.250000000000001776e+00,-1.650000000000000355e+01,1.275000000000000178e+01,-1.125000000000000178e+01,-1.275000000000000355e+01,-1.200000000000000355e+01,2.075000000000000711e+01,8.950000000000001421e+01,-6.825000000000001421e+01,-5.750000000000000000e+00,-2.775000000000000711e+01,2.125000000000000355e+01,1.500000000000000888e+00,-1.525000000000000355e+01,1.650000000000000355e+01,-1.775000000000000355e+01,7.000000000000001776e+00,1.800000000000000355e+01,-2.150000000000000711e+01,5.750000000000001776e+00,1.425000000000000355e+01,-2.750000000000000711e+01,2.750000000000000711e+01,-2.625000000000000711e+01,2.275000000000000711e+01,-1.975000000000000355e+01,1.300000000000000355e+01,6.500000000000000888e+00,-1.850000000000000355e+01,5.500000000000001776e+00,1.400000000000000178e+01,-1.850000000000000355e+01,-5.250000000000001776e+00,2.450000000000000711e+01,-2.550000000000000711e+01,2.125000000000000711e+01,-8.000000000000001776e+00,-6.750000000000001776e+00,1.700000000000000355e+01,-1.475000000000000355e+01,2.125000000000000355e+01,-2.350000000000000711e+01,2.175000000000000711e+01,-2.375000000000000711e+01,6.750000000000001776e+00,4.500000000000000888e+00,5.750000000000001776e+00,2.250000000000000000e+00,-1.400000000000000355e+01,1.075000000000000355e+01,-1.800000000000000355e+01,9.000000000000001776e+00,8.000000000000001776e+00,-1.150000000000000355e+01,1.800000000000000355e+01,-2.075000000000000711e+01,5.750000000000001776e+00,1.600000000000000355e+01,-1.700000000000000355e+01,1.000000000000000444e+00,1.250000000000000178e+01,-1.100000000000000178e+01,2.500000000000000000e-01,-1.500000000000000222e+00,1.625000000000000355e+01,-1.550000000000000355e+01,-1.025000000000000178e+01,1.825000000000000355e+01,2.750000000000000000e+00,-2.250000000000000711e+01,2.600000000000000711e+01,-1.750000000000000355e+01,1.075000000000000355e+01,-1.300000000000000355e+01,-5.000000000000000000e-01,1.650000000000000355e+01,-6.750000000000001776e+00,-1.100000000000000178e+01,-2.375000000000000711e+01
