1.547100000000001252e+01,1.814750000000005858e+00,-9.810250000000001691e+00,-1.882587500000000702e+01,-2.677900000000001057e+01,-3.302900000000001768e+01,-3.870087500000001768e+01,-4.137275000000001768e+01,-4.302900000000001768e+01,-4.416962500000001768e+01,-4.656025000000002478e+01,-4.956025000000003899e+01,-5.129462500000003899e+01,-5.313837500000003899e+01,-5.559150000000003899e+01,-5.863837500000003899e+01,-6.098212500000003899e+01,-6.285712500000003899e+01,-6.341962500000003899e+01,-6.307587500000003899e+01,-6.362275000000003899e+01,-6.332587500000003899e+01,-6.229462500000003899e+01,-6.166962500000003899e+01,-6.085712500000003899e+01,-6.093525000000003899e+01,-6.156025000000003899e+01,-6.326337500000003899e+01,-6.429462500000003899e+01,-6.563837500000003899e+01,-6.685712500000003899e+01,-6.724775000000003899e+01,-6.713837500000003899e+01,-6.651337500000003899e+01,-6.537275000000003899e+01,-6.351337500000003899e+01,-6.156025000000003899e+01,-5.979462500000003899e+01,-5.788837500000003899e+01,-5.649775000000003899e+01,-5.545087500000003899e+01,-5.376337500000003899e+01,-5.191962500000003899e+01,-4.920087500000003899e+01,-4.671650000000002478e+01,-4.441962500000002478e+01,-4.234150000000001768e+01,-3.982587500000001768e+01,-3.831025000000001768e+01,-3.735712500000001768e+01,-3.687275000000001768e+01,-3.773212500000001768e+01,-3.915400000000001768e+01,-4.002900000000001768e+01,-4.004462500000001768e+01,-4.077900000000001768e+01,-4.010712500000001768e+01,-3.906025000000001768e+01,-3.860712500000001768e+01,-3.751337500000001768e+01,-3.676337500000001768e+01,-3.735712500000001768e+01,-3.993525000000001768e+01,-4.279462500000002478e+01,-4.712275000000003189e+01,-5.232587500000003899e+01,-5.687275000000003899e+01,-6.087275000000003899e+01,-6.273212500000003899e+01,-6.274775000000003899e+01,-5.982587500000003899e+01,-5.438837500000003899e+01,-4.696650000000002478e+01,-3.821650000000002478e+01,-2.835712500000001413e+01,-1.940400000000001057e+01,-1.065400000000000347e+01,-2.528999999999998138e+00,3.783500000000006303e+00,8.674125000000008967e+00,1.262725000000001074e+01,1.568975000000001430e+01,1.756475000000001430e+01,1.915850000000001430e+01,1.915850000000001430e+01,1.876787500000001430e+01,1.726787500000001430e+01,1.453350000000001430e+01,1.047100000000001074e+01,5.158500000000007191e+00,-2.216499999999997694e+00,-9.919625000000001691e+00,-2.048212500000001057e+01,-3.360712500000001768e+01,-4.798212500000002478e+01,-6.507587500000003899e+01,-8.401337500000005321e+01,-1.043415000000000532e+02,-1.254352500000000816e+02,-1.491696250000000816e+02,-1.713415000000001100e+02,-1.932008750000001669e+02,-2.153571250000001669e+02,-2.353258750000001669e+02,-2.542008750000001669e+02,-2.723727500000001669e+02,-2.886071250000001669e+02,-3.027633750000001669e+02,-3.165602500000001669e+02,-3.293102500000001669e+02,-3.392321250000001669e+02,-3.483883750000001669e+02,-3.557321250000001669e+02,-3.605758750000001669e+02,-3.649665000000001669e+02,-3.681696250000001669e+02,-3.691071250000001669e+02,-3.675915000000001669e+02,-3.658571250000001669e+02,-3.622790000000001669e+02,-3.578727500000001669e+02,-3.536071250000001669e+02,-3.473571250000001669e+02,-3.395446250000001669e+02,-3.316540000000001669e+02,-3.235290000000001669e+02,-3.153415000000001669e+02,-3.084665000000001669e+02,-3.020915000000001669e+02,-2.963415000000001669e+02,-2.925290000000001669e+02,-2.904040000000001669e+02,-2.891227500000001669e+02,-2.899665000000001669e+02,-2.906227500000001669e+02,-2.910758750000001669e+02,-2.904040000000001669e+02,-2.877321250000001669e+02,-2.832321250000001669e+02,-2.766071250000001669e+02,-2.694821250000001669e+02,-2.597321250000001669e+02,-2.500758750000001669e+02,-2.389665000000001669e+02,-2.295446250000001669e+02,-2.216540000000001669e+02,-2.155290000000001669e+02,-2.101383750000001669e+02,-2.039508750000001669e+02,-1.981383750000001669e+02,-1.909977500000001669e+02,-1.835133750000001100e+02,-1.732477500000001100e+02,-1.615446250000000816e+02,-1.467008750000000816e+02,-1.321227500000000816e+02,-1.174665000000000816e+02,-1.032008750000000816e+02,-9.013837500000005321e+01,-7.829462500000003899e+01,-6.846650000000003899e+01,-5.868525000000003899e+01,-5.109150000000003899e+01,-4.281025000000002478e+01,-3.540400000000001768e+01,-2.913837500000001768e+01,-2.215400000000001057e+01,-1.565400000000000702e+01,-8.904000000000003467e+00,-3.888374999999999027e+00,8.460000000000040821e-01,4.424125000000006303e+00,7.752250000000008967e+00,1.193975000000001074e+01,1.515850000000001430e+01,1.854912500000001430e+01,2.137725000000001785e+01,2.514287500000002495e+01,2.859600000000002495e+01,3.097100000000002495e+01,3.364287500000002495e+01,3.553350000000002495e+01,3.737725000000002495e+01,3.915850000000002495e+01,4.125225000000002495e+01,4.314287500000002495e+01,4.553350000000003206e+01,4.947100000000004627e+01,5.328350000000004627e+01,5.775225000000004627e+01,6.176787500000004627e+01,6.592412500000004627e+01,6.937725000000004627e+01,7.104912500000004627e+01,7.097100000000004627e+01,6.914287500000004627e+01,6.562725000000004627e+01,5.968975000000004627e+01,5.259600000000004627e+01,4.353350000000003206e+01,3.365850000000002495e+01,2.414287500000001785e+01,1.586162500000001430e+01,8.252250000000008967e+00,1.267875000000004970e+00,-3.638374999999998138e+00,-7.513374999999999915e+00,-9.185250000000001691e+00,-9.263375000000001691e+00,-7.654000000000000803e+00,-5.810249999999999915e+00,-3.716499999999998582e+00,-1.227499999999963620e-01,3.564750000000005414e+00,7.549125000000008967e+00,1.036162500000001074e+01,1.284600000000001074e+01,1.408037500000001430e+01,1.553350000000001430e+01,1.756475000000001430e+01,1.854912500000001430e+01,1.848662500000001430e+01,1.800225000000001430e+01,1.678350000000001430e+01,1.408037500000001430e+01,1.072100000000001074e+01,4.580375000000006303e+00,-3.638374999999999027e+00,-1.371650000000000347e+01,-2.484150000000001057e+01,-3.643525000000001768e+01,-4.818525000000002478e+01,-6.016962500000003899e+01,-7.301337500000003899e+01,-8.493525000000005321e+01,-9.791962500000008163e+01,-1.103883750000000816e+02,-1.226852500000000816e+02,-1.368102500000000816e+02,-1.508258750000000816e+02,-1.656071250000000816e+02,-1.803883750000001100e+02,-1.950446250000001669e+02,-2.090602500000001669e+02,-2.242790000000001669e+02,-2.399821250000001669e+02,-2.559665000000001669e+02,-2.745133750000001669e+02,-2.939196250000001669e+02,-3.141852500000001669e+02,-3.363258750000001669e+02,-3.586852500000002237e+02,-3.802321250000003374e+02,-4.020290000000003374e+02,-4.215602500000003374e+02,-4.373102500000003374e+02,-4.499508750000003374e+02,-4.598571250000003374e+02,-4.666540000000003374e+02,-4.713258750000003374e+02,-4.741696250000003374e+02,-4.748102500000003374e+02,-4.748258750000003374e+02,-4.748258750000003374e+02,-4.748415000000003374e+02,-4.748727500000003374e+02,-4.749040000000003374e+02,-4.749665000000003374e+02,-4.750290000000003374e+02,-4.750915000000003374e+02,-4.751383750000003374e+02,-4.751696250000003374e+02,-4.752165000000003374e+02,-4.752477500000003374e+02,-4.752633750000003374e+02,-4.752633750000003374e+02,-4.752633750000003374e+02,-4.752633750000003374e+02,-4.752633750000003374e+02,-4.752633750000003374e+02,-4.752477500000003374e+02,-4.752321250000003374e+02,-4.751852500000003374e+02,-4.734821250000003374e+02,-4.702633750000003374e+02,-4.642633750000003374e+02,-4.555290000000003374e+02,-4.433571250000003374e+02,-4.277946250000003374e+02,-4.074821250000003374e+02,-3.817790000000003374e+02,-3.541383750000002237e+02,-3.232477500000001669e+02,-2.917946250000001669e+02,-2.599352500000001669e+02,-2.281852500000001669e+02,-1.966383750000001669e+02,-1.673415000000001100e+02,-1.415133750000000816e+02,-1.161852500000000816e+02,-9.377900000000005321e+01,-7.206025000000003899e+01,-5.052900000000002478e+01,-3.071650000000001768e+01,-1.174775000000000169e+01,6.955375000000008079e+00,2.615850000000001785e+01,4.323662500000003206e+01,6.037725000000004627e+01,7.623662500000006048e+01,9.003350000000007469e+01,1.039085000000000889e+02,1.169085000000000889e+02,1.290647500000000889e+02,1.399241250000000889e+02,1.510491250000000889e+02,1.612991250000000889e+02,1.712210000000000889e+02,1.810491250000001173e+02,1.897835000000001742e+02,1.972522500000001742e+02,2.037678750000001742e+02,2.094553750000001742e+02,2.140960000000001742e+02,2.181741250000001742e+02,2.214085000000001742e+02,2.241741250000001742e+02,2.272053750000001742e+02,2.306741250000001742e+02,2.333616250000001742e+02,2.360178750000001742e+02,2.391897500000001742e+02,2.423928750000001742e+02,2.460491250000001742e+02,2.501741250000001742e+02,2.540178750000001742e+02,2.579397500000001742e+02,2.640022500000001742e+02,2.711897500000001742e+02,2.791741250000001742e+02,2.880647500000001742e+02,2.974553750000001742e+02,3.077835000000001742e+02,3.193928750000001742e+02,3.323928750000001742e+02,3.442522500000001742e+02,3.554866250000001742e+02,3.660178750000002310e+02,3.761897500000002310e+02,3.865803750000003447e+02,3.959085000000003447e+02,4.030803750000003447e+02,4.084553750000003447e+02,4.136428750000003447e+02,4.183772500000003447e+02,4.234397500000003447e+02,4.273303750000003447e+02,4.298616250000003447e+02,4.316741250000003447e+02,4.348303750000003447e+02,4.380803750000003447e+02,4.411116250000003447e+02,4.438303750000003447e+02,4.453616250000003447e+02,4.465178750000003447e+02,4.475491250000003447e+02,4.493303750000003447e+02,4.498460000000003447e+02,4.494710000000003447e+02,4.488616250000003447e+02,4.485022500000003447e+02,4.470960000000003447e+02,4.458928750000003447e+02,4.444085000000003447e+02,4.415960000000003447e+02,4.380491250000003447e+02,4.344241250000003447e+02,4.297678750000003447e+02,4.238772500000003447e+02,4.188616250000003447e+02,4.131428750000003447e+02,4.067522500000003447e+02,3.999241250000003447e+02,3.926428750000003447e+02,3.846585000000003447e+02,3.770960000000002310e+02,3.691272500000001742e+02,3.596897500000001742e+02,3.499241250000001742e+02,3.390803750000001742e+02,3.267678750000001742e+02,3.142366250000001742e+02,3.003616250000001742e+02,2.842991250000001742e+02,2.669085000000001742e+02,2.493616250000001742e+02,2.315803750000001742e+02,2.144397500000001742e+02,1.981428750000001742e+02,1.812835000000001173e+02,1.655022500000000889e+02,1.508147500000000889e+02,1.368772500000000889e+02,1.222678750000000889e+02,1.072991250000000889e+02,9.148662500000007469e+01,7.556475000000006048e+01,6.045537500000004627e+01,4.528350000000003206e+01,2.962725000000001785e+01,1.376787500000001074e+01,-1.778999999999997250e+00,-1.731025000000000702e+01,-3.220087500000001057e+01,-4.754462500000002478e+01,-6.348212500000003899e+01,-7.996650000000005321e+01,-9.641962500000006742e+01,-1.122946250000000816e+02,-1.264977500000000816e+02,-1.409665000000000816e+02,-1.554040000000000816e+02,-1.683727500000000816e+02,-1.805758750000001100e+02,-1.908727500000001669e+02,-1.982790000000001669e+02,-2.039977500000001669e+02,-2.091227500000001669e+02,-2.110758750000001669e+02,-2.107633750000001669e+02,-2.094196250000001669e+02,-2.062477500000001669e+02,-2.026227500000001669e+02,-1.998571250000001669e+02,-1.963102500000001669e+02,-1.927633750000001669e+02,-1.905446250000001100e+02,-1.881696250000000816e+02,-1.858415000000000816e+02,-1.835758750000000816e+02,-1.814196250000000816e+02,-1.785915000000000816e+02,-1.764352500000000816e+02,-1.741540000000000816e+02,-1.702790000000000816e+02,-1.668727500000000816e+02,-1.621383750000000816e+02,-1.578102500000000816e+02,-1.526383750000000816e+02,-1.472946250000000816e+02,-1.416227500000000816e+02,-1.344821250000000816e+02,-1.278727500000000816e+02,-1.210446250000000816e+02,-1.149665000000000816e+02,-1.083571250000000816e+02,-1.023258750000000816e+02,-9.616962500000008163e+01,-8.938837500000005321e+01,-8.452900000000003899e+01,-7.993525000000003899e+01,-7.465400000000003899e+01,-7.041962500000003899e+01,-6.574775000000003899e+01,-6.085712500000003899e+01,-5.662275000000003899e+01,-5.316962500000003899e+01,-4.827900000000003899e+01,-4.373212500000002478e+01,-3.968525000000002478e+01,-3.410712500000001768e+01,-2.981025000000001768e+01,-2.543525000000001413e+01,-2.070087500000001057e+01,-1.606025000000000702e+01,-1.246650000000000347e+01,-7.591499999999999915e+00,-2.825874999999998138e+00,9.241250000000045262e-01,6.096000000000008967e+00,1.123662500000001074e+01,1.625225000000001430e+01,2.159600000000001785e+01,2.797100000000002495e+01,3.253350000000002495e+01,3.681475000000003206e+01,4.072100000000003206e+01,4.273662500000003206e+01,4.481475000000003206e+01,4.704912500000003206e+01,4.817412500000004627e+01,4.825225000000004627e+01,4.917412500000004627e+01,4.909600000000004627e+01,4.992412500000004627e+01,5.159600000000004627e+01,5.192412500000004627e+01,5.214287500000004627e+01,5.343975000000004627e+01,5.392412500000004627e+01,5.426787500000004627e+01,5.551787500000004627e+01,5.586162500000004627e+01,5.678350000000004627e+01,5.875225000000004627e+01,6.033037500000004627e+01,6.143975000000004627e+01,6.433037500000004627e+01,6.717412500000004627e+01,7.040850000000004627e+01,7.353350000000004627e+01,7.567412500000004627e+01,7.811162500000004627e+01,8.068975000000004627e+01,8.295537500000004627e+01,8.398662500000004627e+01,8.423662500000004627e+01,8.383037500000004627e+01,8.365850000000004627e+01,8.364287500000004627e+01,8.281475000000004627e+01,8.097100000000004627e+01,7.993975000000004627e+01,7.890850000000004627e+01,7.893975000000004627e+01,7.933037500000004627e+01,8.001787500000004627e+01,8.001787500000004627e+01,7.967412500000004627e+01,8.056475000000004627e+01,8.020537500000004627e+01,7.926787500000004627e+01,7.686162500000004627e+01,7.326787500000004627e+01,6.912725000000004627e+01,6.642412500000004627e+01,6.364287500000004627e+01,5.934600000000004627e+01,5.548662500000004627e+01,5.214287500000004627e+01,4.981475000000004627e+01,4.820537500000003917e+01,4.697100000000003206e+01,4.415850000000003206e+01,4.237725000000002495e+01,4.240850000000002495e+01,4.264287500000002495e+01,4.397100000000002495e+01,4.523662500000002495e+01,4.643975000000003206e+01,4.731475000000003917e+01,4.903350000000004627e+01,4.922100000000004627e+01,4.829912500000004627e+01,4.653350000000003917e+01,4.356475000000003206e+01,3.979912500000003206e+01,3.681475000000002495e+01,3.347100000000002495e+01,3.026787500000002495e+01,2.848662500000002495e+01,2.637725000000002495e+01,2.564287500000002495e+01,2.415850000000002495e+01,2.365850000000002495e+01,2.139287500000001785e+01,1.937725000000001430e+01,1.670537500000001430e+01,1.264287500000001252e+01,9.221000000000010743e+00,3.767875000000005858e+00,-8.571249999999966951e-01,-5.794624999999999915e+00,-9.325875000000001691e+00,-1.340400000000000347e+01,-1.752900000000000702e+01,-2.009150000000001057e+01,-2.298212500000001057e+01,-2.441962500000001768e+01,-2.512275000000001768e+01,-2.674775000000001768e+01,-2.902900000000001768e+01,-2.974775000000001768e+01,-3.010712500000001768e+01,-3.115400000000001768e+01,-3.223212500000001768e+01,-3.266962500000001768e+01,-3.445087500000001768e+01,-3.529462500000001768e+01,-3.524775000000001768e+01,-3.623212500000001768e+01,-3.766962500000001768e+01,-4.020087500000001768e+01,-4.210712500000001768e+01,-4.527900000000002478e+01,-4.821650000000003899e+01,-5.145087500000003899e+01,-5.571650000000003899e+01,-6.074775000000003899e+01,-6.513837500000003899e+01,-6.862275000000003899e+01,-7.334150000000003899e+01,-7.726337500000003899e+01,-8.051337500000003899e+01,-8.312275000000003899e+01,-8.599775000000003899e+01,-8.745087500000003899e+01,-8.940400000000003899e+01,-9.076337500000003899e+01,-9.121650000000003899e+01,-9.343525000000005321e+01,-9.604462500000005321e+01,-9.920087500000008163e+01,-1.019196250000000816e+02,-1.064977500000000816e+02,-1.108883750000000816e+02,-1.171227500000000816e+02,-1.241227500000000816e+02,-1.291696250000000816e+02,-1.345758750000000816e+02,-1.409196250000000816e+02,-1.467008750000000816e+02,-1.503258750000000816e+02,-1.537008750000000816e+02,-1.557165000000000816e+02,-1.565290000000000816e+02,-1.584196250000000816e+02,-1.602165000000000816e+02,-1.604508750000000816e+02,-1.609977500000000816e+02,-1.632321250000000816e+02,-1.663415000000000816e+02,-1.687008750000000816e+02,-1.722633750000000816e+02,-1.756696250000000816e+02,-1.776540000000000816e+02,-1.805446250000000816e+02,-1.840446250000000816e+02,-1.856852500000000816e+02,-1.854352500000000816e+02,-1.850290000000000816e+02,-1.824196250000000816e+02,-1.783102500000000816e+02,-1.749508750000000816e+02,-1.696852500000000816e+02,-1.627633750000000816e+02,-1.557946250000000816e+02,-1.492946250000000816e+02,-1.432477500000000816e+02,-1.382321250000000816e+02,-1.330758750000000816e+02,-1.278258750000000816e+02,-1.234508750000000816e+02,-1.198571250000000816e+02,-1.165602500000000816e+02,-1.131852500000000816e+02,-1.103415000000000816e+02,-1.075290000000000816e+02,-1.054196250000000816e+02,-1.029352500000000816e+02,-1.005758750000000816e+02,-9.734150000000008163e+01,-9.538837500000006742e+01,-9.381025000000005321e+01,-9.177900000000003899e+01,-8.988837500000003899e+01,-8.818525000000003899e+01,-8.624775000000003899e+01,-8.459150000000003899e+01,-8.448212500000003899e+01,-8.265400000000003899e+01,-8.156025000000003899e+01,-8.015400000000003899e+01,-7.890400000000003899e+01,-7.693525000000003899e+01,-7.484150000000003899e+01,-7.206025000000003899e+01,-6.645087500000003899e+01,-6.160712500000003899e+01,-5.481025000000003899e+01,-4.666962500000003189e+01,-3.710712500000002478e+01,-2.790400000000001768e+01,-1.938837500000001057e+01,-1.206025000000000347e+01,-7.232125000000000803e+00,-2.888374999999998582e+00,1.787500000000386002e-02,-7.008749999999966951e-01,-3.669624999999998138e+00,-9.513375000000001691e+00,-1.670087500000000702e+01,-2.401337500000001057e+01,-3.284150000000001768e+01,-4.170087500000002478e+01,-5.273212500000002478e+01,-6.265400000000003899e+01,-7.284150000000003899e+01,-8.168525000000003899e+01,-9.084150000000005321e+01,-1.003883750000000816e+02,-1.086383750000000816e+02,-1.168102500000000816e+02,-1.226227500000000816e+02,-1.270602500000000816e+02,-1.298571250000000816e+02,-1.309665000000000816e+02,-1.289508750000000816e+02,-1.255290000000000816e+02,-1.207008750000000816e+02,-1.147008750000000816e+02,-1.074977500000000816e+02,-9.981025000000008163e+01,-9.185712500000006742e+01,-8.356025000000005321e+01,-7.576337500000003899e+01,-6.626337500000003899e+01,-5.618525000000003899e+01,-4.716962500000002478e+01,-3.845087500000002478e+01,-3.113837500000001768e+01,-2.345087500000001057e+01,-1.496650000000000347e+01,-7.810249999999999915e+00,-2.982124999999998138e+00,5.178750000000038600e-01,5.752250000000008079e+00,1.034600000000001074e+01,1.568975000000001074e+01,2.011162500000001430e+01,2.300225000000001785e+01,2.608037500000002140e+01,2.948662500000002495e+01,3.331475000000002495e+01,3.506475000000002495e+01,3.683037500000002495e+01,3.792412500000002495e+01,3.784600000000002495e+01,3.739287500000002495e+01,3.743975000000002495e+01,3.773662500000002495e+01,3.706475000000002495e+01,3.611162500000002495e+01,3.358037500000002495e+01,3.103350000000002495e+01,2.922100000000002495e+01,2.590850000000002140e+01,2.153350000000001785e+01,1.554912500000001074e+01,9.096000000000007191e+00,4.111625000000005414e+00,2.053750000000035270e-01,-2.763374999999998138e+00,-5.622749999999999915e+00,-5.294624999999999915e+00,-4.169624999999999027e+00,-9.149999999999591793e-02,5.752250000000008079e+00,1.162725000000001074e+01,1.923662500000001785e+01,2.593975000000002140e+01,3.403350000000002495e+01,4.118975000000003206e+01,4.836162500000004627e+01,5.340850000000004627e+01,5.848662500000004627e+01,6.273662500000004627e+01,6.472100000000004627e+01,6.775225000000004627e+01,7.031475000000004627e+01,7.164287500000004627e+01,7.401787500000004627e+01,7.776787500000004627e+01,7.958037500000004627e+01,8.147100000000004627e+01,8.426787500000004627e+01,8.517412500000004627e+01,8.426787500000004627e+01,8.434600000000004627e+01,8.278350000000004627e+01,7.951787500000004627e+01,7.687725000000004627e+01,7.331475000000004627e+01,6.875225000000004627e+01,6.589287500000004627e+01,6.345537500000004627e+01,6.039287500000004627e+01,5.653350000000004627e+01,5.354912500000004627e+01,5.190850000000004627e+01,5.098662500000004627e+01,5.197100000000004627e+01,5.201787500000004627e+01,5.400225000000004627e+01,5.586162500000004627e+01,6.033037500000004627e+01,6.493975000000004627e+01,6.800225000000004627e+01,7.253350000000004627e+01,7.658037500000004627e+01,8.106475000000004627e+01,8.489287500000004627e+01,8.981475000000006048e+01,9.254912500000006048e+01,9.464287500000008890e+01,9.817412500000008890e+01,1.012522500000000889e+02,1.035960000000000889e+02,1.055960000000000889e+02,1.068303750000000889e+02,1.067835000000000889e+02,1.083928750000000889e+02,1.115647500000000889e+02,1.135178750000000889e+02,1.144553750000000889e+02,1.151116250000000889e+02,1.164710000000000889e+02,1.176585000000000889e+02,1.210960000000000889e+02,1.238928750000000889e+02,1.262366250000000889e+02,1.303616250000000889e+02,1.345022500000000889e+02,1.400178750000000889e+02,1.457210000000000889e+02,1.528460000000000889e+02,1.577835000000000889e+02,1.632366250000000889e+02,1.675491250000000889e+02,1.709397500000000889e+02,1.760491250000000889e+02,1.817366250000001173e+02,1.876116250000001173e+02,1.930803750000001742e+02,1.997053750000001742e+02,2.055803750000001742e+02,2.130803750000001742e+02,2.212991250000001742e+02,2.279397500000001742e+02,2.320022500000001742e+02,2.340335000000001742e+02,2.337366250000001742e+02,2.317366250000001742e+02,2.284866250000001742e+02,2.233147500000001742e+02,2.151741250000001742e+02,2.058460000000001742e+02,1.970178750000001742e+02,1.898303750000001457e+02,1.835803750000001173e+02,1.788616250000000889e+02,1.764710000000000889e+02,1.737835000000000889e+02,1.733147500000000889e+02,1.754397500000000889e+02,1.776428750000000889e+02,1.787678750000000889e+02,1.817053750000000889e+02,1.840803750000000889e+02,1.845803750000000889e+02,1.855647500000000889e+02,1.835803750000000889e+02,1.783460000000000889e+02,1.715647500000000889e+02,1.646741250000000889e+02,1.552210000000000889e+02,1.442210000000000889e+02,1.340335000000000889e+02,1.245491250000000889e+02,1.183147500000000889e+02,1.151272500000000889e+02,1.150960000000000889e+02,1.157522500000000889e+02,1.187210000000000889e+02,1.246741250000000889e+02,1.299397500000000889e+02,1.347678750000000889e+02,1.404397500000000889e+02,1.449085000000000889e+02,1.485960000000000889e+02,1.520803750000000889e+02,1.539241250000000889e+02,1.540647500000000889e+02,1.546897500000000889e+02,1.558772500000000889e+02,1.547835000000000889e+02,1.522210000000000889e+02,1.486272500000000889e+02,1.463616250000000889e+02,1.448147500000000889e+02,1.428772500000000889e+02,1.418460000000000889e+02,1.408460000000000889e+02,1.399397500000000889e+02,1.413303750000000889e+02,1.430803750000000889e+02,1.434866250000000889e+02,1.434553750000000889e+02,1.450491250000000889e+02,1.448460000000000889e+02,1.441741250000000889e+02,1.452210000000000889e+02,1.452053750000000889e+02,1.452522500000000889e+02,1.457835000000000889e+02,1.470803750000000889e+02,1.468147500000000889e+02,1.482835000000000889e+02,1.490647500000000889e+02,1.483928750000000889e+02,1.485960000000000889e+02,1.493772500000000889e+02,1.483928750000000889e+02,1.469710000000000889e+02,1.465022500000000889e+02,1.444866250000000889e+02,1.423928750000000889e+02,1.390803750000000889e+02,1.333460000000000889e+02,1.259866250000000889e+02,1.205335000000000889e+02,1.137366250000000889e+02,1.052835000000000889e+02,9.698662500000007469e+01,9.067412500000006048e+01,8.683037500000006048e+01,8.553350000000004627e+01,8.512725000000004627e+01,8.358037500000004627e+01,8.478350000000004627e+01,8.729912500000004627e+01,9.153350000000006048e+01,9.442412500000006048e+01,9.540850000000006048e+01,9.597100000000008890e+01,9.828350000000008890e+01,1.017991250000000889e+02,1.030022500000000889e+02,1.051272500000000889e+02,1.053616250000000889e+02,1.062366250000000889e+02,1.082210000000000889e+02,1.103616250000000889e+02,1.105022500000000889e+02,1.093460000000000889e+02,1.097835000000000889e+02,1.086897500000000889e+02,1.090335000000000889e+02,1.089553750000000889e+02,1.090960000000000889e+02,1.080960000000000889e+02,1.080022500000000889e+02,1.090022500000000889e+02,1.095022500000000889e+02,1.104085000000000889e+02,1.106272500000000889e+02,1.096585000000000889e+02,1.080647500000000889e+02,1.067210000000000889e+02,1.047210000000000889e+02,1.026272500000000889e+02,1.002678750000000889e+02,9.798662500000008890e+01,9.515850000000006048e+01,9.447100000000006048e+01,9.409600000000004627e+01,9.428350000000004627e+01,9.511162500000006048e+01,9.568975000000007469e+01,9.679912500000008890e+01,9.986162500000008890e+01,1.046116250000000889e+02,1.087835000000000889e+02,1.130803750000000889e+02,1.174866250000000889e+02,1.214866250000000889e+02,1.254553750000000889e+02,1.292835000000000889e+02,1.307835000000000889e+02,1.308772500000000889e+02,1.295647500000000889e+02,1.279866250000000889e+02,1.267991250000000889e+02,1.249085000000000889e+02,1.231116250000000889e+02,1.194866250000000889e+02,1.152366250000000889e+02,1.113147500000000889e+02,1.087053750000000889e+02,1.057053750000000889e+02,1.002522500000000889e+02,9.534600000000006048e+01,9.023662500000006048e+01,8.568975000000004627e+01,8.056475000000004627e+01,7.293975000000004627e+01,6.315850000000004627e+01,5.197100000000003917e+01,4.184600000000003206e+01,2.948662500000001785e+01
-3.625000000000002665e+00,-1.121875000000000711e+01,-1.471875000000001066e+01,-1.582812500000001066e+01,-1.187500000000000711e+01,-7.000000000000005329e+00,-4.578125000000003553e+00,-3.125000000000000000e-02,1.375000000000000888e+00,1.515625000000001110e+00,2.843750000000002220e+00,1.531250000000000888e+00,1.140625000000000888e+00,1.796875000000001332e+00,6.250000000000000000e-02,-2.140625000000001332e+00,-2.234375000000001332e+00,-4.359375000000003553e+00,-4.171875000000003553e+00,-1.890625000000001332e+00,-3.718750000000002665e+00,-2.328125000000001776e+00,-6.718750000000004441e-01,7.812500000000000000e-02,4.265625000000002665e+00,6.156250000000003553e+00,5.906250000000003553e+00,4.734375000000003553e+00,1.390625000000001110e+00,-2.890625000000001332e+00,-5.109375000000003553e+00,-7.156250000000004441e+00,-7.640625000000005329e+00,-4.203125000000002665e+00,-2.468750000000001332e+00,1.859375000000001554e+00,5.468750000000003553e+00,3.703125000000001776e+00,4.046875000000001776e+00,1.562499999999995559e-01,-3.828125000000002665e+00,-2.515625000000001776e+00,-4.109375000000002665e+00,-2.453125000000001332e+00,-4.375000000000002220e-01,-1.984375000000001332e+00,5.625000000000002220e-01,2.671875000000001776e+00,5.031250000000003553e+00,8.765625000000005329e+00,7.093750000000004441e+00,4.390625000000003553e+00,-3.750000000000000000e-01,-5.812500000000003553e+00,-6.109375000000003553e+00,-6.312500000000003553e+00,-4.171875000000003553e+00,-7.812500000000006661e-01,5.156250000000002220e-01,1.921875000000001110e+00,4.421875000000003553e+00,6.640625000000004441e+00,7.843750000000004441e+00,1.101562500000000711e+01,9.031250000000005329e+00,4.171875000000002665e+00,-5.937500000000000000e-01,-1.115625000000000711e+01,-1.723437500000001066e+01,-1.953125000000001421e+01,-2.064062500000001421e+01,-1.326562500000000711e+01,-5.937500000000003553e+00,-6.249999999999955591e-02,7.453125000000005329e+00,9.187500000000007105e+00,8.562500000000005329e+00,8.500000000000005329e+00,5.062500000000003553e+00,1.796875000000001332e+00,1.843750000000001332e+00,5.312500000000005551e-01,7.812500000000009992e-01,4.812500000000003553e+00,4.500000000000003553e+00,5.578125000000003553e+00,7.453125000000005329e+00,3.687500000000002665e+00,4.375000000000002665e+00,5.000000000000003553e+00,3.500000000000002665e+00,7.640625000000005329e+00,9.015625000000007105e+00,9.578125000000005329e+00,1.182812500000000711e+01,1.173437500000000711e+01,1.017187500000000711e+01,7.812500000000006217e+00,4.531250000000003553e+00,-2.171875000000002220e+00,-5.562500000000005329e+00,-7.078125000000005329e+00,-8.421875000000005329e+00,-5.328125000000003553e+00,-3.515625000000001776e+00,-3.343750000000001332e+00,-4.359375000000001776e+00,-5.890625000000003553e+00,-7.906250000000004441e+00,-8.468750000000005329e+00,-5.484375000000003553e+00,-4.703125000000003553e+00,-3.859375000000002665e+00,-5.390625000000003553e+00,-9.562500000000007105e+00,-1.054687500000000711e+01,-1.017187500000000711e+01,-5.000000000000002665e+00,-2.343749999999998335e-01,1.250000000000004718e-01,-4.062499999999998335e-01,-5.609375000000003553e+00,-9.359375000000007105e+00,-6.546875000000005329e+00,-4.000000000000003553e+00,1.249999999999997780e-01,5.437500000000003553e+00,4.625000000000003553e+00,5.062500000000003553e+00,8.250000000000005329e+00,7.687500000000005329e+00,1.031250000000000711e+01,1.046875000000000711e+01,4.187500000000003553e+00,9.375000000000022204e-02,-6.515625000000003553e+00,-1.175000000000000711e+01,-1.248437500000000888e+01,-1.335937500000001066e+01,-1.242187500000000888e+01,-9.171875000000007105e+00,-4.984375000000003553e+00,8.593750000000006661e-01,8.187500000000005329e+00,1.107812500000000711e+01,1.237500000000000711e+01,1.025000000000000711e+01,4.859375000000003553e+00,1.359375000000000666e+00,-5.203125000000002665e+00,-1.134375000000000711e+01,-1.570312500000001066e+01,-1.890625000000001066e+01,-1.504687500000000711e+01,-7.328125000000005329e+00,1.781249999999999556e+00,1.137500000000000711e+01,1.354687500000000711e+01,1.373437500000000711e+01,9.703125000000007105e+00,2.937500000000002665e+00,1.781250000000001776e+00,-2.625000000000001332e+00,-2.843750000000001332e+00,-1.312500000000000444e+00,-2.140625000000001332e+00,1.625000000000000888e+00,4.312500000000002665e+00,6.250000000000003553e+00,6.796875000000003553e+00,5.312500000000002665e+00,1.296875000000000222e+00,-1.343750000000001332e+00,-2.031250000000001332e+00,-3.562500000000002665e+00,-9.531250000000004441e-01,-5.312500000000000000e-01,-1.093750000000000000e-01,2.687500000000001776e+00,2.312500000000001776e+00,3.765625000000002220e+00,5.062500000000003553e+00,2.843750000000001776e+00,5.625000000000003331e-01,-2.343750000000001332e+00,-7.234375000000005329e+00,-7.750000000000005329e+00,-5.562500000000003553e+00,-3.500000000000002665e+00,2.406250000000001776e+00,4.578125000000003553e+00,4.421875000000002665e+00,5.281250000000002665e+00,3.734375000000002220e+00,5.625000000000003553e+00,9.953125000000005329e+00,1.278125000000000711e+01,1.478125000000001066e+01,1.175000000000000711e+01,4.500000000000003553e+00,-2.625000000000001776e+00,-9.109375000000007105e+00,-1.076562500000000711e+01,-9.281250000000007105e+00,-7.109375000000005329e+00,-4.328125000000002665e+00,-3.578125000000002665e+00,-3.781250000000002665e+00,-5.015625000000003553e+00,-6.000000000000004441e+00,-7.156250000000005329e+00,-6.062500000000003553e+00,-2.531250000000001776e+00,1.093750000000000888e+00,6.234375000000005329e+00,7.296875000000005329e+00,6.250000000000004441e+00,4.515625000000003553e+00,6.250000000000000000e-02,-1.656250000000001110e+00,-2.703125000000001776e+00,-4.015625000000002665e+00,-8.437500000000004441e-01,4.000000000000002665e+00,9.328125000000007105e+00,1.568750000000001066e+01,1.751562500000001066e+01,1.329687500000000711e+01,7.375000000000003553e+00,4.374999999999995559e-01,-6.593750000000005329e+00,-6.468750000000005329e+00,-5.421875000000003553e+00,-3.953125000000002665e+00,3.156250000000002665e+00,4.828125000000003553e+00,7.234375000000004441e+00,8.968750000000007105e+00,3.656250000000003109e+00,-1.562499999999955591e-02,-4.046875000000002665e+00,-5.953125000000003553e+00,-4.109375000000002665e+00,5.312500000000000000e-01,4.312500000000002665e+00,4.828125000000002665e+00,7.250000000000003553e+00,6.171875000000004441e+00,6.390625000000005329e+00,1.090625000000000711e+01,9.046875000000007105e+00,5.843750000000003553e+00,-4.218750000000026645e-01,-1.300000000000001066e+01,-2.046875000000001421e+01,-2.340625000000001776e+01,-2.214062500000001421e+01,-1.492187500000000711e+01,-8.250000000000003553e+00,-3.640625000000001776e+00,-7.968750000000004441e-01,-3.125000000000004163e-02,4.687500000000002776e-02,1.718750000000001110e-01,1.875000000000001110e-01,9.375000000000008327e-02,6.250000000000005551e-02,-6.250000000000004163e-02,-6.250000000000004163e-02,-6.938893903907228378e-18,-1.562500000000001735e-02,1.562500000000001041e-02,-6.250000000000002776e-02,-1.562500000000000833e-01,-1.406250000000000833e-01,-7.812500000000004163e-02,4.687500000000004163e-02,1.718750000000001110e-01,1.718750000000001110e-01,4.687500000000002776e-02,-9.375000000000006939e-02,-2.343750000000001665e-01,-2.812500000000002220e-01,-1.796875000000001332e+00,-4.828125000000003553e+00,-1.064062500000000711e+01,-1.918750000000001066e+01,-2.479687500000001421e+01,-2.773437500000002132e+01,-2.429687500000001776e+01,-1.543750000000001066e+01,-7.703125000000005329e+00,-1.781250000000001776e+00,3.281250000000001665e-01,1.968750000000000888e+00,3.468750000000001776e+00,9.234375000000003553e+00,1.487500000000000711e+01,1.492187500000000888e+01,1.471875000000001066e+01,7.062500000000006217e+00,-9.062499999999993339e-01,-4.375000000000002665e+00,-6.375000000000004441e+00,-2.531250000000002665e+00,3.203125000000001332e+00,8.125000000000005329e+00,9.546875000000007105e+00,7.906250000000005329e+00,4.234375000000003553e+00,9.375000000000004441e-01,5.625000000000007772e-01,2.312500000000001776e+00,4.781250000000003553e+00,3.984375000000002665e+00,2.859375000000001776e+00,-3.906250000000004441e-01,-3.125000000000002220e+00,-1.406249999999995559e-01,2.125000000000001776e+00,6.906250000000005329e+00,1.107812500000000711e+01,9.015625000000005329e+00,7.312500000000005329e+00,1.609375000000000888e+00,-4.125000000000002665e+00,-4.203125000000002665e+00,-5.546875000000003553e+00,-1.703125000000000444e+00,2.859375000000002220e+00,2.265625000000001776e+00,4.906250000000003553e+00,2.578125000000001776e+00,-2.328125000000000888e+00,-2.640625000000001776e+00,-7.109375000000003553e+00,-7.281250000000003553e+00,-3.468750000000002220e+00,-3.843750000000002220e+00,-1.015625000000000666e+00,-2.593750000000000888e+00,-6.234375000000003553e+00,-5.250000000000003553e+00,-5.921875000000003553e+00,-1.734375000000001332e+00,2.593750000000001776e+00,3.234375000000001776e+00,6.453125000000003553e+00,6.593750000000003553e+00,5.515625000000003553e+00,6.062500000000003553e+00,2.578125000000001332e+00,7.812499999999994449e-02,1.640625000000000888e+00,2.593750000000001776e+00,5.093750000000003553e+00,6.640625000000004441e+00,2.046875000000001776e+00,-2.078125000000000888e+00,-3.796875000000001776e+00,-5.234375000000002665e+00,-7.656250000000000000e-01,2.703125000000001776e+00,3.359375000000001776e+00,6.140625000000003553e+00,4.296875000000003553e+00,3.328125000000001776e+00,3.125000000000001776e+00,-1.562500000000000888e+00,-2.703125000000001776e+00,-3.031250000000001776e+00,-2.375000000000001332e+00,3.515625000000002665e+00,6.875000000000005329e+00,8.812500000000005329e+00,7.921875000000005329e+00,2.421875000000001332e+00,-8.593750000000006661e-01,-3.781250000000002665e+00,-3.328125000000001776e+00,1.453125000000000666e+00,3.218750000000001776e+00,4.984375000000003553e+00,5.765625000000003553e+00,1.875000000000001554e+00,1.062500000000000666e+00,6.562500000000002220e-01,-1.468750000000000444e+00,1.046875000000000888e+00,3.015625000000002220e+00,5.265625000000003553e+00,9.671875000000005329e+00,1.085937500000000533e+01,9.671875000000005329e+00,6.312500000000003553e+00,1.546875000000000888e+00,-3.546875000000001332e+00,-7.281250000000003553e+00,-8.984375000000003553e+00,-9.562500000000005329e+00,-6.468750000000003553e+00,-1.343750000000001332e+00,4.156250000000002665e+00,8.515625000000005329e+00,8.609375000000005329e+00,5.671875000000003553e+00,7.187500000000006661e-01,-4.671875000000002665e+00,-6.937500000000003553e+00,-7.468750000000005329e+00,-5.109375000000003553e+00,1.250000000000000222e+00,5.843750000000003553e+00,9.234375000000003553e+00,9.015625000000003553e+00,1.640625000000000888e+00,-4.687500000000003553e+00,-8.609375000000005329e+00,-9.484375000000005329e+00,-3.218750000000001776e+00,1.875000000000001776e+00,2.750000000000001776e+00,1.281250000000000666e+00,-4.140625000000003553e+00,-1.015625000000000711e+01,-1.300000000000001066e+01,-1.353125000000001066e+01,-1.403125000000001066e+01,-1.126562500000000711e+01,-7.140625000000005329e+00,-4.421875000000003553e+00,7.812500000000002220e-01,4.031250000000002665e+00,3.890625000000002665e+00,3.843750000000002665e+00,1.859375000000001332e+00,-4.218750000000002776e-01,-1.421875000000000888e+00,-6.250000000000004441e-01,-2.031250000000001665e-01,-2.343750000000001665e-01,1.062500000000000666e+00,-1.531250000000000888e+00,-1.687500000000000888e+00,-1.125000000000000888e+00,-2.843750000000002220e+00,-1.203125000000000888e+00,-3.343750000000002665e+00,-4.015625000000003553e+00,-3.234375000000001776e+00,-2.281250000000001332e+00,1.390625000000001110e+00,2.031250000000001776e+00,2.640625000000001776e+00,-3.749999999999997780e-01,-2.234375000000001332e+00,-8.281250000000002220e-01,-6.718749999999998890e-01,4.109375000000002665e+00,5.375000000000003553e+00,2.781250000000001776e+00,2.062500000000000888e+00,-1.234375000000000888e+00,-3.468750000000002665e+00,-1.421875000000000888e+00,3.124999999999988898e-02,7.812500000000013878e-02,2.875000000000001776e+00,2.015625000000000888e+00,-1.031250000000000444e+00,-7.343750000000006661e-01,-3.281250000000002665e+00,-3.781250000000003109e+00,-1.562500000000044409e-02,2.406250000000001332e+00,4.812500000000003553e+00,6.000000000000004441e+00,2.171875000000001332e+00,-3.015625000000001776e+00,-7.562500000000005329e+00,-9.203125000000007105e+00,-5.531250000000003553e+00,-6.250000000000044409e-02,7.000000000000004441e+00,9.937500000000007105e+00,7.406250000000005329e+00,4.687500000000003553e+00,6.718750000000006661e-01,-1.656250000000000888e+00,1.046875000000000888e+00,2.359375000000001776e+00,9.062500000000006661e-01,1.296875000000000888e+00,-1.312500000000000666e+00,-3.703125000000002220e+00,-3.125000000000000000e-01,6.718750000000005551e-01,5.781250000000003331e-01,3.281250000000001776e+00,7.343750000000000000e-01,-2.234375000000001776e+00,-1.718750000000002220e-01,-1.765625000000000888e+00,-1.687500000000000888e+00,1.656250000000001110e+00,-1.671875000000001110e+00,-2.906250000000002220e+00,-2.046875000000001776e+00,-5.015625000000003553e+00,-1.750000000000001776e+00,1.062500000000000444e+00,1.984375000000000888e+00,5.859375000000003553e+00,4.968750000000003553e+00,3.453125000000002220e+00,1.109375000000000888e+00,-1.890625000000000888e+00,-1.046875000000000666e+00,7.500000000000008882e-01,4.453125000000003553e+00,5.468750000000003553e+00,3.125000000000002665e+00,-5.312500000000002220e-01,-5.625000000000003553e+00,-6.593750000000004441e+00,-6.421875000000004441e+00,-3.484375000000002665e+00,9.531250000000007772e-01,3.109375000000001776e+00,6.843750000000003553e+00,7.390625000000003553e+00,5.578125000000003553e+00,3.921875000000002665e+00,1.265625000000000666e+00,-3.125000000000001388e-02,-1.562500000000001388e-02,-5.468750000000004441e-01,-2.750000000000001776e+00,-4.765625000000003553e+00,-4.109375000000002665e+00,-2.218750000000001332e+00,1.453125000000000888e+00,4.437500000000002665e+00,1.937500000000001332e+00,-1.406250000000000666e+00,-5.500000000000003553e+00,-8.296875000000005329e+00,-7.562500000000005329e+00,-5.265625000000003553e+00,-2.812500000000004441e-01,3.156250000000002220e+00,7.937500000000007105e+00,1.081250000000000888e+01,8.234375000000007105e+00,7.437500000000005329e+00,2.218750000000001776e+00,-2.953125000000002220e+00,-2.843750000000001776e+00,-5.750000000000003553e+00,-4.546875000000002665e+00,-3.015625000000001776e+00,-3.593750000000001776e+00,-1.171875000000000666e+00,-3.125000000000001110e-01,2.500000000000001332e+00,4.578125000000002665e+00,6.531250000000003553e+00,6.515625000000003553e+00,4.203125000000001776e+00,1.625000000000000444e+00,-2.546875000000002220e+00,-2.609375000000001776e+00,-3.484375000000001776e+00,-1.453125000000000444e+00,1.250000000000004441e-01,-2.187500000000001332e+00,-1.375000000000001110e+00,-3.609375000000002665e+00,-3.859375000000002665e+00,-2.093750000000000888e+00,-1.406250000000000666e+00,1.062500000000000666e+00,1.906250000000001332e+00,3.765625000000002220e+00,1.937500000000001332e+00,-1.359375000000000444e+00,-2.359375000000001332e+00,-6.078125000000003553e+00,-2.734375000000001776e+00,1.468750000000000888e+00,3.453125000000002220e+00,7.265625000000005329e+00,4.296875000000002665e+00,2.265625000000001776e+00,9.375000000000007772e-01,-1.125000000000000666e+00,4.843750000000002220e-01,7.500000000000003331e-01,1.093750000000000666e+00,1.359375000000000888e+00,6.562500000000004441e-01,2.500000000000003331e-01,-2.078125000000001332e+00,-3.140625000000001776e+00,-4.468750000000003553e+00,-6.218750000000004441e+00,-3.265625000000002220e+00,-1.562500000000000888e+00,1.421875000000001110e+00,4.750000000000003553e+00,4.406250000000002665e+00,4.015625000000001776e+00,2.421875000000001332e+00,2.203125000000001332e+00,1.531250000000001110e+00,1.734375000000001332e+00,3.218750000000001776e+00,2.343750000000001332e+00,2.140625000000001332e+00,1.359375000000000444e+00,-2.984375000000001776e+00,-6.515625000000005329e+00,-7.328125000000005329e+00,-9.015625000000005329e+00,-6.250000000000004441e+00,-2.062500000000001332e+00,-5.468750000000003331e-01,4.062500000000002665e+00,5.421875000000003553e+00,5.281250000000003553e+00,5.140625000000003553e+00,5.000000000000004441e-01,-1.078125000000000666e+00,-1.703125000000001332e+00,-2.109375000000001776e+00,1.250000000000000555e-01,3.281250000000002220e-01,-1.359375000000000666e+00,-3.343750000000001776e+00,-4.281250000000002665e+00,-6.937500000000003553e+00,-8.984375000000005329e+00,-8.593750000000005329e+00,-9.828125000000007105e+00,-6.281250000000003553e+00,1.296875000000000888e+00,5.390625000000003553e+00,8.765625000000005329e+00,8.406250000000003553e+00,1.515625000000000666e+00,-2.390625000000001332e+00,-3.515625000000001776e+00,-3.890625000000002220e+00,1.828125000000000888e+00,5.593750000000003553e+00,5.093750000000002665e+00,6.062500000000003553e+00,8.750000000000008882e-01,-3.421875000000001776e+00,-2.281250000000001332e+00,-4.890625000000003553e+00,-1.437500000000001332e+00,2.359375000000001332e+00,5.937500000000004441e-01,4.687500000000002665e+00,4.734375000000002665e+00,1.531250000000001332e+00,2.656250000000002220e+00,-2.875000000000002220e+00,-5.984375000000004441e+00,-3.750000000000002665e+00,-3.031250000000002665e+00,3.812500000000001776e+00,7.062500000000003553e+00,5.781250000000003553e+00,1.375000000000001332e+00,-8.406250000000005329e+00,-1.501562500000001066e+01,-1.742187500000001066e+01,-1.303125000000000711e+01,-4.296875000000002665e+00,6.078125000000003553e+00,1.068750000000000711e+01,9.296875000000005329e+00,7.781250000000005329e+00,2.328125000000001776e+00,4.734375000000002665e+00,1.045312500000000711e+01,1.198437500000000711e+01,1.557812500000001066e+01,1.148437500000000711e+01,5.921875000000003553e+00,2.921875000000002220e+00,-7.500000000000013323e-01,-2.140625000000002220e+00,-2.984375000000001776e+00,-2.500000000000001776e+00,-3.250000000000001776e+00,5.937500000000008882e-01,2.125000000000001776e+00,1.171875000000001554e+00,3.046875000000002220e+00,-3.906250000000002220e+00,-7.593750000000005329e+00,-1.090625000000000711e+01,-1.742187500000001066e+01,-1.375000000000000711e+01,-1.239062500000000711e+01,-7.562500000000005329e+00,1.421875000000001554e+00,9.843750000000013323e-01,4.593750000000003553e+00,1.843750000000000888e+00,-5.109375000000003553e+00,-3.093750000000002665e+00,-7.078125000000005329e+00,-3.953125000000003109e+00,1.968750000000000888e+00,-4.687500000000001388e-02,3.984375000000003109e+00,4.484375000000003553e+00,4.109375000000003553e+00,7.375000000000005329e+00,5.781250000000003553e+00,1.953125000000000888e+00,-1.421875000000001554e+00,-3.218750000000002220e+00,-3.062500000000002220e+00,1.093750000000000222e+00,3.109375000000001776e+00,2.531250000000001776e+00,2.765625000000001776e+00,7.343750000000006661e-01,1.593750000000001110e+00,3.343750000000002220e+00,2.515625000000001776e+00,2.796875000000001776e+00,2.375000000000001776e+00,5.156250000000003331e-01,2.343750000000001776e+00,2.296875000000001776e+00,-1.031250000000000444e+00,-7.656250000000001110e-01,-2.734375000000001332e+00,-8.750000000000000000e-01,6.750000000000003553e+00,9.937500000000007105e+00,1.131250000000000711e+01,8.234375000000005329e+00,-1.875000000000000000e-01,-7.515625000000004441e+00,-1.060937500000000711e+01,-1.276562500000000888e+01,-1.178125000000000711e+01,-7.296875000000005329e+00,-7.046875000000005329e+00,-3.687500000000002665e+00,-2.343750000000000888e+00,-4.218750000000001776e+00,-3.078125000000001776e+00,-3.218750000000001776e+00,-4.375000000000004441e-01,3.093750000000001776e+00,7.484375000000004441e+00,8.687500000000005329e+00,7.046875000000005329e+00,6.046875000000003553e+00,8.750000000000006661e-01,-1.031250000000000444e+00,-1.031250000000000666e+00,-2.546875000000001776e+00,-2.171875000000001776e+00,-2.296875000000001776e+00,-2.421875000000001776e+00,-1.875000000000001554e+00,2.515625000000001776e+00,8.234375000000007105e+00,1.045312500000000711e+01,1.325000000000000888e+01,8.875000000000007105e+00,-1.109375000000001332e+00,-6.406250000000005329e+00,-1.071875000000000711e+01,-7.718750000000006217e+00,1.953125000000001110e+00,8.390625000000005329e+00,1.007812500000000711e+01,4.750000000000002665e+00,-4.078125000000002665e+00,-1.225000000000000711e+01,-1.295312500000000711e+01,-9.437500000000005329e+00,-4.609375000000002665e+00,2.468750000000001332e+00,1.546875000000000444e+00,1.203125000000000444e+00,-1.156250000000001332e+00,-4.593750000000003553e+00,-1.937500000000000888e+00,-8.593750000000004441e-01,3.718750000000002665e+00,3.828125000000002665e+00,1.718750000000000444e+00,7.968750000000000000e-01,-3.734375000000002665e+00,5.468750000000004441e-01,4.343750000000003553e+00,4.187500000000003553e+00,6.375000000000005329e+00,-2.968750000000000000e-01,-4.500000000000003553e+00,-2.921875000000001776e+00,-4.031250000000002665e+00,2.015625000000001332e+00,2.515625000000001776e+00,-2.656250000000006661e-01,2.750000000000001332e+00,-1.187500000000000444e+00,5.000000000000008882e-01,1.390625000000001332e+00,-6.328125000000003553e+00,-8.203125000000005329e+00,-1.028125000000000711e+01,-9.859375000000007105e+00,1.874999999999986677e-01,7.812500000000004441e+00,1.018750000000000533e+01,1.123437500000000711e+01,3.609375000000002220e+00,-3.031250000000001776e+00,-5.078125000000003553e+00,-7.890625000000005329e+00,-5.640625000000003553e+00,-5.796875000000003553e+00,-5.421875000000003553e+00,-7.968750000000007772e-01,2.265625000000000888e+00,8.546875000000005329e+00,1.134375000000000711e+01,6.906250000000003553e+00,5.625000000000003553e+00,4.484375000000002665e+00,7.171875000000004441e+00,1.692187500000001066e+01,1.815625000000001421e+01,1.348437500000001066e+01,4.000000000000003553e+00,-1.279687500000000711e+01,-1.917187500000001421e+01,-1.842187500000001066e+01,-1.407812500000000711e+01,-2.250000000000001332e+00,2.750000000000001776e+00,2.031250000000001332e+00,5.937500000000001110e-01,-4.421875000000003553e+00,-7.359375000000005329e+00,-4.296875000000002665e+00,8.281250000000009992e-01,5.328125000000003553e+00,1.015625000000000711e+01,1.307812500000000888e+01,1.212500000000000711e+01,1.371875000000000711e+01,1.473437500000001066e+01,8.375000000000005329e+00,3.312500000000001776e+00,-8.250000000000005329e+00,-2.039062500000001421e+01,-2.128125000000001421e+01,-2.378125000000001421e+01,-1.581250000000001066e+01,-5.281250000000003553e+00,-3.125000000000001332e+00,5.609375000000003553e+00,6.093750000000003553e+00,3.140625000000002665e+00,6.218750000000004441e+00,1.875000000000001110e+00,-1.874999999999997780e-01,7.031250000000006661e-01,-1.078125000000000444e+00,1.718750000000001332e+00,6.843750000000003553e+00,8.968750000000005329e+00,8.562500000000005329e+00,5.687500000000003553e+00,-1.343750000000000000e+00,-5.328125000000003553e+00,-5.218750000000003553e+00,-5.593750000000003553e+00,-3.437500000000002220e+00,-2.312500000000001776e+00,-3.218750000000002665e+00,-2.296875000000001776e+00,2.031250000000001110e-01,1.796875000000001110e+00,3.265625000000001776e+00,4.921875000000002665e+00,2.500000000000001332e+00,6.718750000000005551e-01,-1.562500000000000888e+00,-3.984375000000002665e+00,-3.843750000000002665e+00,-4.062500000000002665e+00,-2.343750000000002220e-01,1.593750000000001110e+00,2.562500000000001332e+00,5.781250000000003553e+00,2.578125000000001776e+00,6.250000000000003331e-01,6.562500000000003331e-01,-3.546875000000002665e+00,-2.187500000000001776e+00,1.031250000000000666e+00,2.109375000000001776e+00,6.640625000000004441e+00,8.265625000000005329e+00,8.375000000000005329e+00,8.734375000000005329e+00,6.125000000000004441e+00,3.109375000000002665e+00,-2.875000000000001776e+00,-9.078125000000005329e+00,-1.089062500000000711e+01,-1.292187500000000888e+01,-1.093750000000000711e+01,-7.718750000000006217e+00,-7.109375000000005329e+00,-2.125000000000001332e+00,3.234375000000002220e+00,6.250000000000004441e+00,7.171875000000005329e+00,4.500000000000003553e+00,-2.437500000000001776e+00,-5.125000000000003553e+00,-3.765625000000002665e+00,-3.843750000000003109e+00,1.156250000000000444e+00,3.671875000000002665e+00,3.296875000000001776e+00,5.562500000000003553e+00,4.046875000000003553e+00,-2.812500000000004441e-01,-1.500000000000001110e+00,-3.625000000000003109e+00,-2.343750000000002220e+00,3.500000000000002220e+00,3.203125000000001776e+00,3.937500000000002665e+00,-4.375000000000000000e-01,-7.156250000000005329e+00,-5.343750000000003553e+00,-5.343750000000003553e+00,3.125000000000000000e-01,7.156250000000005329e+00,6.875000000000005329e+00,8.593750000000007105e+00,5.812500000000003553e+00,1.375000000000000888e+00,-7.187500000000002220e-01,-5.484375000000003553e+00,-6.890625000000004441e+00,-6.250000000000004441e+00,-4.312500000000003553e+00,7.500000000000002220e-01,2.937500000000001776e+00,1.609375000000000666e+00,-3.125000000000027756e-02,-4.890625000000002665e+00,-8.265625000000005329e+00,-6.515625000000003553e+00,-7.500000000000004441e+00,-4.546875000000002665e+00,1.546875000000001776e+00,4.046875000000003553e+00,1.145312500000000711e+01,1.406250000000000888e+01,9.500000000000005329e+00,5.906250000000003553e+00,-2.843750000000002220e+00,-6.078125000000004441e+00,-3.265625000000002220e+00,-5.000000000000006661e-01,4.796875000000003553e+00,5.296875000000003553e+00,4.609375000000002665e+00,2.718750000000001776e+00,1.203125000000000666e+00,7.656250000000003331e-01,-2.531250000000001776e+00,-2.562500000000001776e+00,-3.140625000000001776e+00,-5.937500000000000000e-01,5.156250000000003553e+00,8.843750000000007105e+00,1.368750000000000888e+01,1.412500000000001066e+01,1.125000000000000711e+01,5.921875000000002665e+00
-6.875000000000003553e+00,-2.662500000000001066e+01,-8.750000000000003553e+00,5.125000000000001776e+00,2.125000000000000888e+00,-3.500000000000001776e+00,-5.000000000000001776e+00,-2.125000000000000888e+00,1.625000000000000888e+00,7.625000000000002665e+00,5.437500000000001776e+00,-9.000000000000003553e+00,-8.125000000000003553e+00,8.312500000000003553e+00,9.750000000000003553e+00,-1.500000000000000888e+00,-9.062500000000003553e+00,-8.312500000000003553e+00,5.062500000000001776e+00,9.437500000000003553e+00,-5.687500000000002665e+00,-7.625000000000003553e+00,2.187500000000001332e+00,1.062500000000000888e+00,-6.875000000000001110e-01,2.750000000000001332e+00,4.625000000000001776e+00,4.000000000000001776e+00,-3.750000000000002220e-01,-4.500000000000001776e+00,-2.062500000000000444e+00,8.750000000000005551e-01,-1.750000000000000666e+00,-6.812500000000002665e+00,-4.187500000000001776e+00,7.375000000000003553e+00,5.312500000000002665e+00,-4.437500000000001776e+00,3.062500000000001776e+00,7.312500000000003553e+00,-3.750000000000001776e+00,-1.050000000000000355e+01,-4.250000000000000888e+00,9.125000000000003553e+00,6.625000000000002665e+00,-8.375000000000003553e+00,-5.500000000000002665e+00,3.625000000000002220e+00,1.250000000000000888e+00,1.812500000000000444e+00,8.000000000000003553e+00,6.062500000000001776e+00,-4.000000000000001776e+00,-6.187500000000002665e+00,-3.125000000000001776e+00,-4.937500000000001776e+00,1.750000000000000444e+00,7.562500000000002665e+00,-4.687500000000002665e+00,-7.187500000000003553e+00,8.062500000000003553e+00,6.187500000000002665e+00,-5.937500000000002665e+00,7.500000000000008882e-01,1.006250000000000355e+01,7.625000000000001776e+00,-8.125000000000013323e-01,-8.500000000000003553e+00,-5.312500000000001776e+00,-4.250000000000001776e+00,-1.056250000000000355e+01,-7.875000000000003553e+00,-1.625000000000000444e+00,5.250000000000001776e+00,9.375000000000003553e+00,-1.312500000000000000e+00,-3.937500000000001332e+00,9.250000000000003553e+00,6.375000000000002665e+00,-5.500000000000002665e+00,-3.500000000000001332e+00,5.000000000000003331e-01,2.375000000000000888e+00,2.500000000000000888e+00,-2.687500000000000888e+00,1.875000000000000888e+00,7.250000000000002665e+00,2.499999999999995559e-01,-8.750000000000008882e-01,-4.375000000000004441e-01,-1.812500000000000888e+00,5.000000000000001776e+00,3.687500000000001332e+00,-2.500000000000002220e-01,6.375000000000002665e+00,3.062500000000001776e+00,-3.437500000000001776e+00,8.000000000000001776e+00,9.875000000000005329e+00,-7.437500000000000888e+00,-7.375000000000001776e+00,1.000000000000000222e+00,-4.250000000000002665e+00,-3.125000000000002665e+00,2.937500000000000888e+00,-6.249999999999955591e-02,-3.125000000000002220e-01,1.125000000000000222e+00,-6.062500000000001776e+00,-6.000000000000001776e+00,1.187500000000000444e+00,-2.937500000000001332e+00,-1.687500000000000444e+00,9.437500000000003553e+00,2.250000000000000888e+00,-1.606250000000000711e+01,-1.300000000000000355e+01,3.812500000000000888e+00,5.812500000000001776e+00,4.125000000000001776e+00,6.750000000000003553e+00,-4.562500000000001776e+00,-1.306250000000000711e+01,-5.187500000000002665e+00,-1.250000000000000000e-01,5.375000000000001776e+00,8.625000000000003553e+00,-2.437500000000000444e+00,-4.250000000000001776e+00,3.312500000000001332e+00,5.625000000000000000e-01,3.562500000000001776e+00,9.125000000000003553e+00,3.250000000000001332e+00,-7.500000000000005551e-01,-3.937500000000001776e+00,-7.875000000000003553e+00,-4.562500000000001776e+00,-6.875000000000003331e-01,-7.500000000000001110e-01,-3.125000000000000888e+00,-7.062500000000003553e+00,-4.562500000000002665e+00,5.250000000000002665e+00,1.093750000000000355e+01,9.000000000000003553e+00,2.500000000000000000e-01,-5.750000000000003553e+00,-9.375000000000004441e-01,4.562500000000001776e+00,4.062500000000001776e+00,-5.562500000000003553e+00,-1.712500000000000711e+01,-1.193750000000000533e+01,2.250000000000000444e+00,5.812500000000003553e+00,2.812500000000001776e+00,5.875000000000001776e+00,1.037500000000000355e+01,2.062500000000000000e+00,-4.750000000000002665e+00,-6.250000000000000000e-01,-1.812500000000000666e+00,-3.750000000000004441e-01,3.187500000000001776e+00,-1.750000000000000222e+00,-3.750000000000001776e+00,-1.687500000000001332e+00,2.625000000000001332e+00,1.081250000000000533e+01,7.562500000000003553e+00,-8.500000000000003553e+00,-9.187500000000003553e+00,4.812500000000001776e+00,5.875000000000001776e+00,-4.625000000000001776e+00,-6.625000000000002665e+00,4.687500000000002665e+00,6.187500000000003553e+00,-5.562500000000002665e+00,-1.437500000000000888e+00,7.375000000000003553e+00,0.000000000000000000e+00,-1.000000000000000888e+00,5.562500000000002665e+00,-2.437500000000000000e+00,-1.131250000000000355e+01,-5.937500000000003553e+00,3.937500000000001332e+00,6.062500000000002665e+00,-1.125000000000000222e+00,-1.250000000000000000e-01,6.562500000000003553e+00,-6.250000000000000000e-02,-5.625000000000002665e+00,3.750000000000000000e-01,4.812500000000001776e+00,8.250000000000003553e+00,1.187500000000000533e+01,4.937500000000003553e+00,-9.312500000000003553e+00,-1.156250000000000533e+01,-6.250000000000008882e-01,1.250000000000000000e+00,-4.437500000000001776e+00,-6.250000000000000000e-02,3.812500000000001332e+00,-3.062500000000001332e+00,-5.250000000000001776e+00,1.875000000000001332e+00,2.187500000000001332e+00,-5.250000000000001776e+00,-8.125000000000003553e+00,-1.937500000000000888e+00,7.937500000000003553e+00,1.056250000000000355e+01,3.375000000000001776e+00,-7.125000000000003553e+00,-5.875000000000003553e+00,7.312500000000003553e+00,4.625000000000002665e+00,-8.750000000000003553e+00,-4.437500000000002665e+00,2.437500000000000888e+00,-6.875000000000003331e-01,4.562500000000001776e+00,1.337500000000000711e+01,1.081250000000000533e+01,1.062500000000000444e+00,-8.875000000000005329e+00,-7.250000000000003553e+00,3.125000000000001776e+00,-6.875000000000000000e-01,-5.312500000000001776e+00,2.250000000000000888e+00,1.312500000000000222e+00,1.375000000000000222e+00,7.187500000000003553e+00,3.625000000000001776e+00,8.125000000000011102e-01,-2.125000000000000000e+00,-1.043750000000000533e+01,-6.375000000000002665e+00,6.750000000000002665e+00,6.187500000000001776e+00,1.375000000000001110e+00,1.937500000000001332e+00,-2.937500000000001776e+00,-4.440892098500626162e-16,6.250000000000002665e+00,-1.000000000000000888e+00,5.062500000000003553e+00,1.562500000000000711e+01,-3.750000000000002665e+00,-2.225000000000000711e+01,-1.406250000000000355e+01,-2.437500000000000888e+00,2.500000000000001110e-01,-1.250000000000000833e-01,-3.125000000000001665e-01,-6.250000000000002776e-02,6.250000000000002776e-02,0.000000000000000000e+00,1.250000000000000555e-01,1.250000000000000555e-01,0.000000000000000000e+00,6.250000000000002776e-02,0.000000000000000000e+00,-1.875000000000000833e-01,-1.875000000000000833e-01,1.250000000000000833e-01,3.750000000000002220e-01,0.000000000000000000e+00,-3.750000000000002220e-01,-1.250000000000000833e-01,6.250000000000002776e-02,-6.250000000000002776e-02,6.250000000000002776e-02,3.125000000000001665e-01,1.875000000000001110e-01,-1.875000000000001110e-01,-3.125000000000001665e-01,-6.250000000000002776e-02,0.000000000000000000e+00,-1.875000000000000833e-01,1.250000000000000555e-01,4.375000000000002220e-01,-6.625000000000003553e+00,-1.950000000000001066e+01,-1.650000000000000711e+01,-5.624999999999982236e-01,6.062500000000003553e+00,6.750000000000001776e+00,3.937500000000001776e+00,-7.812500000000004441e+00,-1.031250000000000533e+01,5.375000000000003553e+00,1.118750000000000533e+01,6.812500000000001776e+00,9.187500000000003553e+00,1.937500000000001332e+00,-7.062500000000003553e+00,-2.625000000000001776e+00,-2.437500000000001776e+00,-5.500000000000003553e+00,5.625000000000000000e-01,5.687500000000002665e+00,5.937500000000002665e+00,8.687500000000003553e+00,2.500000000000000444e+00,-1.175000000000000533e+01,-7.250000000000003553e+00,9.250000000000003553e+00,6.625000000000003553e+00,-3.187500000000000888e+00,3.312500000000000888e+00,4.812500000000001776e+00,-7.375000000000002665e+00,-9.437500000000003553e+00,1.812500000000000888e+00,1.081250000000000355e+01,4.625000000000001776e+00,-3.250000000000001776e+00,5.312500000000002665e+00,8.687500000000003553e+00,-4.562500000000002665e+00,-1.300000000000000711e+01,-4.687500000000001776e+00,8.500000000000003553e+00,3.750000000000002220e+00,-4.312500000000001776e+00,3.875000000000001776e+00,2.750000000000001776e+00,-3.250000000000001332e+00,2.937500000000001332e+00,-9.375000000000000000e-01,-9.187500000000003553e+00,-5.312500000000001776e+00,1.875000000000001332e+00,7.562500000000003553e+00,4.000000000000001776e+00,-5.250000000000001776e+00,-8.812500000000003553e+00,-6.250000000000003553e+00,2.562500000000002220e+00,6.625000000000003553e+00,3.750000000000001332e+00,7.499999999999998890e-01,-6.062500000000003553e+00,-2.125000000000000888e+00,1.325000000000000711e+01,9.562500000000005329e+00,-7.812500000000003553e+00,-1.306250000000000711e+01,-3.500000000000001776e+00,1.293750000000000711e+01,1.425000000000000711e+01,-2.937500000000001776e+00,-7.625000000000004441e+00,-2.812500000000001776e+00,-6.625000000000002665e+00,-1.625000000000000000e+00,1.043750000000000533e+01,7.000000000000003553e+00,-6.687500000000003553e+00,-7.125000000000003553e+00,9.062500000000003553e+00,9.250000000000003553e+00,-6.687500000000002665e+00,-3.437500000000001332e+00,2.000000000000000888e+00,-7.750000000000003553e+00,-3.687500000000001776e+00,1.093750000000000533e+01,8.312500000000003553e+00,-2.250000000000001332e+00,1.625000000000000444e+00,5.312500000000001776e+00,-8.375000000000003553e+00,-1.206250000000000355e+01,3.875000000000002665e+00,1.100000000000000533e+01,4.812500000000002665e+00,-3.937500000000001332e+00,-4.812500000000002665e+00,5.562500000000001776e+00,3.187500000000001776e+00,-7.500000000000002665e+00,5.000000000000000000e-01,5.625000000000001776e+00,-4.062500000000001776e+00,-1.687500000000000444e+00,9.500000000000005329e+00,9.500000000000005329e+00,2.250000000000001332e+00,-4.187500000000001776e+00,-6.812500000000003553e+00,-4.375000000000004441e-01,5.062500000000001776e+00,-3.250000000000002220e+00,-1.206250000000000533e+01,-6.250000000000002665e+00,6.937500000000002665e+00,1.218750000000000533e+01,5.312500000000002665e+00,-3.187500000000001332e+00,-3.062500000000001332e+00,1.937500000000000444e+00,-8.750000000000004441e-01,-8.437500000000003553e+00,-3.437500000000000888e+00,4.000000000000001776e+00,-1.812500000000000888e+00,1.875000000000004441e-01,1.400000000000000533e+01,1.206250000000000355e+01,-7.125000000000003553e+00,-2.000000000000000711e+01,-8.750000000000001776e+00,9.437500000000005329e+00,4.812500000000001776e+00,-6.250000000000000000e-01,9.812500000000005329e+00,9.375000000000000000e-01,-1.850000000000000711e+01,-6.750000000000001776e+00,9.750000000000003553e+00,-2.125000000000001776e+00,-1.268750000000000711e+01,-6.125000000000003553e+00,2.312500000000000888e+00,7.187500000000003553e+00,1.312500000000000000e+00,-5.312500000000002665e+00,4.187500000000002665e+00,7.875000000000003553e+00,-5.062500000000003553e+00,-6.687500000000003553e+00,2.937500000000001776e+00,1.000000000000000888e+00,-1.125000000000000444e+00,4.250000000000001776e+00,4.375000000000004441e-01,-4.937500000000001776e+00,-2.625000000000000888e+00,1.187500000000000444e+00,3.312500000000001776e+00,1.250000000000002220e-01,-2.625000000000001332e+00,-3.500000000000001776e+00,-4.125000000000001776e+00,6.250000000000000000e-02,5.562500000000002665e+00,6.125000000000002665e+00,5.625000000000000000e-01,-5.437500000000002665e+00,-8.375000000000003553e+00,-1.187500000000000000e+00,1.050000000000000355e+01,3.875000000000000888e+00,-2.875000000000001776e+00,4.562500000000001776e+00,-2.125000000000000888e+00,-9.812500000000003553e+00,3.250000000000001776e+00,5.812500000000003553e+00,-4.187500000000001776e+00,-3.750000000000004441e-01,2.937500000000001332e+00,1.437500000000000888e+00,2.812500000000001776e+00,-5.437500000000002665e+00,-7.312500000000003553e+00,4.687500000000001776e+00,1.875000000000000000e+00,-4.625000000000001776e+00,7.062500000000003553e+00,1.062500000000000355e+01,-3.437500000000001776e+00,-8.812500000000003553e+00,-4.812500000000002665e+00,-6.000000000000003553e+00,-2.312500000000001776e+00,8.750000000000003553e+00,8.000000000000003553e+00,3.500000000000001776e+00,4.312500000000001776e+00,-5.687500000000002665e+00,-1.143750000000000533e+01,2.375000000000000888e+00,8.937500000000003553e+00,4.562500000000001776e+00,1.000000000000000666e+00,-9.062500000000003553e+00,-6.750000000000002665e+00,8.687500000000003553e+00,1.875000000000001776e+00,-6.250000000000001776e+00,5.250000000000003553e+00,3.312500000000002220e+00,-3.562500000000001332e+00,8.750000000000007772e-01,-4.875000000000002665e+00,-4.125000000000002665e+00,9.062500000000003553e+00,3.562500000000001776e+00,-5.062500000000002665e+00,-3.062500000000001332e+00,-4.437500000000001776e+00,-1.875000000000000000e-01,5.125000000000001776e+00,8.125000000000004441e-01,-2.750000000000000888e+00,-4.375000000000002220e-01,7.312500000000003553e+00,8.625000000000003553e+00,-5.375000000000002665e+00,-1.506250000000000711e+01,-2.687500000000001776e+00,1.387500000000000533e+01,8.937500000000003553e+00,-3.375000000000001776e+00,-2.437500000000001332e+00,-3.125000000000001110e-01,-5.875000000000003553e+00,-6.437500000000003553e+00,2.937500000000000888e+00,4.750000000000001776e+00,-2.062500000000000444e+00,-1.437500000000000444e+00,2.625000000000001332e+00,7.125000000000002665e+00,8.437500000000003553e+00,-5.062500000000001776e+00,-1.462500000000000711e+01,8.125000000000000000e-01,1.512500000000000711e+01,5.125000000000001776e+00,-9.250000000000005329e+00,-1.231250000000000533e+01,-5.875000000000001776e+00,9.312500000000003553e+00,1.406250000000000711e+01,-1.124999999999999112e+00,-8.000000000000003553e+00,-1.437500000000000888e+00,-1.875000000000000888e+00,-4.687500000000001776e+00,-5.000000000000000000e-01,5.625000000000006661e-01,-2.000000000000000888e+00,2.500000000000000888e+00,5.437500000000002665e+00,5.687500000000002665e+00,6.750000000000003553e+00,-3.562500000000002220e+00,-7.875000000000004441e+00,2.500000000000000888e+00,1.000000000000000444e+00,-5.000000000000001776e+00,-1.000000000000000444e+00,2.187500000000000888e+00,-2.500000000000000000e-01,-3.375000000000001332e+00,-1.187500000000000444e+00,3.500000000000001776e+00,4.562500000000001776e+00,1.250000000000000444e+00,8.750000000000005551e-01,3.625000000000001332e+00,2.499999999999993339e-01,-6.562500000000002665e+00,-6.500000000000002665e+00,2.500000000000000888e+00,6.250000000000002665e+00,3.187500000000001776e+00,-1.812500000000001110e+00,-1.093750000000000533e+01,-4.000000000000001776e+00,1.243750000000000533e+01,2.875000000000000888e+00,-1.381250000000000711e+01,-1.937500000000000000e+00,1.281250000000000711e+01,2.687500000000001776e+00,-2.937500000000000888e+00,1.000000000000000666e+00,-7.250000000000003553e+00,-7.500000000000003553e+00,3.750000000000001776e+00,5.750000000000002665e+00,3.125000000000001332e+00,4.375000000000001776e+00,2.812500000000001776e+00,-9.187500000000003553e+00,-8.687500000000003553e+00,1.218750000000000533e+01,1.068750000000000533e+01,-1.312500000000000533e+01,-9.500000000000003553e+00,1.368750000000000711e+01,8.812500000000003553e+00,-1.118750000000000355e+01,-6.875000000000002665e+00,5.562500000000002665e+00,2.937500000000001332e+00,-5.062500000000001776e+00,-8.812500000000003553e+00,6.250000000000000000e-02,1.143750000000000533e+01,6.000000000000003553e+00,-4.000000000000001776e+00,-4.000000000000001776e+00,-1.312500000000000444e+00,2.437500000000000888e+00,8.375000000000003553e+00,-1.250000000000008882e-01,-1.225000000000000711e+01,2.000000000000000000e+00,1.493750000000000711e+01,-1.250000000000000000e-01,-9.062500000000003553e+00,-4.875000000000001776e+00,-7.312500000000003553e+00,4.375000000000000000e-01,1.006250000000000355e+01,-3.312500000000001776e+00,-1.112500000000000533e+01,5.250000000000001776e+00,1.418750000000000711e+01,-1.875000000000000000e-01,-6.687500000000003553e+00,3.750000000000001776e+00,-2.812500000000000888e+00,-1.100000000000000533e+01,7.750000000000003553e+00,1.268750000000000533e+01,-8.375000000000005329e+00,-8.000000000000005329e+00,5.437500000000002665e+00,-2.562500000000001776e+00,-5.125000000000002665e+00,5.125000000000002665e+00,-3.500000000000001776e+00,-1.356250000000000711e+01,-4.562500000000001776e+00,7.375000000000001776e+00,1.500000000000000533e+01,8.812500000000003553e+00,-8.312500000000003553e+00,-8.812500000000003553e+00,6.250000000000022204e-02,6.250000000000022204e-02,2.500000000000000000e-01,4.375000000000003331e-01,2.812500000000001776e+00,8.750000000000003553e+00,2.625000000000000888e+00,-6.687500000000002665e+00,-8.062500000000003553e+00,-3.312500000000001332e+00,8.500000000000003553e+00,4.250000000000001776e+00,-8.062500000000003553e+00,1.312500000000000888e+00,5.125000000000001776e+00,-1.375000000000000888e+00,4.312500000000001776e+00,2.687500000000000888e+00,-5.312500000000001776e+00,-5.875000000000002665e+00,-6.437500000000003553e+00,6.250000000000000000e-02,1.131250000000000533e+01,1.062500000000000533e+01,-1.812500000000000000e+00,-6.812500000000003553e+00,-1.312500000000001110e+00,-7.750000000000003553e+00,-1.718750000000000711e+01,-4.312500000000001776e+00,1.250000000000000533e+01,1.068750000000000533e+01,8.062500000000003553e+00,3.750000000000000888e+00,-1.287500000000000711e+01,-1.137500000000000533e+01,7.500000000000003553e+00,1.568750000000000711e+01,1.181250000000000533e+01,-1.250000000000000000e+00,-7.000000000000002665e+00,5.625000000000004441e-01,2.312500000000001332e+00,-1.875000000000000555e-01,1.687500000000000888e+00,-1.625000000000000888e+00,-7.437500000000003553e+00,-1.937500000000000888e+00,5.437500000000002665e+00,7.687500000000004441e+00,8.125000000000008882e-01,-1.006250000000000533e+01,6.875000000000000000e-01,8.187500000000003553e+00,-9.750000000000005329e+00,-1.681250000000000711e+01,-4.187500000000001776e+00,7.062500000000002665e+00,2.000000000000000444e+00,-5.062500000000001776e+00,5.875000000000002665e+00,6.687500000000003553e+00,-3.312500000000001332e+00,-3.875000000000001776e+00,-7.437500000000002665e+00,-4.062500000000000888e+00,3.687500000000001332e+00,5.437500000000001776e+00,8.937500000000003553e+00,-4.375000000000001776e+00,-1.693750000000000711e+01,4.812500000000004441e+00,2.275000000000001066e+01,7.250000000000001776e+00,-1.237500000000000533e+01,-1.631250000000000711e+01,-5.062500000000002665e+00,1.468750000000000711e+01,1.475000000000000888e+01,-7.562500000000001776e+00,-1.412500000000000533e+01,4.500000000000001776e+00,1.306250000000000533e+01,-4.937500000000001776e+00,-1.037500000000000355e+01,1.125000000000000711e+01,1.125000000000000711e+01,-1.243750000000000533e+01,-1.081250000000000533e+01,8.687500000000003553e+00,1.368750000000000533e+01,1.875000000000000000e+00,-1.512500000000000711e+01,-1.193750000000000533e+01,6.250000000000003553e+00,1.112500000000000533e+01,1.087500000000000533e+01,7.437500000000003553e+00,-7.187500000000003553e+00,-1.087500000000000533e+01,-1.125000000000000444e+00,-7.500000000000000000e-01,-2.875000000000000888e+00,-2.687500000000001776e+00,-6.312500000000003553e+00,2.500000000000000000e-01,7.062500000000003553e+00,-1.875000000000000000e-01,-5.937500000000003553e+00,-4.000000000000002665e+00,1.250000000000000000e-01,1.937500000000001332e+00,8.750000000000006661e-01,3.875000000000001776e+00,1.068750000000000533e+01,1.437500000000000888e+00,-1.262500000000000711e+01,2.000000000000000000e+00,1.093750000000000355e+01,-9.875000000000005329e+00,-8.125000000000003553e+00,1.375000000000000711e+01,2.562500000000001776e+00,-1.537500000000000711e+01,-1.312500000000000888e+00,7.312500000000003553e+00,1.750000000000001110e+00,1.037500000000000355e+01,8.812500000000003553e+00,-4.687500000000002665e+00,-1.250000000000000888e+00,-4.375000000000001776e+00,-1.806250000000000711e+01,-7.625000000000003553e+00,1.712500000000000711e+01,2.225000000000001066e+01,5.187500000000001776e+00,-1.325000000000000533e+01,-1.643750000000000711e+01,-5.312500000000003553e+00,3.187500000000001776e+00,3.062500000000001776e+00,-1.000000000000000888e+00,-1.437500000000001110e+00,7.687500000000003553e+00,3.437500000000001776e+00,-1.118750000000000533e+01,-5.875000000000002665e+00,4.250000000000002665e+00,9.375000000000002220e-01,2.000000000000000888e+00,1.143750000000000533e+01,1.250000000000000000e-01,-1.643750000000000711e+01,-3.000000000000001776e+00,6.125000000000001776e+00,2.187500000000000888e+00,1.250000000000000711e+01,8.937500000000003553e+00,-1.506250000000000711e+01,-2.025000000000001066e+01,2.687500000000001776e+00,2.043750000000001066e+01,5.500000000000002665e+00,-9.875000000000003553e+00,-6.500000000000002665e+00,-3.000000000000001332e+00,7.375000000000003553e+00,8.687500000000003553e+00,-4.187500000000001776e+00,-2.437500000000000888e+00,-5.000000000000002665e+00,-1.493750000000000711e+01,-3.187500000000000888e+00,9.812500000000005329e+00,1.100000000000000533e+01,1.200000000000000711e+01,6.250000000000000000e-02,-1.343750000000000711e+01,-7.750000000000003553e+00,2.375000000000001332e+00,4.250000000000001776e+00,1.187500000000000444e+00,-2.062500000000000888e+00,-8.812500000000003553e+00,-8.875000000000003553e+00,8.875000000000003553e+00,1.693750000000000711e+01,7.062500000000004441e+00,-1.437500000000000222e+00,-1.325000000000000711e+01,-1.293750000000000711e+01,1.156250000000000711e+01,2.400000000000001066e+01,1.406250000000000533e+01,-8.750000000000000000e-01,-1.200000000000000533e+01,-1.468750000000000711e+01,-1.543750000000000711e+01,-3.062500000000000888e+00,1.475000000000000711e+01,3.187500000000000000e+00,-6.125000000000003553e+00,8.937500000000003553e+00,7.500000000000000000e-01,-1.693750000000000711e+01,-1.687500000000000000e+00,6.812500000000003553e+00,-5.687500000000002665e+00,6.000000000000002665e+00,1.881250000000000711e+01,-2.750000000000001776e+00,-1.381250000000000711e+01,5.312500000000001776e+00,1.912500000000000711e+01,1.293750000000000533e+01,-8.312500000000001776e+00,-1.968750000000000711e+01,-1.156250000000000533e+01,-4.125000000000001776e+00,4.375000000000004441e-01,-4.000000000000001776e+00,-3.375000000000001776e+00,1.143750000000000355e+01,2.187500000000000000e+00,-6.687500000000003553e+00,8.812500000000003553e+00,6.875000000000000000e-01,-1.093750000000000533e+01,8.187500000000001776e+00,1.037500000000000355e+01,-1.406250000000000711e+01,-1.406250000000000711e+01,1.387500000000000711e+01,2.462500000000001066e+01,2.312500000000000000e+00,-1.731250000000000711e+01,-8.562500000000003553e+00,1.625000000000000444e+00,1.687500000000000888e+00,7.562500000000004441e+00,1.875000000000000000e-01,-1.625000000000000711e+01,-1.312500000000000000e+00,1.668750000000000711e+01,-3.312500000000001776e+00,-1.400000000000000711e+01,9.500000000000007105e+00,1.412500000000000711e+01,-5.875000000000002665e+00,-9.937500000000003553e+00,7.500000000000008882e-01,4.312500000000002665e+00,2.500000000000002220e-01,-6.375000000000001776e+00,-7.437500000000002665e+00,9.875000000000007105e+00,1.487500000000000711e+01,-9.500000000000007105e+00,-1.025000000000000711e+01,1.018750000000000355e+01,4.375000000000001776e+00,-6.562500000000002665e+00,-5.562500000000001776e+00,-4.125000000000001776e+00,7.937500000000002665e+00,1.587500000000000711e+01,-1.500000000000000000e+00,-1.425000000000000711e+01,2.812500000000000888e+00,1.787500000000000711e+01,5.062500000000001776e+00,-1.043750000000000533e+01,-1.456250000000000711e+01,-1.193750000000000533e+01,6.625000000000001776e+00,1.681250000000000711e+01,-5.750000000000001776e+00,-2.343750000000000711e+01,-7.312500000000000888e+00,2.018750000000001066e+01,2.337500000000001066e+01,-3.937500000000001776e+00,-2.031250000000000711e+01,-3.437500000000001776e+00,4.687500000000001776e+00,-1.937500000000000666e+00,7.187500000000003553e+00,3.437500000000001776e+00,-1.406250000000000533e+01,1.875000000000000000e-01,1.931250000000000711e+01,4.500000000000001776e+00,-1.312500000000000533e+01,-8.687500000000003553e+00,1.875000000000000222e+00,2.437500000000000888e+00,2.062500000000000888e+00,9.687500000000003553e+00,4.312500000000002665e+00,-9.125000000000003553e+00,-1.118750000000000355e+01,-6.937500000000003553e+00,7.000000000000001776e+00,1.268750000000000533e+01,-1.562500000000000000e+00,-3.687500000000000888e+00,5.937500000000002665e+00,4.125000000000001776e+00,-3.687500000000001776e+00,-3.812500000000002220e+00,1.625000000000000444e+00,-1.937500000000000888e+00,-9.437500000000003553e+00,-4.125000000000001776e+00,9.250000000000003553e+00,1.425000000000000711e+01,-4.375000000000008882e-01,-1.768750000000000711e+01,-5.875000000000001776e+00,1.012500000000000355e+01,-1.562500000000001776e+00,-6.812500000000003553e+00,9.375000000000002220e-01,-3.062500000000001776e+00,-4.375000000000000000e-01,1.212500000000000533e+01,1.443750000000000711e+01,3.187500000000002220e+00,-1.150000000000000533e+01,-1.018750000000000355e+01,-1.812500000000000888e+00,-1.875000000000000278e-01,7.562500000000003553e+00,1.268750000000000533e+01,-8.750000000000017764e-01,-1.406250000000000711e+01,-3.937500000000001776e+00,1.225000000000000533e+01,1.100000000000000355e+01,-4.312500000000002665e+00,-1.962500000000001066e+01,-9.625000000000005329e+00,1.900000000000000711e+01,1.918750000000000711e+01,-1.087500000000000533e+01,-1.637500000000000711e+01,1.762500000000000711e+01,2.856250000000001066e+01
-1.825000000000000711e+01,-1.125000000000000178e+01,-3.000000000000000444e+00,1.625000000000000355e+01,-1.875000000000000355e+01,2.125000000000000711e+01,-2.600000000000000711e+01,2.125000000000000711e+01,-1.525000000000000355e+01,7.750000000000001776e+00,8.000000000000001776e+00,-8.250000000000001776e+00,-9.000000000000001776e+00,9.750000000000001776e+00,7.500000000000001776e+00,-1.100000000000000178e+01,8.000000000000001776e+00,-1.175000000000000355e+01,-7.500000000000000000e-01,1.925000000000000711e+01,-1.325000000000000355e+01,-1.000000000000000178e+01,2.050000000000000355e+01,-1.875000000000000355e+01,1.400000000000000355e+01,-1.125000000000000355e+01,1.275000000000000355e+01,-9.750000000000003553e+00,1.200000000000000355e+01,-1.325000000000000355e+01,5.750000000000000888e+00,2.500000000000002220e-01,-2.750000000000000888e+00,3.250000000000000888e+00,-1.025000000000000178e+01,5.000000000000000888e+00,1.450000000000000355e+01,-2.075000000000000355e+01,7.500000000000001776e+00,1.375000000000000178e+01,-1.925000000000000355e+01,1.450000000000000355e+01,-2.000000000000000711e+01,1.425000000000000355e+01,7.250000000000001776e+00,-1.250000000000000355e+01,-4.000000000000000888e+00,1.425000000000000355e+01,-1.225000000000000355e+01,6.500000000000001776e+00,-5.000000000000001110e-01,5.000000000000000888e+00,1.250000000000000888e+00,-1.525000000000000355e+01,1.800000000000000355e+01,-1.525000000000000355e+01,2.500000000000000000e-01,1.400000000000000355e+01,-7.500000000000001776e+00,-9.500000000000001776e+00,8.000000000000001776e+00,1.225000000000000178e+01,-1.925000000000000355e+01,5.750000000000001776e+00,1.175000000000000178e+01,-1.375000000000000355e+01,2.100000000000000355e+01,-2.375000000000000711e+01,9.000000000000001776e+00,2.250000000000000444e+00,-1.025000000000000355e+01,-1.750000000000000000e+00,8.250000000000001776e+00,-1.525000000000000355e+01,2.225000000000000711e+01,-7.750000000000001776e+00,-1.225000000000000355e+01,1.650000000000000355e+01,5.000000000000000000e-01,-7.250000000000001776e+00,-2.250000000000000444e+00,1.200000000000000355e+01,-2.000000000000000711e+01,2.625000000000000711e+01,-2.125000000000000711e+01,5.500000000000001776e+00,9.750000000000001776e+00,-5.750000000000001776e+00,-7.250000000000001776e+00,2.000000000000000355e+01,-2.675000000000000711e+01,2.000000000000000711e+01,5.000000000000000000e-01,-1.500000000000000355e+01,1.850000000000000355e+01,-7.000000000000000888e+00,2.000000000000000888e+00,-1.275000000000000355e+01,3.475000000000000711e+01,-3.150000000000000711e+01,6.000000000000001776e+00,9.000000000000003553e+00,-1.025000000000000355e+01,-1.500000000000000444e+00,8.500000000000001776e+00,-5.500000000000000888e+00,-1.000000000000000444e+00,4.250000000000001776e+00,1.250000000000000000e+00,-1.650000000000000355e+01,1.825000000000000355e+01,-7.250000000000001776e+00,-1.100000000000000178e+01,1.925000000000000355e+01,-7.000000000000000888e+00,1.500000000000000000e+00,-2.100000000000000355e+01,1.950000000000000355e+01,-3.000000000000000888e+00,-7.250000000000001776e+00,1.325000000000000355e+01,-5.000000000000000000e-01,-1.850000000000000711e+01,1.300000000000000355e+01,-4.500000000000000888e+00,-6.250000000000000888e+00,1.800000000000000355e+01,-8.000000000000001776e+00,-1.200000000000000355e+01,2.050000000000000711e+01,-1.300000000000000355e+01,-1.750000000000000888e+00,1.725000000000000355e+01,-1.275000000000000178e+01,4.000000000000000888e+00,6.250000000000001776e+00,-1.825000000000000355e+01,1.650000000000000355e+01,-1.700000000000000355e+01,1.750000000000000355e+01,-1.850000000000000355e+01,1.750000000000000355e+01,-2.450000000000000711e+01,2.125000000000000355e+01,-7.750000000000001776e+00,5.000000000000000888e+00,9.750000000000001776e+00,-2.325000000000000711e+01,2.325000000000000711e+01,-2.050000000000000355e+01,2.200000000000000355e+01,-1.650000000000000355e+01,9.000000000000001776e+00,-2.675000000000000355e+01,2.850000000000000355e+01,-2.075000000000000355e+01,1.900000000000000355e+01,-1.550000000000000355e+01,1.375000000000000178e+01,6.250000000000001776e+00,-2.300000000000000711e+01,2.325000000000000711e+01,-1.275000000000000355e+01,-5.250000000000000888e+00,2.025000000000000355e+01,-2.325000000000000711e+01,1.800000000000000355e+01,-1.525000000000000355e+01,1.075000000000000178e+01,-7.000000000000001776e+00,1.700000000000000355e+01,-1.050000000000000178e+01,-1.250000000000000355e+01,1.800000000000000711e+01,-8.750000000000001776e+00,6.750000000000001776e+00,-1.050000000000000355e+01,0.000000000000000000e+00,1.825000000000000355e+01,-1.900000000000000355e+01,1.750000000000000888e+00,1.175000000000000355e+01,-5.500000000000001776e+00,-7.000000000000001776e+00,1.225000000000000355e+01,-7.500000000000008882e-01,-1.475000000000000355e+01,1.175000000000000178e+01,-1.300000000000000178e+01,1.750000000000000355e+01,-8.500000000000001776e+00,-6.500000000000001776e+00,1.550000000000000355e+01,-7.000000000000001776e+00,-4.250000000000000888e+00,3.250000000000000888e+00,2.500000000000000888e+00,-4.000000000000000888e+00,1.150000000000000178e+01,-2.250000000000000000e+00,1.000000000000000000e+00,-1.275000000000000355e+01,5.250000000000000888e+00,7.500000000000001776e+00,-1.400000000000000355e+01,7.750000000000001776e+00,0.000000000000000000e+00,1.750000000000000444e+00,-8.750000000000001776e+00,4.500000000000000888e+00,6.500000000000000888e+00,-1.225000000000000355e+01,9.500000000000003553e+00,-1.600000000000000355e+01,1.700000000000000355e+01,-5.500000000000001776e+00,6.250000000000001776e+00,-1.750000000000000000e+00,-1.200000000000000355e+01,1.050000000000000178e+01,7.250000000000001776e+00,-1.300000000000000355e+01,-3.000000000000000888e+00,1.550000000000000355e+01,-1.700000000000000355e+01,9.750000000000001776e+00,1.250000000000000222e+00,7.250000000000001776e+00,-5.000000000000000888e+00,5.000000000000000888e+00,-1.600000000000000355e+01,1.125000000000000355e+01,7.000000000000000888e+00,-2.400000000000000711e+01,2.225000000000000711e+01,-5.500000000000000888e+00,-1.350000000000000355e+01,2.725000000000000711e+01,-2.275000000000000355e+01,1.575000000000000355e+01,-7.500000000000000888e+00,2.500000000000000888e+00,-1.375000000000000355e+01,1.250000000000000355e+01,4.500000000000000888e+00,-1.350000000000000355e+01,1.550000000000000355e+01,-6.000000000000000888e+00,-1.175000000000000355e+01,2.275000000000000711e+01,-1.200000000000000355e+01,-1.050000000000000355e+01,3.075000000000000711e+01,-1.450000000000000533e+01,-1.000000000000000178e+01,-5.000000000000001110e-01,2.500000000000000555e-01,2.500000000000000555e-01,-2.500000000000000555e-01,0.000000000000000000e+00,-2.500000000000000555e-01,5.000000000000001110e-01,-5.000000000000001110e-01,2.500000000000000555e-01,2.500000000000000555e-01,-5.000000000000001110e-01,5.000000000000001110e-01,-2.500000000000000555e-01,0.000000000000000000e+00,0.000000000000000000e+00,-2.500000000000000555e-01,5.000000000000001110e-01,0.000000000000000000e+00,-5.000000000000001110e-01,2.500000000000000555e-01,0.000000000000000000e+00,0.000000000000000000e+00,-2.500000000000000555e-01,5.000000000000001110e-01,-2.500000000000000555e-01,2.500000000000000555e-01,-5.000000000000001110e-01,2.500000000000000555e-01,0.000000000000000000e+00,0.000000000000000000e+00,-5.000000000000001110e-01,1.000000000000000222e+00,-5.000000000000001110e-01,-2.500000000000000555e-01,-2.600000000000000711e+01,2.850000000000000711e+01,-2.250000000000000355e+01,2.100000000000000355e+01,-1.275000000000000355e+01,1.350000000000000355e+01,-2.325000000000000355e+01,1.075000000000000178e+01,1.400000000000000355e+01,-1.950000000000000355e+01,1.900000000000000355e+01,1.500000000000000444e+00,-1.925000000000000355e+01,1.925000000000000355e+01,-1.475000000000000355e+01,8.500000000000001776e+00,-1.300000000000000355e+01,1.875000000000000355e+01,-1.400000000000000355e+01,9.750000000000001776e+00,6.750000000000001776e+00,-1.350000000000000355e+01,-1.500000000000000000e+00,3.250000000000000888e+00,1.425000000000000355e+01,-2.000000000000000355e+01,9.500000000000001776e+00,9.000000000000001776e+00,-1.400000000000000355e+01,3.250000000000000888e+00,-4.000000000000000888e+00,5.750000000000001776e+00,9.250000000000001776e+00,-1.550000000000000355e+01,6.000000000000001776e+00,1.325000000000000178e+01,-1.500000000000000355e+01,6.750000000000001776e+00,-1.425000000000000178e+01,1.125000000000000178e+01,9.750000000000001776e+00,-2.225000000000000711e+01,1.475000000000000355e+01,7.000000000000001776e+00,-2.175000000000000711e+01,1.925000000000000711e+01,-2.250000000000000888e+00,-1.475000000000000355e+01,1.350000000000000355e+01,-1.250000000000000355e+01,9.000000000000001776e+00,7.250000000000001776e+00,-1.625000000000000355e+01,1.400000000000000355e+01,-1.750000000000000355e+01,8.500000000000003553e+00,6.250000000000001776e+00,-9.750000000000001776e+00,1.150000000000000355e+01,-6.000000000000001776e+00,-9.250000000000001776e+00,1.250000000000000178e+01,9.500000000000001776e+00,-1.700000000000000355e+01,8.500000000000001776e+00,-1.375000000000000355e+01,1.025000000000000355e+01,1.050000000000000178e+01,-5.250000000000000888e+00,-1.225000000000000355e+01,1.650000000000000355e+01,-1.250000000000000355e+01,-6.000000000000000888e+00,1.875000000000000355e+01,-1.200000000000000355e+01,1.375000000000000355e+01,-2.400000000000000711e+01,1.600000000000000355e+01,8.500000000000001776e+00,-1.150000000000000178e+01,-8.000000000000001776e+00,2.425000000000000711e+01,-2.525000000000000711e+01,7.000000000000000888e+00,3.500000000000000888e+00,6.000000000000001776e+00,-4.000000000000001776e+00,-7.750000000000001776e+00,1.850000000000000355e+01,-1.100000000000000355e+01,-1.075000000000000178e+01,9.250000000000001776e+00,4.750000000000000888e+00,-5.000000000000000888e+00,9.250000000000001776e+00,-1.600000000000000355e+01,8.000000000000001776e+00,1.275000000000000355e+01,-2.200000000000000711e+01,8.250000000000001776e+00,1.000000000000000178e+01,-1.225000000000000178e+01,5.000000000000002220e-01,7.000000000000000888e+00,1.250000000000000888e+00,1.250000000000000000e+00,-3.000000000000000888e+00,1.500000000000000888e+00,-1.100000000000000355e+01,1.850000000000000355e+01,-1.275000000000000355e+01,2.750000000000000444e+00,-1.050000000000000355e+01,9.750000000000003553e+00,7.500000000000000000e-01,5.500000000000000888e+00,-6.250000000000000888e+00,5.000000000000000000e-01,0.000000000000000000e+00,4.250000000000000888e+00,-5.000000000000000888e+00,-9.500000000000003553e+00,1.725000000000000355e+01,-1.000000000000000178e+01,-4.500000000000000888e+00,1.125000000000000355e+01,5.500000000000001776e+00,-5.500000000000001776e+00,-3.250000000000000888e+00,-1.575000000000000355e+01,1.900000000000000355e+01,2.000000000000000000e+00,-1.800000000000000355e+01,1.900000000000000355e+01,2.500000000000001776e+00,-1.475000000000000355e+01,-1.025000000000000178e+01,2.650000000000000711e+01,-1.500000000000000355e+01,-4.250000000000000888e+00,2.750000000000000444e+00,-2.750000000000000444e+00,2.000000000000000444e+00,1.100000000000000178e+01,-1.900000000000000355e+01,1.000000000000000178e+01,6.750000000000001776e+00,-5.250000000000001776e+00,-9.000000000000001776e+00,1.025000000000000178e+01,5.000000000000000000e-01,-1.050000000000000178e+01,1.100000000000000355e+01,2.250000000000000000e+00,-1.650000000000000355e+01,2.075000000000000355e+01,-2.375000000000000711e+01,2.375000000000000711e+01,-1.425000000000000355e+01,2.000000000000000444e+00,6.750000000000001776e+00,-1.625000000000000355e+01,1.675000000000000355e+01,-1.500000000000000355e+01,1.800000000000000355e+01,-1.050000000000000178e+01,1.750000000000000222e+00,1.250000000000000222e+00,-1.325000000000000355e+01,1.550000000000000355e+01,6.000000000000001776e+00,-2.325000000000000711e+01,2.375000000000000711e+01,-6.500000000000001776e+00,-1.125000000000000178e+01,3.750000000000000888e+00,1.550000000000000355e+01,-2.000000000000000355e+01,6.500000000000000888e+00,1.150000000000000355e+01,-2.200000000000000711e+01,2.475000000000000711e+01,-1.375000000000000178e+01,-5.750000000000001776e+00,6.750000000000001776e+00,8.500000000000001776e+00,-1.900000000000000711e+01,1.125000000000000355e+01,9.750000000000001776e+00,-1.075000000000000178e+01,1.000000000000000222e+00,-3.500000000000000888e+00,6.000000000000001776e+00,-1.550000000000000355e+01,1.500000000000000355e+01,3.250000000000000888e+00,-1.200000000000000355e+01,1.600000000000000355e+01,-6.000000000000001776e+00,-1.000000000000000178e+01,1.250000000000000000e+00,1.725000000000000355e+01,-2.100000000000000355e+01,2.125000000000000355e+01,-1.100000000000000178e+01,-1.275000000000000355e+01,1.675000000000000355e+01,5.250000000000000888e+00,-2.475000000000000711e+01,2.075000000000000355e+01,2.750000000000000888e+00,-2.075000000000000711e+01,2.150000000000000711e+01,-7.500000000000001776e+00,-1.525000000000000355e+01,2.125000000000000711e+01,-1.500000000000000000e+00,-1.675000000000000355e+01,2.050000000000000355e+01,-1.700000000000000355e+01,1.250000000000000000e+00,1.400000000000000355e+01,-1.675000000000000355e+01,1.550000000000000355e+01,-1.550000000000000355e+01,1.100000000000000178e+01,2.000000000000000444e+00,1.750000000000000888e+00,-1.300000000000000355e+01,1.000000000000000000e+00,4.750000000000001776e+00,1.450000000000000355e+01,-2.200000000000000711e+01,1.675000000000000355e+01,-1.125000000000000355e+01,8.250000000000001776e+00,-1.175000000000000355e+01,2.250000000000000888e+00,1.400000000000000355e+01,-1.900000000000000355e+01,1.375000000000000355e+01,-7.500000000000001776e+00,3.750000000000000888e+00,4.500000000000000888e+00,4.250000000000000888e+00,-1.775000000000000355e+01,3.500000000000000888e+00,1.250000000000000355e+01,-1.000000000000000000e+00,-6.750000000000001776e+00,0.000000000000000000e+00,-5.000000000000000888e+00,-1.250000000000000888e+00,1.825000000000000355e+01,-8.250000000000000000e+00,-1.025000000000000355e+01,1.425000000000000355e+01,-1.275000000000000355e+01,9.000000000000001776e+00,-1.375000000000000355e+01,1.900000000000000355e+01,-1.875000000000000355e+01,9.250000000000001776e+00,5.250000000000000888e+00,-1.050000000000000178e+01,1.400000000000000355e+01,-5.000000000000000000e-01,-1.825000000000000355e+01,1.625000000000000355e+01,1.000000000000000888e+00,-1.800000000000000355e+01,2.325000000000000711e+01,-2.525000000000000711e+01,2.850000000000000711e+01,-2.875000000000000711e+01,2.075000000000000711e+01,-1.275000000000000355e+01,8.250000000000001776e+00,3.250000000000001332e+00,-1.400000000000000355e+01,2.125000000000000711e+01,-1.875000000000000355e+01,1.475000000000000355e+01,-1.650000000000000355e+01,5.000000000000001776e+00,1.275000000000000178e+01,-1.975000000000000355e+01,2.400000000000000711e+01,-2.075000000000000711e+01,-2.000000000000000000e+00,1.250000000000000355e+01,5.000000000000000888e+00,-1.650000000000000355e+01,-5.000000000000000000e-01,1.325000000000000355e+01,3.250000000000000888e+00,-2.275000000000000711e+01,2.975000000000000711e+01,-2.050000000000000355e+01,-4.750000000000000888e+00,1.675000000000000355e+01,-1.625000000000000355e+01,1.900000000000000355e+01,-1.775000000000000355e+01,1.775000000000000355e+01,-6.750000000000000888e+00,-1.625000000000000355e+01,1.550000000000000355e+01,1.000000000000000355e+01,-1.250000000000000355e+01,-1.300000000000000355e+01,1.900000000000000711e+01,4.000000000000000000e+00,-1.075000000000000178e+01,-8.750000000000001776e+00,1.975000000000000355e+01,-1.500000000000000355e+01,9.500000000000001776e+00,-6.500000000000001776e+00,-1.100000000000000355e+01,2.475000000000000711e+01,-1.625000000000000355e+01,1.275000000000000355e+01,-1.750000000000000355e+01,1.775000000000000355e+01,-1.675000000000000355e+01,1.250000000000000355e+01,6.750000000000000888e+00,-1.925000000000000355e+01,2.750000000000000888e+00,1.600000000000000355e+01,-2.250000000000000000e+00,-1.900000000000000355e+01,2.225000000000000711e+01,-1.825000000000000711e+01,-1.750000000000000000e+00,1.725000000000000355e+01,-6.000000000000000888e+00,-1.400000000000000355e+01,1.150000000000000178e+01,2.500000000000000000e-01,1.300000000000000355e+01,-2.875000000000000711e+01,2.375000000000000711e+01,-1.500000000000000000e+00,-1.950000000000000711e+01,9.500000000000003553e+00,1.725000000000000355e+01,-1.550000000000000355e+01,-9.250000000000001776e+00,1.800000000000000355e+01,-3.750000000000000888e+00,-1.875000000000000355e+01,2.450000000000000711e+01,-9.000000000000001776e+00,-1.175000000000000178e+01,7.750000000000000888e+00,-3.250000000000000888e+00,4.250000000000001776e+00,1.275000000000000178e+01,-1.125000000000000178e+01,-1.000000000000000178e+01,1.900000000000000355e+01,-1.900000000000000355e+01,1.350000000000000355e+01,-5.750000000000001776e+00,0.000000000000000000e+00,1.250000000000000000e+00,1.575000000000000355e+01,-2.975000000000000711e+01,3.000000000000000711e+01,-3.250000000000000711e+01,2.100000000000000355e+01,7.500000000000000888e+00,-2.200000000000000355e+01,8.500000000000000000e+00,1.475000000000000355e+01,-2.425000000000000711e+01,1.700000000000000355e+01,4.500000000000000888e+00,-2.050000000000000355e+01,2.200000000000000355e+01,-2.125000000000000355e+01,7.000000000000000888e+00,6.250000000000001776e+00,-3.750000000000000888e+00,1.600000000000000355e+01,-3.100000000000000711e+01,2.950000000000000711e+01,-1.950000000000000711e+01,3.750000000000001332e+00,-1.600000000000000355e+01,2.125000000000000355e+01,-1.750000000000000222e+00,-1.025000000000000178e+01,2.525000000000000711e+01,-2.150000000000000355e+01,-7.750000000000002665e+00,1.775000000000000355e+01,-9.250000000000001776e+00,1.300000000000000355e+01,3.000000000000000000e+00,-2.350000000000000711e+01,2.825000000000000711e+01,-2.500000000000000711e+01,2.375000000000000711e+01,-2.525000000000000711e+01,2.950000000000000711e+01,-2.975000000000000711e+01,1.275000000000000178e+01,5.000000000000001776e+00,-1.475000000000000355e+01,2.950000000000000711e+01,-3.150000000000000711e+01,6.250000000000000888e+00,2.050000000000000355e+01,-2.025000000000000355e+01,-2.750000000000000888e+00,5.250000000000001776e+00,-1.125000000000000355e+01,2.800000000000000711e+01,-3.450000000000000711e+01,1.775000000000000355e+01,1.500000000000000355e+01,-3.300000000000000711e+01,3.225000000000000711e+01,-2.200000000000000711e+01,-4.000000000000001776e+00,2.225000000000000711e+01,-2.550000000000000711e+01,2.125000000000000355e+01,4.750000000000000888e+00,-3.100000000000000711e+01,1.850000000000000355e+01,4.000000000000000888e+00,1.150000000000000355e+01,-2.200000000000000711e+01,1.350000000000000355e+01,-2.150000000000000355e+01,1.625000000000000355e+01,1.175000000000000178e+01,-1.325000000000000178e+01,-2.000000000000000444e+00,-6.000000000000000888e+00,2.075000000000000355e+01,-7.750000000000000888e+00,-1.525000000000000355e+01,1.075000000000000355e+01,1.725000000000000355e+01,-1.975000000000000355e+01,-7.250000000000000888e+00,1.800000000000000355e+01,-1.000000000000000355e+01,1.550000000000000355e+01,-1.200000000000000355e+01,-1.550000000000000355e+01,2.150000000000000711e+01,-8.250000000000001776e+00,3.000000000000000888e+00,1.150000000000000355e+01,-9.000000000000003553e+00,-7.000000000000001776e+00,4.250000000000000888e+00,6.000000000000001776e+00,-1.700000000000000355e+01,1.900000000000000355e+01,-1.375000000000000355e+01,-7.750000000000002665e+00,2.925000000000000711e+01,-3.350000000000000711e+01,3.150000000000000711e+01,-3.500000000000000711e+01,3.200000000000000711e+01,-2.650000000000000711e+01,2.300000000000000711e+01,-1.825000000000000355e+01,1.250000000000000178e+01,9.500000000000001776e+00,-2.025000000000000355e+01,-2.000000000000000000e+00,2.850000000000000711e+01,-2.250000000000000355e+01,-9.000000000000003553e+00,1.950000000000000711e+01,5.000000000000000000e+00,-2.350000000000000711e+01,5.250000000000001776e+00,1.900000000000000355e+01,-2.375000000000000711e+01,1.275000000000000355e+01,1.725000000000000355e+01,-2.800000000000000711e+01,1.650000000000000355e+01,1.500000000000000000e+00,-1.525000000000000355e+01,-3.500000000000000000e+00,1.075000000000000178e+01,7.000000000000001776e+00,5.250000000000001776e+00,-1.350000000000000355e+01,4.500000000000000888e+00,-1.800000000000000355e+01,2.800000000000000711e+01,-2.975000000000000711e+01,3.125000000000000711e+01,-2.825000000000000711e+01,1.250000000000000355e+01,1.850000000000000355e+01,-3.650000000000000711e+01,2.700000000000000711e+01,-2.025000000000000711e+01,2.300000000000000711e+01,-2.500000000000000711e+01,1.975000000000000355e+01,7.250000000000002665e+00,-2.475000000000000711e+01,2.000000000000001776e+00,2.600000000000000711e+01,-3.625000000000000711e+01,3.025000000000000711e+01,-7.500000000000000000e-01,-9.500000000000001776e+00,-6.500000000000001776e+00,-4.500000000000000000e+00,1.475000000000000355e+01,1.425000000000000355e+01,-3.925000000000000711e+01,3.900000000000000711e+01,-3.175000000000000711e+01,9.750000000000003553e+00,2.275000000000000355e+01,-3.200000000000000711e+01,1.900000000000000355e+01,-1.500000000000000000e+00,-1.250000000000000355e+01,-5.000000000000001776e+00,2.225000000000000711e+01,-2.025000000000000355e+01,1.925000000000000355e+01,4.500000000000001776e+00,-2.675000000000000711e+01,2.350000000000000711e+01,-2.450000000000000711e+01,2.850000000000000711e+01,-2.475000000000000711e+01,1.950000000000000711e+01,-1.425000000000000355e+01,2.250000000000000888e+00,-1.200000000000000355e+01,3.650000000000000711e+01,-3.325000000000000711e+01,2.750000000000000711e+01,-1.625000000000000355e+01,-9.250000000000001776e+00,4.750000000000000000e+00,2.225000000000000711e+01,-1.800000000000000355e+01,2.475000000000000355e+01,-2.850000000000000711e+01,1.175000000000000355e+01,-5.000000000000000888e+00,-2.000000000000000355e+01,2.975000000000000711e+01,-3.000000000000000000e+00,-2.250000000000000711e+01,2.175000000000000711e+01,5.750000000000001776e+00,-2.475000000000000711e+01,3.000000000000001776e+00,2.400000000000000711e+01,-2.750000000000000711e+01,6.000000000000001776e+00,1.925000000000000711e+01,-3.000000000000001776e+00,-2.475000000000000711e+01,2.300000000000000711e+01,-6.000000000000001776e+00,9.250000000000001776e+00,8.250000000000001776e+00,-3.575000000000000711e+01,2.925000000000000711e+01,-2.350000000000000711e+01,7.000000000000000888e+00,1.525000000000000355e+01,-3.650000000000000711e+01,3.400000000000000711e+01,1.500000000000000000e+00,-3.350000000000000711e+01,3.425000000000000711e+01,-2.750000000000000000e+00,-2.675000000000000711e+01,2.275000000000000355e+01,2.500000000000000888e+00,-4.000000000000000888e+00,-2.175000000000000355e+01,2.200000000000000355e+01,-2.500000000000000000e-01,1.550000000000000355e+01,-2.825000000000000711e+01,8.250000000000001776e+00,5.500000000000001776e+00,-8.250000000000001776e+00,1.750000000000000444e+00,1.900000000000000355e+01,-2.875000000000000711e+01,3.000000000000001776e+00,1.775000000000000355e+01,1.750000000000000000e+00,-3.000000000000000711e+01,2.225000000000000355e+01,1.025000000000000355e+01,-1.825000000000000355e+01,9.000000000000001776e+00,-1.325000000000000355e+01,2.200000000000000711e+01,-2.325000000000000711e+01,2.225000000000000355e+01,-2.325000000000000711e+01,5.000000000000001776e+00,2.400000000000000711e+01,-1.575000000000000355e+01,-1.825000000000000355e+01,2.850000000000000711e+01,-6.500000000000000888e+00,-1.550000000000000355e+01,2.275000000000000711e+01,-2.675000000000000711e+01,1.675000000000000355e+01,1.500000000000000444e+00,9.500000000000003553e+00,-2.375000000000000711e+01,9.250000000000001776e+00,9.000000000000001776e+00,5.250000000000001776e+00,-1.675000000000000355e+01,1.050000000000000355e+01,-1.325000000000000355e+01,-6.500000000000001776e+00,3.250000000000000711e+01,-2.200000000000000355e+01,-5.000000000000004441e-01,-1.250000000000000355e+01,1.475000000000000355e+01,1.075000000000000178e+01,-2.500000000000000000e-01,-1.650000000000000355e+01,-6.000000000000001776e+00,3.200000000000000711e+01,-3.950000000000000711e+01,2.525000000000000355e+01,6.250000000000000888e+00,-2.175000000000000355e+01,1.750000000000000000e+00,1.700000000000000355e+01,3.000000000000000000e+00,-2.200000000000000355e+01,1.825000000000000355e+01,-2.250000000000000711e+01,3.075000000000000711e+01,-3.150000000000000711e+01,2.300000000000000711e+01,4.750000000000001776e+00,-2.300000000000000711e+01,2.025000000000000355e+01,-2.150000000000000711e+01,7.000000000000002665e+00,1.525000000000000355e+01,-9.250000000000001776e+00,-1.025000000000000178e+01,2.225000000000000711e+01,-2.050000000000000711e+01,2.250000000000000711e+01,-2.925000000000000711e+01,2.700000000000000711e+01,-1.725000000000000355e+01,8.000000000000001776e+00,-1.500000000000000355e+01,1.625000000000000355e+01,-6.250000000000001776e+00,1.650000000000000355e+01,-2.150000000000000711e+01,-6.000000000000001776e+00,2.250000000000000711e+01,-8.000000000000001776e+00,-1.700000000000000355e+01,2.575000000000000711e+01,-1.875000000000000355e+01,2.500000000000000000e-01,1.325000000000000355e+01,-7.000000000000001776e+00,1.475000000000000355e+01,-1.250000000000000355e+01,-1.100000000000000178e+01,2.100000000000000355e+01,-2.350000000000000711e+01,1.725000000000000355e+01,-1.750000000000000444e+00,6.750000000000001776e+00,-1.125000000000000178e+01,-9.250000000000001776e+00,2.300000000000000355e+01,-1.400000000000000178e+01,1.525000000000000355e+01,-1.575000000000000355e+01,-1.275000000000000355e+01,2.000000000000000355e+01,5.750000000000000888e+00,-2.500000000000000000e-01,-2.400000000000000711e+01,1.100000000000000355e+01,2.975000000000000711e+01
