-1.680273750000000916e+02,-1.575430000000000916e+02,-1.499336250000000916e+02,-1.440117500000000916e+02,-1.389023750000000916e+02,-1.351367500000000916e+02,-1.328555000000000916e+02,-1.313086250000000916e+02,-1.328711250000000916e+02,-1.341523750000000916e+02,-1.349648750000000916e+02,-1.352148750000000916e+02,-1.363242500000000916e+02,-1.375898750000000916e+02,-1.385586250000000916e+02,-1.401680000000000916e+02,-1.402617500000000916e+02,-1.390742500000000916e+02,-1.389648750000000916e+02,-1.386367500000000916e+02,-1.387773750000000916e+02,-1.388398750000000916e+02,-1.377148750000000916e+02,-1.365742500000000916e+02,-1.370742500000000916e+02,-1.397773750000000916e+02,-1.412773750000000916e+02,-1.429805000000000916e+02,-1.434180000000000916e+02,-1.444492500000000916e+02,-1.469648750000000916e+02,-1.490898750000000916e+02,-1.496055000000000916e+02,-1.487773750000000916e+02,-1.470586250000000916e+02,-1.463867500000000916e+02,-1.464180000000000916e+02,-1.446836250000000916e+02,-1.428242500000000916e+02,-1.416523750000000916e+02,-1.416055000000000916e+02,-1.407461250000000916e+02,-1.416211250000000916e+02,-1.403555000000000916e+02,-1.393398750000000916e+02,-1.393867500000000916e+02,-1.390430000000000916e+02,-1.378867500000000916e+02,-1.359023750000000916e+02,-1.355117500000000916e+02,-1.344180000000000916e+02,-1.344336250000000916e+02,-1.334648750000000916e+02,-1.336836250000000916e+02,-1.338242500000000916e+02,-1.333867500000000916e+02,-1.339805000000000916e+02,-1.341992500000000916e+02,-1.336992500000000916e+02,-1.342305000000000916e+02,-1.354492500000000916e+02,-1.349180000000000916e+02,-1.341211250000000916e+02,-1.351523750000000916e+02,-1.355117500000000916e+02,-1.349648750000000916e+02,-1.350586250000000916e+02,-1.341836250000000916e+02,-1.327773750000000916e+02,-1.318398750000000916e+02,-1.310117500000000916e+02,-1.291211250000000916e+02,-1.276367500000000916e+02,-1.270430000000000916e+02,-1.269648750000000916e+02,-1.259336250000000916e+02,-1.253398750000000916e+02,-1.254961250000000916e+02,-1.261680000000000916e+02,-1.267305000000000916e+02,-1.263867500000000916e+02,-1.260430000000000916e+02,-1.242930000000000916e+02,-1.237930000000000916e+02,-1.227773750000000916e+02,-1.209180000000000916e+02,-1.188086250000000916e+02,-1.165430000000000916e+02,-1.156992500000000916e+02,-1.141211250000000916e+02,-1.146523750000000916e+02,-1.151055000000000916e+02,-1.161367500000000916e+02,-1.179336250000000916e+02,-1.198711250000000916e+02,-1.227148750000000916e+02,-1.247617500000000916e+02,-1.272930000000000916e+02,-1.286680000000000916e+02,-1.302305000000000916e+02,-1.322930000000000916e+02,-1.331055000000000916e+02,-1.344492500000000916e+02,-1.357617500000000916e+02,-1.372148750000000916e+02,-1.385430000000000916e+02,-1.399492500000000916e+02,-1.411680000000000916e+02,-1.415742500000000916e+02,-1.433398750000000916e+02,-1.441211250000000916e+02,-1.445117500000000916e+02,-1.438555000000000916e+02,-1.437305000000000916e+02,-1.437461250000000916e+02,-1.435430000000000916e+02,-1.446836250000000916e+02,-1.454648750000000916e+02,-1.467773750000000916e+02,-1.479492500000000916e+02,-1.508398750000000916e+02,-1.541523750000000916e+02,-1.564336250000000916e+02,-1.591680000000000916e+02,-1.603086250000000916e+02,-1.608867500000000916e+02,-1.621211250000000916e+02,-1.637305000000000916e+02,-1.642617500000000916e+02,-1.638555000000000916e+02,-1.650898750000000916e+02,-1.654023750000000916e+02,-1.666680000000000916e+02,-1.690586250000000916e+02,-1.709961250000000916e+02,-1.716836250000000916e+02,-1.726367500000000916e+02,-1.740586250000000916e+02,-1.740117500000000916e+02,-1.741367500000000916e+02,-1.731836250000000916e+02,-1.718711250000000916e+02,-1.703555000000000916e+02,-1.710430000000000916e+02,-1.726055000000000916e+02,-1.733711250000000916e+02,-1.761836250000000916e+02,-1.804805000000000916e+02,-1.858555000000001201e+02,-1.916367500000001769e+02,-1.978555000000001769e+02,-2.028867500000001769e+02,-2.079023750000001769e+02,-2.138398750000001769e+02,-2.186211250000001769e+02,-2.223242500000001769e+02,-2.269023750000001769e+02,-2.301680000000001769e+02,-2.326680000000001769e+02,-2.359492500000001769e+02,-2.378867500000001769e+02,-2.396211250000001769e+02,-2.409648750000001769e+02,-2.420742500000001769e+02,-2.415586250000001769e+02,-2.424492500000001769e+02,-2.434492500000001769e+02,-2.425586250000001769e+02,-2.428555000000001769e+02,-2.428242500000001769e+02,-2.426992500000001769e+02,-2.431523750000001769e+02,-2.434336250000001769e+02,-2.424805000000001769e+02,-2.413086250000001769e+02,-2.417930000000001769e+02,-2.415586250000001769e+02,-2.421055000000001769e+02,-2.423086250000001769e+02,-2.415742500000001769e+02,-2.416211250000001769e+02,-2.418398750000001769e+02,-2.421211250000001769e+02,-2.416992500000001769e+02,-2.406211250000001769e+02,-2.378242500000001769e+02,-2.351055000000001769e+02,-2.324023750000001769e+02,-2.279648750000001769e+02,-2.232773750000001769e+02,-2.190586250000001769e+02,-2.132930000000001769e+02,-2.077930000000001769e+02,-2.033555000000001769e+02,-1.989180000000001769e+02,-1.954648750000001769e+02,-1.938242500000001769e+02,-1.912461250000001201e+02,-1.881523750000000916e+02,-1.864336250000000916e+02,-1.840898750000000916e+02,-1.817148750000000916e+02,-1.794805000000000916e+02,-1.762461250000000916e+02,-1.717305000000000916e+02,-1.688555000000000916e+02,-1.658398750000000916e+02,-1.629336250000000916e+02,-1.617305000000000916e+02,-1.598711250000000916e+02,-1.583086250000000916e+02,-1.571367500000000916e+02,-1.577773750000000916e+02,-1.576680000000000916e+02,-1.572148750000000916e+02,-1.579023750000000916e+02,-1.567930000000000916e+02,-1.562617500000000916e+02,-1.555898750000000916e+02,-1.541211250000000916e+02,-1.512305000000000916e+02,-1.497148750000000916e+02,-1.489023750000000916e+02,-1.467305000000000916e+02,-1.453867500000000916e+02,-1.434336250000000916e+02,-1.425898750000000916e+02,-1.425273750000000916e+02,-1.431523750000000916e+02,-1.423711250000000916e+02,-1.423867500000000916e+02,-1.416836250000000916e+02,-1.420742500000000916e+02,-1.437461250000000916e+02,-1.431367500000000916e+02,-1.423711250000000916e+02,-1.408086250000000916e+02,-1.392930000000000916e+02,-1.361680000000000916e+02,-1.346367500000000916e+02,-1.315117500000000916e+02,-1.263242500000000916e+02,-1.219961250000000916e+02,-1.182148750000000916e+02,-1.137773750000000916e+02,-1.095117500000000916e+02,-1.052617500000000916e+02,-9.921487500000009163e+01,-9.296487500000007742e+01,-8.862112500000006321e+01,-8.516800000000004900e+01,-8.033987500000004900e+01,-7.696487500000004900e+01,-7.251175000000004900e+01,-6.841800000000004900e+01,-6.616800000000004900e+01,-6.532425000000004900e+01,-6.285550000000004900e+01,-5.910550000000004900e+01,-5.635550000000004900e+01,-5.260550000000004900e+01,-5.083987500000004900e+01,-4.932425000000004189e+01,-4.562112500000003479e+01,-4.110550000000003479e+01,-3.733987500000002768e+01,-3.391800000000002768e+01,-3.090237500000002768e+01,-2.840237500000002768e+01,-2.451175000000002413e+01,-2.051175000000002058e+01,-1.768362500000001702e+01,-1.468362500000001702e+01,-1.254300000000001702e+01,-1.066800000000001347e+01,-7.636750000000011696e+00,-3.933625000000009919e+00,-9.961250000000072546e-01,1.785124999999994744e+00,3.347624999999995410e+00,4.581999999999996298e+00,6.894499999999998963e+00,9.347625000000000739e+00,1.220700000000000252e+01,1.398825000000000429e+01,1.747262500000000784e+01,2.158200000000000784e+01,2.834762500000001140e+01,3.601950000000001495e+01,4.437887500000002206e+01,5.242575000000003627e+01,5.908200000000003627e+01,6.591012500000003627e+01,7.030075000000003627e+01,7.411325000000003627e+01,7.545700000000003627e+01,7.511325000000003627e+01,7.339450000000003627e+01,7.133200000000003627e+01,6.876950000000003627e+01,6.636325000000003627e+01,6.448825000000003627e+01,6.223825000000003627e+01,6.037887500000003627e+01,5.806637500000003627e+01,5.378512500000003627e+01,4.845700000000002916e+01,4.294137500000002206e+01,3.589450000000001495e+01,2.784762500000001140e+01,1.789450000000000429e+01,5.066374999999998963e+00,-8.464875000000011696e+00,-2.105862500000002058e+01,-3.491800000000002058e+01,-5.087112500000003479e+01,-6.855862500000004900e+01,-8.869925000000006321e+01,-1.107148750000000916e+02,-1.335898750000000916e+02,-1.591367500000001201e+02,-1.888711250000001485e+02,-2.197773750000001769e+02,-2.517148750000001769e+02,-2.840430000000001769e+02,-3.152461250000001769e+02,-3.447773750000002337e+02,-3.712930000000002906e+02,-3.939805000000003474e+02,-4.114648750000003474e+02,-4.252148750000003474e+02,-4.350117500000003474e+02,-4.413398750000003474e+02,-4.451211250000003474e+02,-4.466367500000003474e+02,-4.472148750000003474e+02,-4.472305000000003474e+02,-4.471680000000003474e+02,-4.471055000000003474e+02,-4.470586250000003474e+02,-4.470273750000003474e+02,-4.470117500000003474e+02,-4.470273750000003474e+02,-4.470586250000003474e+02,-4.471211250000003474e+02,-4.471992500000003474e+02,-4.472773750000003474e+02,-4.473555000000003474e+02,-4.474180000000003474e+02,-4.474492500000003474e+02,-4.474648750000003474e+02,-4.474805000000003474e+02,-4.474805000000003474e+02,-4.449961250000003474e+02,-4.400273750000003474e+02,-4.339336250000003474e+02,-4.264023750000003474e+02,-4.163711250000003474e+02,-4.035273750000003474e+02,-3.874180000000003474e+02,-3.694648750000002337e+02,-3.503242500000002337e+02,-3.271211250000001769e+02,-2.956992500000001769e+02,-2.543555000000001769e+02,-2.026680000000001201e+02,-1.410430000000000916e+02,-7.029300000000004900e+01,1.244137499999999719e+01,1.010820000000000505e+02,1.898320000000001073e+02,2.744257500000001642e+02,3.505663750000002210e+02,4.141601250000003347e+02,4.651445000000003347e+02,5.037851250000003347e+02,5.286288750000003347e+02,5.439413750000003347e+02,5.526132500000003347e+02,5.561601250000003347e+02,5.568007500000003347e+02,5.571445000000003347e+02,5.573320000000003347e+02,5.574570000000003347e+02,5.575507500000003347e+02,5.576132500000003347e+02,5.576601250000003347e+02,5.575976250000003347e+02,5.575507500000003347e+02,5.574882500000003347e+02,5.574413750000003347e+02,5.574101250000003347e+02,5.573788750000003347e+02,5.573476250000003347e+02,5.573007500000003347e+02,5.573476250000003347e+02,5.573788750000003347e+02,5.573945000000003347e+02,5.574101250000003347e+02,5.574101250000003347e+02,5.574257500000003347e+02,5.574413750000003347e+02,5.574882500000003347e+02,5.574726250000003347e+02,5.574413750000003347e+02,5.574257500000003347e+02,5.574101250000003347e+02,5.574257500000003347e+02,5.574101250000003347e+02,5.573788750000003347e+02,5.573163750000003347e+02,5.572538750000003347e+02,5.572070000000003347e+02,5.571601250000003347e+02,5.571132500000003347e+02,5.570663750000003347e+02,5.570351250000003347e+02,5.570195000000003347e+02,5.570195000000003347e+02,5.570351250000003347e+02,5.570507500000003347e+02,5.570507500000003347e+02,5.570351250000003347e+02,5.569726250000003347e+02,5.568945000000003347e+02,5.568007500000003347e+02,5.566913750000003347e+02,5.565663750000003347e+02,5.563476250000003347e+02,5.548320000000003347e+02,5.519570000000003347e+02,5.478007500000003347e+02,5.416913750000003347e+02,5.329726250000003347e+02,5.205820000000003347e+02,5.049882500000003347e+02,4.853945000000003347e+02,4.640820000000003347e+02,4.403632500000003347e+02,4.140038750000003347e+02,3.851757500000003347e+02,3.555351250000002210e+02,3.265195000000001642e+02,2.964101250000001642e+02,2.662851250000001642e+02,2.353476250000001642e+02,2.048945000000001642e+02,1.738945000000001073e+02,1.439882500000000789e+02,1.128632500000000647e+02,8.078512500000005048e+01,4.964450000000002206e+01,1.922262500000000784e+01,-1.113675000000001347e+01,-4.205862500000003479e+01,-7.182425000000004900e+01,-1.015586250000000632e+02,-1.287461250000000916e+02,-1.551836250000001201e+02,-1.813711250000001485e+02,-2.060117500000001769e+02,-2.289023750000001769e+02,-2.500430000000001769e+02,-2.700742500000001769e+02,-2.889023750000001769e+02,-3.075430000000001769e+02,-3.243711250000001769e+02,-3.396992500000001769e+02,-3.553555000000001769e+02,-3.703711250000002337e+02,-3.845273750000003474e+02,-3.967773750000003474e+02,-4.074492500000003474e+02,-4.171211250000003474e+02,-4.255117500000003474e+02,-4.322930000000003474e+02,-4.369023750000003474e+02,-4.404023750000003474e+02,-4.426523750000003474e+02,-4.445742500000003474e+02,-4.459492500000003474e+02,-4.464023750000003474e+02,-4.466992500000003474e+02,-4.469961250000003474e+02,-4.472773750000003474e+02,-4.472773750000003474e+02,-4.472617500000003474e+02,-4.472617500000003474e+02,-4.467305000000003474e+02,-4.457930000000003474e+02,-4.440742500000003474e+02,-4.423242500000003474e+02,-4.403398750000003474e+02,-4.374805000000003474e+02,-4.340430000000003474e+02,-4.289492500000003474e+02,-4.229961250000003474e+02,-4.168867500000003474e+02,-4.104023750000003474e+02,-4.013711250000003474e+02,-3.908555000000003474e+02,-3.805586250000002906e+02,-3.699805000000002337e+02,-3.606055000000001769e+02,-3.521523750000001769e+02,-3.435273750000001769e+02,-3.364023750000001769e+02,-3.319805000000001769e+02,-3.290898750000001769e+02,-3.268086250000001769e+02,-3.242461250000001769e+02,-3.217461250000001769e+02,-3.191367500000001769e+02,-3.163086250000001769e+02,-3.126836250000001769e+02,-3.087305000000001769e+02,-3.034023750000001769e+02,-2.958242500000001769e+02,-2.875273750000001769e+02,-2.775586250000001769e+02,-2.666680000000001769e+02,-2.545273750000001769e+02,-2.408555000000001769e+02,-2.248867500000001769e+02,-2.083086250000001769e+02,-1.914961250000001769e+02,-1.739180000000001201e+02,-1.549648750000000916e+02,-1.332617500000000916e+02,-1.090742500000000774e+02,-8.090237500000006321e+01,-4.957425000000003479e+01,-1.448050000000001702e+01,2.378512500000000429e+01,6.376950000000003627e+01,1.043163750000000505e+02,1.452538750000000789e+02,1.853163750000001073e+02,2.229570000000001642e+02,2.588007500000001642e+02,2.923320000000001642e+02,3.234882500000001642e+02,3.543476250000002210e+02,3.849257500000003347e+02,4.130038750000003347e+02,4.395351250000003347e+02,4.647382500000003347e+02,4.871757500000003347e+02,5.060663750000003347e+02,5.218476250000003347e+02,5.336132500000003347e+02,5.416913750000003347e+02,5.475663750000003347e+02,5.510663750000003347e+02,5.522695000000003347e+02,5.519570000000003347e+02,5.508945000000003347e+02,5.490976250000003347e+02,5.459257500000003347e+02,5.419257500000003347e+02,5.353476250000003347e+02,5.268632500000003347e+02,5.164413750000003347e+02,5.034726250000003347e+02,4.877382500000003347e+02,4.693320000000003347e+02,4.496445000000003347e+02,4.270351250000003347e+02,4.051445000000003347e+02,3.830663750000003347e+02,3.608163750000002210e+02,3.406601250000001642e+02,3.226132500000001642e+02,3.065038750000001642e+02,2.917695000000001642e+02,2.798007500000001642e+02,2.695820000000001642e+02,2.612538750000001642e+02,2.545663750000001642e+02,2.487851250000001642e+02,2.448476250000001642e+02,2.422695000000001642e+02,2.418320000000001642e+02,2.434101250000001642e+02,2.455820000000001642e+02,2.480976250000001642e+02,2.516601250000001642e+02,2.536757500000001642e+02,2.552538750000001642e+02,2.576132500000001642e+02,2.577070000000001642e+02,2.567226250000001642e+02,2.549726250000001642e+02,2.521913750000001642e+02,2.495820000000001642e+02,2.496445000000001642e+02,2.496445000000001642e+02,2.479882500000001642e+02,2.485507500000001642e+02,2.489413750000001642e+02,2.494882500000001642e+02,2.524101250000001642e+02,2.541288750000001642e+02,2.545820000000001642e+02,2.559570000000001642e+02,2.581757500000001642e+02,2.600663750000001642e+02,2.627382500000001642e+02,2.671601250000001642e+02,2.705351250000001642e+02,2.733788750000001642e+02,2.775820000000001642e+02,2.805663750000001642e+02,2.830351250000001642e+02,2.850976250000001642e+02,2.860351250000001642e+02,2.852382500000001642e+02,2.853632500000001642e+02,2.863007500000001642e+02,2.853320000000001642e+02,2.840507500000001642e+02,2.841757500000001642e+02,2.834726250000001642e+02,2.827538750000001642e+02,2.800195000000001642e+02,2.733007500000001642e+02,2.676757500000001642e+02,2.618007500000001642e+02,2.557851250000001642e+02,2.464726250000001642e+02,2.366288750000001642e+02,2.269257500000001642e+02,2.187538750000001642e+02,2.124570000000001642e+02,2.042538750000001642e+02,1.956601250000001642e+02,1.865663750000001073e+02,1.801913750000001073e+02,1.740195000000000789e+02,1.668945000000000789e+02,1.599101250000000789e+02,1.533320000000000789e+02,1.462226250000000789e+02,1.395820000000000789e+02,1.331601250000000789e+02,1.253476250000000789e+02,1.179101250000000789e+02,1.104570000000000789e+02,1.021757500000000789e+02,9.342575000000007890e+01,8.559762500000005048e+01,7.703512500000003627e+01,6.878512500000003627e+01,5.906637500000003627e+01,4.886325000000002206e+01,3.864450000000002206e+01,2.750387500000000784e+01,1.516012500000000074e+01,1.738249999999993189e+00,-1.191800000000001347e+01,-2.819925000000002058e+01,-4.469925000000003479e+01,-6.273050000000004900e+01,-8.133987500000006321e+01,-9.996487500000007742e+01,-1.188086250000000916e+02,-1.385742500000000916e+02,-1.591367500000000916e+02,-1.774492500000001201e+02,-1.937461250000001769e+02,-2.095273750000001769e+02,-2.252617500000001769e+02,-2.399023750000001769e+02,-2.548242500000001769e+02,-2.685430000000001769e+02,-2.812461250000001769e+02,-2.947773750000001769e+02,-3.091367500000001769e+02,-3.228711250000001769e+02,-3.359805000000001769e+02,-3.485898750000001769e+02,-3.591367500000001769e+02,-3.691523750000002337e+02,-3.771680000000002337e+02,-3.841211250000003474e+02,-3.899805000000003474e+02,-3.945586250000003474e+02,-3.977305000000003474e+02,-4.005586250000003474e+02,-4.028555000000003474e+02,-4.046680000000003474e+02,-4.077305000000003474e+02,-4.094805000000003474e+02,-4.114492500000003474e+02,-4.133086250000003474e+02,-4.153711250000003474e+02,-4.179648750000003474e+02,-4.205430000000003474e+02,-4.218555000000003474e+02,-4.225273750000003474e+02,-4.242148750000003474e+02,-4.251680000000003474e+02,-4.259492500000003474e+02,-4.269336250000003474e+02,-4.264336250000003474e+02,-4.260898750000003474e+02,-4.274180000000003474e+02,-4.286367500000003474e+02,-4.294180000000003474e+02,-4.306055000000003474e+02,-4.318555000000003474e+02,-4.330117500000003474e+02,-4.354805000000003474e+02,-4.378867500000003474e+02,-4.390430000000003474e+02,-4.400742500000003474e+02,-4.411523750000003474e+02,-4.418242500000003474e+02,-4.416055000000003474e+02,-4.409961250000003474e+02,-4.386055000000003474e+02,-4.356211250000003474e+02,-4.323555000000003474e+02,-4.278242500000003474e+02,-4.223867500000003474e+02,-4.165117500000003474e+02,-4.112930000000003474e+02,-4.056055000000003474e+02,-4.019336250000003474e+02,-3.983086250000003474e+02,-3.961523750000003474e+02,-3.966367500000003474e+02,-3.980586250000003474e+02,-4.004336250000003474e+02,-4.040898750000003474e+02,-4.088711250000003474e+02,-4.123711250000003474e+02,-4.172461250000003474e+02,-4.215586250000003474e+02,-4.245117500000003474e+02,-4.279180000000003474e+02,-4.311836250000003474e+02,-4.333555000000003474e+02,-4.353711250000003474e+02,-4.382773750000003474e+02,-4.402617500000003474e+02,-4.419961250000003474e+02,-4.437461250000003474e+02,-4.448555000000003474e+02,-4.457305000000003474e+02,-4.466211250000003474e+02,-4.471680000000003474e+02,-4.471836250000003474e+02,-4.471680000000003474e+02,-4.465742500000003474e+02,-4.450742500000003474e+02,-4.432617500000003474e+02,-4.397930000000003474e+02,-4.347148750000003474e+02,-4.283086250000003474e+02,-4.202617500000003474e+02,-4.104492500000003474e+02,-3.993398750000003474e+02,-3.880273750000003474e+02,-3.751211250000002337e+02,-3.621992500000001769e+02,-3.489961250000001769e+02,-3.357305000000001769e+02,-3.224961250000001769e+02,-3.091055000000001769e+02,-2.962617500000001769e+02,-2.823555000000001769e+02,-2.686523750000001769e+02,-2.559961250000001769e+02,-2.436836250000001769e+02,-2.302148750000001769e+02,-2.159492500000001769e+02,-2.013398750000001769e+02,-1.861523750000001485e+02,-1.721523750000001201e+02,-1.577461250000000916e+02,-1.412148750000000916e+02,-1.254961250000000916e+02,-1.110586250000000916e+02,-9.801175000000009163e+01,-8.637112500000006321e+01,-7.499612500000004900e+01,-6.298050000000004900e+01,-5.165237500000004189e+01,-4.185550000000003479e+01,-3.069925000000002768e+01,-1.857425000000002058e+01,-5.293000000000011696e+00,8.628874999999998963e+00,2.319137500000000784e+01,3.873825000000001495e+01,5.420700000000002206e+01,7.022262500000003627e+01,8.595700000000005048e+01,1.009257500000000647e+02,1.156132500000000789e+02,1.305820000000000789e+02,1.450507500000000789e+02,1.587382500000000789e+02,1.735507500000001073e+02,1.889101250000001642e+02,2.042226250000001642e+02,2.189570000000001642e+02,2.329882500000001642e+02,2.473632500000001642e+02,2.607070000000001642e+02,2.736757500000001642e+02,2.850820000000001642e+02,2.954570000000001642e+02,3.058163750000001642e+02,3.170820000000001642e+02,3.294413750000001642e+02,3.415663750000001642e+02,3.552070000000001642e+02,3.696132500000002210e+02,3.854413750000003347e+02,4.011288750000003347e+02,4.165663750000003347e+02,4.317538750000003347e+02,4.450820000000003347e+02,4.577695000000003347e+02,4.691132500000003347e+02,4.786913750000003347e+02,4.868945000000003347e+02,4.954726250000003347e+02,5.034882500000003347e+02,5.109726250000003347e+02,5.190663750000003347e+02,5.260663750000003347e+02,5.324882500000003347e+02,5.387695000000003347e+02,5.441288750000003347e+02,5.480195000000003347e+02,5.509882500000003347e+02,5.529257500000003347e+02,5.538476250000003347e+02,5.545976250000003347e+02,5.550195000000003347e+02,5.551132500000003347e+02,5.551757500000003347e+02,5.552382500000003347e+02,5.553007500000003347e+02,5.553945000000003347e+02,5.554726250000003347e+02,5.555507500000003347e+02,5.556288750000003347e+02,5.557538750000003347e+02,5.558788750000003347e+02,5.560038750000003347e+02,5.561132500000003347e+02,5.561913750000003347e+02,5.562851250000003347e+02,5.563945000000003347e+02,5.564882500000003347e+02,5.565507500000003347e+02,5.565976250000003347e+02,5.566288750000003347e+02,5.566757500000003347e+02,5.567382500000003347e+02,5.567851250000003347e+02,5.568163750000003347e+02,5.568476250000003347e+02,5.568788750000003347e+02,5.569101250000003347e+02,5.569413750000003347e+02,5.569570000000003347e+02,5.569413750000003347e+02,5.568945000000003347e+02,5.568632500000003347e+02,5.568163750000003347e+02,5.567851250000003347e+02,5.567538750000003347e+02,5.567382500000003347e+02,5.567226250000003347e+02,5.567226250000003347e+02,5.567851250000003347e+02,5.568163750000003347e+02,5.568788750000003347e+02,5.569257500000003347e+02,5.569726250000003347e+02,5.569882500000003347e+02,5.569882500000003347e+02,5.570038750000003347e+02,5.569882500000003347e+02,5.569882500000003347e+02,5.569570000000003347e+02,5.569101250000003347e+02,5.568476250000003347e+02,5.567695000000003347e+02,5.567070000000003347e+02,5.566132500000003347e+02,5.564882500000003347e+02,5.563476250000003347e+02,5.562070000000003347e+02,5.560351250000003347e+02,5.558476250000003347e+02,5.556757500000003347e+02,5.554101250000003347e+02,5.550507500000003347e+02,5.546132500000003347e+02,5.535351250000003347e+02,5.514257500000003347e+02,5.477695000000003347e+02,5.422070000000003347e+02,5.349257500000003347e+02,5.250351250000003347e+02,5.128788750000003347e+02,4.980351250000003347e+02,4.806132500000003347e+02,4.614726250000003347e+02,4.409882500000003347e+02,4.198163750000003347e+02,3.983163750000003347e+02,3.800038750000003347e+02,3.644413750000002210e+02,3.471288750000001642e+02,3.283632500000001642e+02,3.068632500000001642e+02,2.845195000000001642e+02,2.607070000000001642e+02,2.336601250000001642e+02,1.998320000000001357e+02,1.585976250000001073e+02,1.208476250000000789e+02,8.798825000000005048e+01,6.061325000000003627e+01,3.639450000000002206e+01,1.600387500000000429e+01,2.069999999999940776e-01,-9.668000000000011696e+00,-1.324612500000001347e+01,-1.632425000000001702e+01,-2.098050000000002058e+01,-2.544925000000002768e+01,-2.973050000000002768e+01,-3.483987500000002768e+01,-3.894925000000002768e+01,-4.305862500000003479e+01,-4.663675000000004189e+01,-5.016800000000004900e+01,-5.140237500000004900e+01,-5.321487500000004900e+01,-5.391800000000004900e+01,-5.269925000000004900e+01,-5.144925000000004900e+01,-4.923050000000004900e+01,-4.613675000000004189e+01,-4.201175000000003479e+01,-4.010550000000002768e+01,-3.790237500000002768e+01,-3.824612500000002768e+01,-4.024612500000002768e+01,-4.327737500000003479e+01,-4.818362500000004900e+01,-5.491800000000004900e+01,-6.426175000000004900e+01,-7.313675000000004900e+01,-8.360550000000006321e+01,-9.229300000000007742e+01,-1.006836250000000916e+02,-1.094180000000000916e+02,-1.174336250000000916e+02,-1.251367500000000916e+02,-1.304336250000000916e+02,-1.346680000000000916e+02,-1.373711250000000916e+02,-1.406211250000000916e+02,-1.439492500000000916e+02,-1.470898750000000916e+02,-1.508086250000000916e+02,-1.539961250000000916e+02,-1.581836250000000916e+02,-1.643242500000000916e+02,-1.710742500000000916e+02,-1.774492500000000916e+02,-1.840430000000001201e+02,-1.905586250000001485e+02,-1.959492500000001769e+02,-2.018867500000001769e+02,-2.078398750000001769e+02,-2.122773750000001769e+02,-2.157930000000001769e+02,-2.191680000000001769e+02,-2.219961250000001769e+02,-2.238867500000001769e+02,-2.258867500000001769e+02,-2.266680000000001769e+02,-2.272617500000001769e+02,-2.255117500000001769e+02,-2.215273750000001769e+02,-2.162148750000001769e+02,-2.092148750000001769e+02,-2.009336250000001769e+02,-1.914648750000001769e+02,-1.811992500000001201e+02
1.154687500000000533e+01,2.156250000000001066e+01,2.220312500000001066e+01,1.578125000000000711e+01,4.609375000000002665e+00,-3.406250000000001776e+00,-3.937500000000002665e+00,-1.546875000000001332e+00,2.328125000000001332e+00,6.671875000000004441e+00,4.859375000000003553e+00,3.921875000000002665e+00,2.187500000000004441e-01,-5.515625000000003553e+00,-4.296875000000003553e+00,-5.250000000000003553e+00,-2.281250000000001776e+00,2.406250000000001776e+00,5.468750000000002220e-01,9.374999999999983347e-02,-1.078125000000000888e+00,-1.015625000000000444e+00,1.546875000000001332e+00,4.531250000000003553e+00,4.218750000000003553e+00,7.968750000000004441e-01,1.171875000000000888e+00,-6.875000000000004441e-01,6.875000000000004441e-01,3.156250000000002220e+00,-1.765625000000001332e+00,-3.453125000000002665e+00,-5.750000000000003553e+00,-7.453125000000004441e+00,-3.234375000000001776e+00,-1.218750000000000444e+00,1.437500000000000888e+00,3.328125000000002220e+00,3.906250000000002220e+00,3.859375000000001776e+00,1.250000000000000888e+00,9.531250000000007772e-01,-1.546875000000000888e+00,-3.062500000000001776e+00,-1.390625000000000888e+00,-2.656250000000001776e+00,-2.187500000000001776e+00,1.093750000000000444e+00,3.593750000000000000e-01,1.843750000000001110e+00,3.875000000000002665e+00,-1.093750000000000000e-01,1.671875000000000666e+00,1.015625000000000000e+00,-1.531250000000001332e+00,1.531250000000000666e+00,-7.500000000000006661e-01,-1.531250000000001332e+00,-3.437500000000003331e-01,-1.062500000000000666e+00,7.812500000000004441e-01,2.250000000000001776e+00,2.765625000000001776e+00,6.718750000000003331e-01,-2.218750000000001776e+00,-3.640625000000002665e+00,-4.671875000000003553e+00,-2.171875000000001332e+00,8.593750000000004441e-01,1.859375000000000888e+00,1.593750000000000888e+00,-4.218750000000003331e-01,-1.906250000000001332e+00,-1.750000000000000888e+00,1.484375000000000888e+00,4.890625000000002665e+00,5.796875000000003553e+00,4.890625000000003553e+00,-1.312500000000001554e+00,-5.375000000000003553e+00,-6.343750000000003553e+00,-5.937500000000003553e+00,6.249999999999977796e-02,2.125000000000001332e+00,2.234375000000001332e+00,1.312500000000000888e+00,-2.421875000000001776e+00,-3.187500000000002220e+00,-1.593750000000001110e+00,1.640625000000000888e+00,6.109375000000003553e+00,1.006250000000000711e+01,8.468750000000005329e+00,6.015625000000005329e+00,-4.218750000000000000e-01,-7.890625000000005329e+00,-7.156250000000005329e+00,-8.125000000000005329e+00,-1.687500000000000000e+00,5.625000000000004441e+00,4.750000000000003553e+00,6.687500000000005329e+00,7.812500000000004441e-01,-5.343750000000003553e+00,-4.953125000000003553e+00,-5.625000000000003553e+00,-1.562500000000000000e-01,4.937500000000003553e+00,4.593750000000002665e+00,3.921875000000002665e+00,-1.796875000000001554e+00,-6.593750000000004441e+00,-6.312500000000004441e+00,-6.625000000000005329e+00,-7.968750000000008882e-01,3.937500000000001776e+00,6.578125000000003553e+00,1.067187500000000711e+01,6.796875000000004441e+00,4.093750000000002665e+00,-1.515625000000000444e+00,-7.765625000000005329e+00,-6.171875000000005329e+00,-5.312500000000003553e+00,-2.343750000000004441e-01,2.906250000000001776e+00,1.578125000000000888e+00,-1.250000000000002220e-01,-3.531250000000002220e+00,-1.812500000000000888e+00,2.968750000000000555e-01,2.671875000000001332e+00,5.750000000000003553e+00,2.953125000000001776e+00,7.656250000000005551e-01,-6.093750000000003331e-01,-4.406250000000003553e+00,-4.296875000000003553e+00,-4.718750000000003553e+00,-5.281250000000003553e+00,-2.359375000000001332e+00,-1.546875000000000666e+00,2.000000000000001332e+00,5.625000000000003553e+00,8.000000000000003553e+00,1.107812500000000533e+01,1.020312500000000533e+01,6.562500000000003553e+00,1.875000000000000000e-01,-3.843750000000002665e+00,-6.562500000000003553e+00,-5.781250000000003553e+00,4.218750000000002220e-01,5.468750000000002220e-01,2.015625000000000888e+00,2.031250000000000888e+00,-4.078125000000002665e+00,-3.125000000000002220e+00,-4.187500000000002665e+00,-4.093750000000002665e+00,-2.812500000000001665e-01,-1.171875000000000666e+00,6.093750000000003331e-01,-1.343750000000000888e+00,-2.671875000000001776e+00,-1.156250000000000888e+00,-2.843750000000002220e+00,1.140625000000000000e+00,3.250000000000001776e+00,1.031250000000000444e+00,1.843750000000000888e+00,-8.281250000000008882e-01,-4.546875000000003553e+00,-1.625000000000000888e+00,-1.484375000000000888e+00,-1.437500000000000666e+00,3.390625000000001776e+00,2.187500000000000888e+00,3.515625000000001776e+00,4.843750000000002665e+00,-2.968750000000000000e-01,-2.640625000000001332e+00,-6.734375000000003553e+00,-7.906250000000003553e+00,-3.859375000000002665e+00,-6.562500000000005551e-01,3.125000000000001776e+00,1.546875000000000888e+00,-3.640625000000001776e+00,-6.578125000000003553e+00,-8.546875000000005329e+00,-5.000000000000002665e+00,3.625000000000002220e+00,8.437500000000005329e+00,9.875000000000005329e+00,9.734375000000005329e+00,2.593750000000001332e+00,-2.484375000000001776e+00,-1.828125000000001110e+00,-5.671875000000003553e+00,-4.578125000000002665e+00,-8.906250000000002220e-01,-4.125000000000002665e+00,4.531250000000004441e-01,3.937500000000002665e+00,9.375000000000006661e-01,5.109375000000003553e+00,1.640625000000001332e+00,-9.375000000000000000e-01,2.890625000000001776e+00,1.562499999999988898e-02,3.781250000000001776e+00,3.984375000000001776e+00,6.249999999999955591e-02,1.296875000000000444e+00,-2.640625000000002220e+00,-4.062500000000003553e+00,-2.218750000000001776e+00,-3.140625000000002220e+00,-3.046875000000001776e+00,-4.375000000000003331e-01,-7.656250000000005551e-01,-7.812500000000000000e-02,5.125000000000003553e+00,4.656250000000003553e+00,4.015625000000002665e+00,3.671875000000002665e+00,-4.015625000000002665e+00,-5.265625000000002665e+00,-2.046875000000000888e+00,-1.156250000000000444e+00,6.265625000000005329e+00,7.031250000000006217e+00,2.515625000000001776e+00,-4.062500000000000000e-01,-6.984375000000005329e+00,-8.984375000000007105e+00,-8.812500000000007105e+00,-5.750000000000004441e+00,-7.187500000000005551e-01,2.906250000000001776e+00,6.593750000000004441e+00,4.703125000000003553e+00,-2.656250000000001110e-01,-5.265625000000004441e+00,-8.218750000000007105e+00,-6.218750000000003553e+00,-1.328125000000000888e+00,4.546875000000003553e+00,5.765625000000003553e+00,4.375000000000003553e+00,3.046875000000002220e+00,9.843750000000005551e-01,1.468750000000000888e+00,8.125000000000004441e-01,-6.250000000000011102e-02,-2.156250000000001332e+00,-2.250000000000001332e+00,1.437500000000001332e+00,1.437500000000001332e+00,2.250000000000001332e+00,6.718750000000004441e-01,-4.156250000000002665e+00,-3.734375000000002665e+00,-1.125000000000000666e+00,-5.781250000000004441e-01,1.250000000000000666e+00,2.046875000000001332e+00,-1.203125000000000888e+00,1.156250000000000666e+00,3.656250000000002665e+00,1.140625000000000666e+00,2.515625000000001332e+00,-8.750000000000013323e-01,-5.000000000000003553e+00,-1.156250000000000888e+00,-8.593750000000007772e-01,1.015625000000000222e+00,3.734375000000001776e+00,2.343749999999997780e-01,1.437500000000000888e+00,2.500000000000001776e+00,2.421875000000001332e+00,2.812500000000001776e+00,-2.906250000000002220e+00,-8.703125000000005329e+00,-1.325000000000000711e+01,-1.314062500000000711e+01,-8.250000000000003553e+00,-1.421875000000000222e+00,5.468750000000005329e+00,8.875000000000007105e+00,1.154687500000000711e+01,1.253125000000001066e+01,1.146875000000000711e+01,9.750000000000007105e+00,5.843750000000003553e+00,-8.125000000000006661e-01,-3.937500000000002665e+00,-5.312500000000003553e+00,-5.281250000000003553e+00,1.093750000000001110e+00,2.718750000000002220e+00,2.578125000000002220e+00,4.265625000000003553e+00,4.218750000000004441e-01,3.187500000000001776e+00,9.203125000000005329e+00,1.062500000000000711e+01,1.329687500000000888e+01,7.687500000000005329e+00,-5.468749999999995559e-01,-3.328125000000001332e+00,-4.046875000000002665e+00,3.687500000000002665e+00,9.953125000000007105e+00,1.176562500000000711e+01,1.353125000000001066e+01,7.921875000000006217e+00,7.421875000000005329e+00,1.028125000000000711e+01,9.515625000000005329e+00,1.373437500000000711e+01,1.060937500000000711e+01,2.000000000000000888e+00,-6.359375000000004441e+00,-1.945312500000001066e+01,-2.718750000000001776e+01,-2.925000000000002132e+01,-2.695312500000001776e+01,-1.939062500000001421e+01,-1.209375000000000888e+01,-6.078125000000003553e+00,-2.296875000000001776e+00,-7.812500000000004441e-01,-1.406250000000000833e-01,-6.250000000000004163e-02,-6.250000000000004163e-02,0.000000000000000000e+00,1.562500000000001041e-02,1.093750000000000833e-01,2.187500000000001665e-01,2.343750000000001665e-01,2.656250000000002220e-01,1.406250000000001110e-01,-3.125000000000000694e-02,-1.406250000000000833e-01,-2.500000000000001665e-01,-1.875000000000001110e-01,-9.375000000000006939e-02,-1.562500000000001388e-02,6.250000000000004163e-02,-6.938893903907228378e-18,-2.484375000000001332e+00,-7.453125000000003553e+00,-1.354687500000000711e+01,-2.095312500000001421e+01,-2.110937500000001421e+01,-1.414062500000000888e+01,-5.937500000000003553e+00,6.046875000000005329e+00,7.281250000000005329e+00,-4.171875000000003553e+00,-1.978125000000001421e+01,-4.931250000000004263e+01,-7.506250000000005684e+01,-8.718750000000005684e+01,-8.818750000000005684e+01,-5.910937500000003553e+01,-1.325000000000000711e+01,3.375000000000002842e+01,7.684375000000005684e+01,9.620312500000005684e+01,9.223437500000005684e+01,7.525000000000004263e+01,4.985937500000002842e+01,2.676562500000001421e+01,1.207812500000000711e+01,3.593750000000002665e+00,4.218750000000002776e-01,1.562500000000001110e-01,1.875000000000001665e-01,3.125000000000002220e-01,3.750000000000002776e-01,3.437500000000002220e-01,2.812500000000001665e-01,1.718750000000001110e-01,-1.562500000000000000e-02,-9.375000000000005551e-02,-1.562500000000001110e-01,-1.093750000000000694e-01,-1.562500000000001041e-02,1.562500000000001041e-02,4.687500000000002776e-02,-3.125000000000002776e-02,-7.812500000000005551e-02,-1.093750000000000833e-01,-1.250000000000000833e-01,-7.812500000000005551e-02,4.687500000000004857e-02,1.562500000000001110e-01,2.031250000000001388e-01,2.187500000000001665e-01,-1.562499999999998612e-02,-1.718750000000001110e-01,-2.187500000000001110e-01,-2.031250000000001110e-01,9.375000000000004163e-02,2.343750000000001665e-01,2.656250000000001665e-01,2.031250000000001110e-01,-4.687500000000002082e-02,-1.250000000000000833e-01,-1.406250000000001110e-01,-9.375000000000006939e-02,1.562500000000001041e-02,-1.562500000000001735e-02,-6.250000000000005551e-02,-1.250000000000001110e-01,-1.406250000000001110e-01,-3.125000000000004163e-02,9.375000000000005551e-02,2.343750000000001665e-01,2.968750000000002220e-01,2.500000000000001665e-01,1.562500000000001110e-01,1.562500000000000694e-02,-1.093750000000000833e-01,-7.812500000000005551e-02,1.312500000000000666e+00,4.125000000000001776e+00,8.281250000000003553e+00,1.401562500000000711e+01,1.710937500000001066e+01,1.837500000000001066e+01,1.759375000000001066e+01,1.368750000000001066e+01,1.150000000000000888e+01,7.968750000000006217e+00,4.703125000000003553e+00,2.531250000000001776e+00,-4.531250000000001110e-01,-6.875000000000002220e-01,-3.906250000000001110e-01,-7.812500000000000000e-02,1.046875000000000444e+00,1.187500000000000666e+00,1.000000000000000444e+00,1.031250000000000444e+00,6.562500000000003331e-01,7.968750000000003331e-01,1.250000000000000000e-01,4.843750000000002220e-01,-8.437500000000004441e-01,-4.046875000000002665e+00,-4.031250000000002665e+00,-5.984375000000003553e+00,-5.359375000000003553e+00,-2.421875000000000888e+00,-3.984375000000002665e+00,-4.843750000000003553e+00,-5.890625000000003553e+00,-9.375000000000007105e+00,-8.843750000000007105e+00,-5.890625000000004441e+00,-4.375000000000003553e+00,6.406250000000004441e-01,2.593750000000001332e+00,1.875000000000001110e-01,-1.171875000000001110e+00,-6.078125000000003553e+00,-8.890625000000005329e+00,-8.843750000000005329e+00,-9.359375000000005329e+00,-7.656250000000005329e+00,-6.375000000000004441e+00,-5.140625000000003553e+00,-3.578125000000002665e+00,-2.453125000000001776e+00,-1.593750000000001332e+00,-1.281250000000000888e+00,-7.656250000000004441e-01,-5.312500000000003331e-01,-2.968750000000001665e-01,-1.562500000000001041e-02,-1.562500000000001041e-02,3.125000000000002082e-02,3.125000000000002082e-02,-5.625000000000003331e-01,-1.562500000000000888e+00,-3.281250000000001776e+00,-4.968750000000003553e+00,-4.703125000000003553e+00,-3.687500000000002665e+00,-3.125000000000004441e-01,1.468750000000000888e+00,-9.843750000000006661e-01,-3.343750000000002665e+00,-9.703125000000007105e+00,-1.217187500000000711e+01,-8.125000000000003553e+00,-5.359375000000002665e+00,2.937500000000002665e+00,9.687500000000007105e+00,1.067187500000000711e+01,1.335937500000000888e+01,1.067187500000000711e+01,4.937500000000003553e+00,2.421875000000001776e+00,-1.046875000000000444e+00,-2.859375000000001776e+00,-1.171875000000000666e+00,-2.406250000000001332e+00,-5.046875000000003553e+00,-4.359375000000002665e+00,-5.375000000000003553e+00,-3.390625000000002220e+00,1.156250000000001332e+00,-2.015625000000000888e+00,-6.234375000000004441e+00,-1.181250000000000711e+01,-1.807812500000001421e+01,-1.312500000000001066e+01,-3.656250000000003109e+00,5.390625000000003553e+00,1.326562500000001066e+01,8.000000000000007105e+00,-3.703125000000002220e+00,-1.565625000000001066e+01,-2.784375000000001776e+01,-2.895312500000001776e+01,-2.440625000000001421e+01,-1.781250000000001066e+01,-8.015625000000001776e+00,-1.749999999999998890e+00,4.015625000000003553e+00,1.032812500000000711e+01,1.520312500000000711e+01,1.793750000000001066e+01,1.578125000000000888e+01,9.812500000000007105e+00,9.687500000000004441e-01,-6.328125000000005329e+00,-7.218750000000005329e+00,-3.546875000000003109e+00,4.984375000000001776e+00,1.571875000000001066e+01,2.253125000000001421e+01,2.489062500000001776e+01,2.279687500000001421e+01,1.640625000000001066e+01,9.890625000000007105e+00,5.328125000000003553e+00,2.515625000000001776e+00,1.687500000000001332e+00,1.937500000000001332e+00,2.625000000000001776e+00,3.359375000000002220e+00,5.218750000000003553e+00,6.531250000000004441e+00,8.296875000000005329e+00,1.103125000000000711e+01,1.101562500000000711e+01,1.342187500000000711e+01,1.284375000000000711e+01,9.875000000000007105e+00,1.006250000000000711e+01,4.609375000000003553e+00,1.000000000000000444e+00,-2.046875000000003109e+00,-9.109375000000007105e+00,-1.270312500000001066e+01,-1.490625000000001066e+01,-1.548437500000001066e+01,-1.162500000000000711e+01,-4.718750000000002665e+00,-6.875000000000002220e-01,1.703125000000001554e+00,5.156250000000006661e-01,-7.703125000000005329e+00,-1.201562500000000711e+01,-1.418750000000000888e+01,-1.387500000000000888e+01,-5.515625000000003553e+00,-7.500000000000005551e-01,1.859375000000000888e+00,4.671875000000002665e+00,3.093750000000001776e+00,4.578125000000003553e+00,6.781250000000005329e+00,8.312500000000005329e+00,6.546875000000003553e+00,1.546875000000000222e+00,-4.843750000000007772e-01,-7.125000000000005329e+00,-6.062500000000005329e+00,-2.625000000000001776e+00,-7.031250000000005329e+00,-1.156250000000000888e+00,-7.968750000000008882e-01,-1.468750000000001332e+00,5.921875000000003553e+00,2.828125000000002220e+00,1.312500000000000888e+00,-1.062500000000000888e+00,-6.156250000000003553e+00,-4.859375000000003553e+00,-4.343750000000002665e+00,-1.140625000000000444e+00,-2.031249999999997780e-01,-4.843750000000001110e-01,6.875000000000002220e-01,1.140625000000000666e+00,6.421875000000003553e+00,7.421875000000004441e+00,9.359375000000007105e+00,7.593750000000005329e+00,-2.468750000000002220e+00,-3.843750000000003109e+00,-1.025000000000000533e+01,-1.046875000000000533e+01,2.031250000000001776e+00,4.296875000000003553e+00,1.301562500000000711e+01,1.618750000000001066e+01,8.093750000000003553e+00,8.218750000000003553e+00,2.593750000000001332e+00,-1.703125000000000888e+00,-2.265625000000000888e+00,-5.484375000000003553e+00,-4.281250000000002665e+00,1.562499999999977796e-02,3.625000000000002220e+00,4.078125000000002665e+00,2.359375000000001776e+00,-3.171875000000002220e+00,-6.734375000000005329e+00,-4.812500000000003553e+00,-2.937500000000001776e+00,7.968750000000006661e-01,4.437500000000003553e+00,3.109375000000002220e+00,2.062500000000001332e+00,1.671875000000000888e+00,-1.015625000000000444e+00,-8.906250000000004441e-01,6.250000000000004441e-01,9.375000000000019429e-02,1.531250000000000888e+00,2.671875000000001332e+00,9.843750000000004441e-01,5.468750000000002220e-01,3.906250000000002220e-01,-3.124999999999955591e-02,2.375000000000001776e+00,6.703125000000003553e+00,7.234375000000005329e+00,7.781250000000005329e+00,6.437500000000003553e+00,4.687500000000006661e-01,1.093750000000000444e+00,1.812500000000001776e+00,3.609375000000003553e+00,8.421875000000007105e+00,4.828125000000004441e+00,-3.124999999999955591e-02,-5.281250000000003553e+00,-1.159375000000000711e+01,-9.921875000000007105e+00,-6.640625000000005329e+00,-4.718750000000003553e+00,-2.656250000000000000e-01,1.156250000000000444e+00,1.375000000000000666e+00,4.578125000000002665e+00,4.546875000000002665e+00,8.437500000000005551e-01,-7.968750000000006661e-01,-5.687500000000003553e+00,-9.890625000000007105e+00,-7.156250000000005329e+00,-7.828125000000005329e+00,-6.750000000000005329e+00,-3.046875000000002665e+00,-5.687500000000003553e+00,-4.421875000000002665e+00,-1.437500000000000888e+00,-3.109375000000001776e+00,5.625000000000000000e-01,1.375000000000000666e+00,-9.375000000000006661e-01,1.750000000000000888e+00,2.812500000000000000e-01,2.031249999999997780e-01,9.531250000000003331e-01,-8.281250000000006661e-01,-6.250000000000004441e-01,-1.875000000000001332e+00,-1.453125000000001110e+00,-2.328125000000001332e+00,-3.500000000000001776e+00,-9.062500000000002220e-01,-7.968750000000001110e-01,1.453125000000001332e+00,3.921875000000002665e+00,1.062500000000000888e+00,3.437500000000003331e-01,1.875000000000003331e-01,-7.500000000000002220e-01,1.750000000000001332e+00,2.781250000000001776e+00,1.250000000000000888e+00,3.437500000000000000e-01,-1.812500000000001554e+00,-3.218750000000002665e+00,-3.078125000000002665e+00,-3.281250000000002665e+00,-2.750000000000001776e+00,-2.484375000000001776e+00,-3.312500000000002665e+00,-3.921875000000002665e+00,-4.500000000000003553e+00,-5.906250000000003553e+00,-3.968750000000002665e+00,-1.781250000000000888e+00,-6.249999999999955591e-02,5.250000000000003553e+00,7.015625000000004441e+00,8.390625000000003553e+00,1.054687500000000533e+01,8.656250000000005329e+00,6.515625000000004441e+00,5.328125000000003553e+00,2.046875000000000888e+00,-1.359375000000001110e+00,-1.859375000000001332e+00,-4.359375000000003553e+00,-5.109375000000003553e+00,-2.531250000000001776e+00,-1.562500000000001332e+00,5.156250000000003331e-01,2.500000000000001776e+00,1.640625000000001332e+00,-2.031249999999997780e-01,-1.531250000000000888e+00,-3.046875000000001776e+00,-3.234375000000002220e+00,-1.812500000000001332e+00,-1.062500000000000888e+00,-4.218750000000003331e-01,-1.250000000000001110e-01,-4.218750000000002776e-01,-3.750000000000002220e-01,-7.812500000000004441e-01,-2.031250000000000888e+00,-3.593750000000001776e+00,-7.000000000000003553e+00,-9.828125000000007105e+00,-1.048437500000000711e+01,-1.146875000000000888e+01,-7.593750000000005329e+00,-3.078125000000001776e+00,-5.156249999999993339e-01,4.390625000000003553e+00,3.281250000000002665e+00,1.015625000000000444e+00,-5.000000000000013323e-01,-4.796875000000004441e+00,-3.812500000000003553e+00,-1.343750000000001110e+00,4.375000000000001110e-01,3.984375000000002220e+00,4.328125000000002665e+00,1.828125000000001110e+00,8.593750000000006661e-01,-2.031250000000000888e+00,-6.390625000000005329e+00,-7.265625000000005329e+00,-8.078125000000005329e+00,-5.421875000000003553e+00,2.984375000000003109e+00,9.578125000000007105e+00,1.226562500000000711e+01,1.134375000000000888e+01,5.703125000000004441e+00,-1.734375000000000444e+00,-3.437500000000001776e+00,-3.890625000000002220e+00,-4.062500000000002665e+00,9.375000000000000000e-02,-1.718750000000001332e+00,-3.562500000000002665e+00,-3.546875000000001776e+00,-8.046875000000003553e+00,-6.031250000000003553e+00,-2.125000000000000888e+00,4.687499999999977796e-02,7.125000000000003553e+00,8.906250000000003553e+00,5.906250000000003553e+00,4.687500000000002665e+00,-2.531250000000001332e+00,-7.406250000000004441e+00,-6.218750000000003553e+00,-7.390625000000003553e+00,-2.140625000000000888e+00,3.500000000000001776e+00,5.031250000000003553e+00,9.968750000000007105e+00,9.500000000000007105e+00,5.906250000000003553e+00,3.500000000000001332e+00,-2.187500000000002220e+00,-5.484375000000004441e+00,-4.000000000000003553e+00,-4.296875000000002665e+00,-3.609375000000000888e+00,-2.812500000000000888e+00,-7.031250000000004441e+00,-6.546875000000004441e+00,-4.046875000000003553e+00,-8.593750000000008882e-01,8.453125000000005329e+00,1.375000000000000888e+01,1.462500000000001066e+01,1.334375000000000711e+01,5.328125000000002665e+00,-3.125000000000001776e+00,-6.265625000000004441e+00,-7.656250000000005329e+00,-4.453125000000002665e+00,2.140625000000001332e+00,5.015625000000003553e+00,7.343750000000003553e+00,8.062500000000005329e+00,5.953125000000004441e+00,4.875000000000003553e+00,3.468750000000002220e+00,1.968750000000001332e+00,1.296875000000000888e+00,6.093750000000004441e-01,1.875000000000001110e-01,-3.125000000000002776e-02,-1.562500000000001110e-01,-1.562500000000001110e-01,-9.375000000000006939e-02,-3.469446951953614189e-18,4.687500000000003469e-02,3.125000000000002776e-02,-4.687500000000003469e-02,-4.687500000000004163e-02,-4.687500000000004163e-02,-4.687500000000004857e-02,3.125000000000002082e-02,1.562500000000001388e-02,4.687500000000002776e-02,1.250000000000000833e-01,9.375000000000005551e-02,9.375000000000005551e-02,4.687500000000002776e-02,-4.687500000000002776e-02,-3.125000000000002082e-02,-3.125000000000002082e-02,-1.562500000000001041e-02,1.562500000000001041e-02,-1.562500000000001041e-02,1.562500000000001041e-02,4.687500000000002776e-02,7.812500000000005551e-02,1.250000000000000833e-01,7.812500000000005551e-02,6.250000000000004163e-02,3.125000000000002776e-02,1.562500000000001041e-02,4.687500000000002776e-02,-4.687500000000002776e-02,-9.375000000000006939e-02,-2.031250000000001665e-01,-2.656250000000002220e-01,-1.406250000000001110e-01,-4.687500000000004163e-02,1.406250000000001110e-01,2.187500000000001665e-01,1.718750000000001388e-01,9.375000000000008327e-02,-3.125000000000002082e-02,-4.687500000000002776e-02,-3.125000000000002082e-02,3.125000000000002776e-02,6.250000000000004163e-02,4.687500000000002776e-02,4.687500000000002776e-02,6.250000000000005551e-02,1.250000000000000833e-01,1.562500000000001110e-01,1.562500000000001110e-01,4.687500000000004163e-02,-6.250000000000002776e-02,-7.812500000000005551e-02,-7.812500000000008327e-02,9.375000000000005551e-02,2.968750000000001665e-01,4.062500000000002776e-01,5.937500000000004441e-01,1.234375000000000888e+00,2.656250000000002220e+00,5.562500000000004441e+00,1.006250000000000711e+01,1.390625000000001066e+01,1.679687500000001066e+01,1.607812500000000711e+01,1.104687500000000711e+01,6.656250000000004441e+00,9.218749999999993339e-01,-7.187500000000002220e-01,1.890625000000001776e+00,7.656250000000011102e-01,-7.343749999999988898e-01,-9.984375000000005329e+00,-2.035937500000001066e+01,-2.053125000000001066e+01,-7.781250000000003553e+00,2.406250000000001421e+01,5.256250000000002842e+01,6.504687500000004263e+01,5.018750000000002842e+01,7.859375000000003553e+00,-3.132812500000001776e+01,-5.859375000000003553e+01,-6.040625000000004263e+01,-4.350000000000002842e+01,-2.492187500000001421e+01,-5.750000000000004441e+00,1.687500000000001332e+00,6.578125000000004441e+00,8.656250000000007105e+00,3.500000000000001776e+00,2.531250000000001776e+00,-2.812500000000001332e+00,-6.203125000000003553e+00,-4.468750000000002665e+00,-4.921875000000002665e+00,-5.312500000000000000e-01,5.625000000000006661e-01,-7.812500000000000000e-02,-1.406250000000000000e-01,-5.750000000000003553e+00,-7.718750000000005329e+00,-7.781250000000005329e+00,-8.937500000000005329e+00,-3.031250000000001776e+00,1.656250000000000888e+00,4.250000000000002665e+00,1.067187500000000711e+01,1.170312500000000711e+01,1.332812500000000711e+01,1.379687500000000711e+01,9.203125000000005329e+00,4.187500000000002665e+00,-2.531250000000001332e+00,-5.156250000000003553e+00,-3.937500000000002665e+00,6.250000000000006661e-01,4.140625000000003553e+00,2.937500000000002220e+00,-2.921875000000001332e+00,-9.968750000000005329e+00,-1.242187500000000711e+01,-1.175000000000000711e+01,-4.109375000000001776e+00,1.953125000000001332e+00,4.468750000000003553e+00,7.734375000000005329e+00,4.640625000000003553e+00,3.953125000000002665e+00,4.203125000000002665e+00,1.093750000000000888e+00,1.656250000000000888e+00,2.187500000000000000e-01,-1.250000000000000666e+00,-9.218750000000006661e-01,-3.343750000000001776e+00,-3.406250000000002220e+00,-3.765625000000002665e+00,-3.765625000000002665e+00,-1.110223024625156540e-16,-5.625000000000004441e-01,-8.593750000000005551e-01,-1.656250000000000888e+00,-6.406250000000003553e+00,-5.250000000000003553e+00,-3.406250000000002665e+00,-2.906250000000002220e+00,-1.640625000000001332e+00,-6.890625000000003553e+00,-1.564062500000001066e+01,-1.873437500000001421e+01,-1.601562500000001066e+01,-5.531250000000004441e+00
1.456250000000000533e+01,4.081250000000001421e+01,1.506250000000000711e+01,-8.937500000000003553e+00,-9.375000000000005329e+00,-4.875000000000002665e+00,-3.750000000000002220e-01,2.687500000000001332e+00,1.375000000000000666e+00,-1.875000000000000555e-01,3.437500000000001776e+00,6.875000000000003553e+00,-1.812500000000001332e+00,-5.562500000000002665e+00,9.375000000000005551e-01,-5.250000000000002665e+00,-7.125000000000003553e+00,5.000000000000001776e+00,9.500000000000003553e+00,5.875000000000002665e+00,-6.312500000000002665e+00,-1.731250000000000711e+01,-2.000000000000000000e+00,1.962500000000001066e+01,1.068750000000000711e+01,-7.187500000000003553e+00,-8.812500000000003553e+00,-7.500000000000003553e+00,2.312500000000001776e+00,1.512500000000000711e+01,7.562500000000002665e+00,-9.125000000000003553e+00,-1.681250000000000711e+01,-4.437500000000001776e+00,1.437500000000000711e+01,5.687500000000003553e+00,-1.218750000000000533e+01,-4.562500000000001776e+00,9.250000000000003553e+00,6.125000000000002665e+00,1.187500000000000222e+00,-2.125000000000000888e+00,-1.025000000000000533e+01,-2.500000000000000000e-01,1.406250000000000711e+01,-2.375000000000000000e+00,-1.493750000000000533e+01,1.125000000000000888e+00,9.625000000000003553e+00,2.250000000000000888e+00,-3.625000000000001332e+00,-1.625000000000000222e+00,3.875000000000001776e+00,-1.750000000000000888e+00,-1.812500000000000444e+00,6.187500000000002665e+00,-4.437500000000001776e+00,-5.937500000000002665e+00,1.062500000000000355e+01,1.375000000000000000e+00,-1.550000000000000711e+01,1.000000000000000000e+00,1.643750000000000711e+01,1.062500000000000000e+00,-7.687500000000004441e+00,-8.125000000000006661e-01,-5.437500000000001776e+00,-5.812500000000002665e+00,8.750000000000003553e+00,8.312500000000003553e+00,-6.750000000000003553e+00,-4.875000000000002665e+00,7.375000000000003553e+00,1.125000000000000888e+00,-1.218750000000000533e+01,-4.375000000000001776e+00,1.512500000000000711e+01,1.493750000000000711e+01,-4.187500000000001776e+00,-1.356250000000000711e+01,-9.437500000000005329e+00,5.625000000000000000e-01,9.312500000000003553e+00,2.250000000000000000e+00,-4.375000000000001776e+00,3.187500000000001332e+00,3.812500000000001776e+00,-6.437500000000002665e+00,-7.875000000000003553e+00,2.312500000000000888e+00,7.125000000000002665e+00,1.625000000000000222e+00,1.500000000000000666e+00,8.750000000000003553e+00,3.375000000000001332e+00,-7.312500000000003553e+00,-9.250000000000003553e+00,-8.000000000000003553e+00,1.937500000000001332e+00,7.687500000000003553e+00,4.125000000000001776e+00,5.250000000000001776e+00,-1.250000000000000444e+00,-5.312500000000001776e+00,7.500000000000003331e-01,-6.250000000000003553e+00,-1.081250000000000533e+01,6.812500000000001776e+00,1.981250000000000711e+01,3.750000000000002665e+00,-1.675000000000000711e+01,-5.812500000000003553e+00,9.000000000000003553e+00,-4.562500000000001776e+00,-1.112500000000000355e+01,4.937500000000002665e+00,1.243750000000000533e+01,6.250000000000000000e-01,-5.437500000000001776e+00,7.687500000000003553e+00,8.937500000000003553e+00,-7.000000000000003553e+00,-1.456250000000000711e+01,-9.187500000000003553e+00,7.875000000000002665e+00,1.631250000000000711e+01,8.750000000000017764e-01,-1.106250000000000355e+01,-2.375000000000000888e+00,1.750000000000001554e+00,-6.375000000000002665e+00,2.812500000000000888e+00,1.425000000000000711e+01,-1.062500000000000000e+00,-8.937500000000005329e+00,2.125000000000000888e+00,1.125000000000000888e+00,-3.312500000000001332e+00,1.562500000000000444e+00,-5.000000000000000000e-01,-9.125000000000003553e+00,-2.750000000000000888e+00,1.268750000000000533e+01,4.000000000000001776e+00,-1.281250000000000533e+01,-3.750000000000000000e-01,1.806250000000000711e+01,1.150000000000000533e+01,-5.000000000000002665e+00,-1.268750000000000711e+01,-9.000000000000003553e+00,5.500000000000002665e+00,7.312500000000003553e+00,-6.875000000000003553e+00,4.375000000000000000e-01,1.062500000000000533e+01,-2.937500000000001776e+00,-8.375000000000003553e+00,-3.062500000000001776e+00,-1.250000000000002220e-01,4.500000000000001776e+00,2.625000000000001332e+00,-5.062500000000001776e+00,-3.250000000000001332e+00,7.312500000000003553e+00,1.437500000000001776e+00,-1.137500000000000533e+01,-2.000000000000001776e+00,6.687500000000002665e+00,5.125000000000001776e+00,5.937500000000002665e+00,-6.437500000000001776e+00,-1.268750000000000533e+01,5.687500000000001776e+00,7.125000000000002665e+00,-5.937500000000002665e+00,-1.000000000000000444e+00,3.750000000000001776e+00,1.250000000000001110e-01,-1.437500000000000666e+00,3.250000000000001332e+00,1.006250000000000355e+01,-2.812500000000001776e+00,-2.131250000000001066e+01,-8.937500000000005329e+00,1.631250000000000711e+01,1.256250000000000711e+01,-7.812500000000003553e+00,-4.062500000000001776e+00,5.937500000000002665e+00,-8.062500000000003553e+00,-1.462500000000000533e+01,7.500000000000008882e-01,1.150000000000000533e+01,1.487500000000000711e+01,5.812500000000002665e+00,-1.318750000000000711e+01,-5.937500000000003553e+00,8.062500000000003553e+00,-3.562500000000001776e+00,-3.000000000000001776e+00,5.187500000000002665e+00,-5.812500000000002665e+00,-4.125000000000002665e+00,3.875000000000000888e+00,2.000000000000000888e+00,6.812500000000003553e+00,1.375000000000000888e+00,-8.500000000000003553e+00,-2.437500000000000888e+00,3.875000000000001776e+00,4.187500000000001776e+00,6.250000000000004441e-01,1.937500000000001332e+00,1.500000000000000888e+00,-9.375000000000003553e+00,-8.125000000000000000e-01,1.181250000000000533e+01,-6.937500000000003553e+00,-1.350000000000000533e+01,9.750000000000005329e+00,9.812500000000003553e+00,-8.187500000000003553e+00,-8.312500000000003553e+00,1.062500000000000000e+00,1.350000000000000711e+01,1.250000000000000711e+01,-9.375000000000003553e+00,-1.475000000000000711e+01,-4.000000000000001776e+00,2.625000000000001332e+00,1.050000000000000533e+01,5.875000000000002665e+00,-2.187500000000000888e+00,2.625000000000001332e+00,-3.812500000000002220e+00,-1.337500000000000711e+01,4.375000000000000000e-01,1.000000000000000533e+01,-8.562500000000003553e+00,-1.206250000000000533e+01,1.381250000000000711e+01,1.612500000000000711e+01,-4.687500000000001776e+00,-7.125000000000002665e+00,-3.937500000000002220e+00,-1.118750000000000533e+01,-3.875000000000001776e+00,1.400000000000000533e+01,1.118750000000000355e+01,-1.375000000000000444e+00,-6.375000000000002665e+00,-8.437500000000003553e+00,8.750000000000008882e-01,1.468750000000000711e+01,6.062500000000001776e+00,-1.268750000000000533e+01,-9.312500000000003553e+00,1.000000000000000222e+00,3.500000000000000888e+00,1.318750000000000711e+01,7.750000000000003553e+00,-1.693750000000000711e+01,-1.506250000000000711e+01,6.312500000000003553e+00,1.175000000000000533e+01,6.000000000000002665e+00,-6.062500000000002665e+00,-1.181250000000000533e+01,3.937500000000001776e+00,7.937500000000003553e+00,-3.125000000000000888e+00,4.000000000000002665e+00,6.000000000000003553e+00,-7.750000000000003553e+00,-1.037500000000000533e+01,-2.875000000000001776e+00,1.056250000000000355e+01,1.406250000000000533e+01,-5.500000000000001776e+00,-1.543750000000000711e+01,-1.812500000000000888e+00,1.156250000000000533e+01,9.312500000000003553e+00,-1.250000000000000888e+00,-4.937500000000002665e+00,-7.000000000000002665e+00,-1.212500000000000533e+01,-6.937500000000003553e+00,7.875000000000003553e+00,1.018750000000000355e+01,-8.750000000000008882e-01,-2.875000000000001332e+00,4.000000000000001776e+00,7.000000000000003553e+00,5.375000000000002665e+00,1.625000000000000888e+00,2.500000000000004996e-01,-1.312500000000000444e+00,-9.375000000000003553e+00,-6.250000000000003553e+00,7.250000000000003553e+00,3.625000000000002665e+00,-3.750000000000000000e-01,5.500000000000002665e+00,-3.750000000000000000e-01,-6.562500000000002665e+00,-5.562500000000001776e+00,2.062500000000000444e+00,2.043750000000000711e+01,1.825000000000000711e+01,-9.687500000000005329e+00,-2.212500000000001066e+01,-8.062500000000003553e+00,8.062500000000003553e+00,1.200000000000000711e+01,1.212500000000000533e+01,2.500000000000000000e+00,-1.187500000000000711e+01,-2.500000000000000000e-01,1.168750000000000711e+01,1.875000000000017764e-01,-3.750000000000000000e-01,8.437500000000001776e+00,7.875000000000003553e+00,1.687500000000002442e+00,-9.187500000000005329e+00,-1.543750000000000711e+01,-1.268750000000000533e+01,-7.750000000000002665e+00,-3.062500000000000888e+00,-3.125000000000001665e-01,2.500000000000001110e-01,0.000000000000000000e+00,-2.500000000000001110e-01,-6.250000000000002776e-02,1.250000000000000555e-01,6.250000000000002776e-02,-6.250000000000002776e-02,-1.250000000000000555e-01,0.000000000000000000e+00,1.250000000000000555e-01,1.250000000000000555e-01,1.250000000000000555e-01,6.250000000000002776e-02,6.250000000000002776e-02,0.000000000000000000e+00,-3.125000000000001110e-01,-3.125000000000001110e-01,1.250000000000000833e-01,3.125000000000001665e-01,0.000000000000000000e+00,-1.875000000000000833e-01,6.250000000000002776e-02,6.250000000000002776e-02,-1.875000000000000833e-01,-6.250000000000002776e-02,-9.687500000000003553e+00,-2.950000000000001066e+01,-1.456250000000000533e+01,3.450000000000001421e+01,3.262500000000001421e+01,-1.737500000000000711e+01,-2.793750000000001066e+01,4.750000000000001776e+00,1.306250000000000533e+01,-3.993750000000001421e+01,-7.968750000000002842e+01,-3.100000000000001421e+01,1.925000000000000355e+01,1.325000000000000178e+01,2.406250000000000711e+01,5.156250000000002132e+01,4.093750000000002132e+01,1.318750000000000533e+01,1.937500000000000888e+00,6.875000000000003331e-01,6.250000000000005551e-02,-3.750000000000001665e-01,-2.500000000000001110e-01,1.250000000000000833e-01,2.500000000000001110e-01,1.875000000000000833e-01,0.000000000000000000e+00,-6.250000000000002776e-02,1.875000000000001110e-01,2.500000000000001110e-01,0.000000000000000000e+00,-1.250000000000000555e-01,-2.500000000000001110e-01,-2.500000000000001110e-01,1.875000000000000833e-01,4.375000000000002220e-01,-6.250000000000000000e-02,-4.375000000000002220e-01,6.250000000000000000e-02,3.125000000000001110e-01,-1.875000000000000833e-01,-2.500000000000001110e-01,1.250000000000000555e-01,0.000000000000000000e+00,-6.250000000000002776e-02,3.750000000000002220e-01,3.750000000000002220e-01,-1.875000000000000833e-01,-6.250000000000003331e-01,-3.750000000000002220e-01,3.125000000000001110e-01,4.375000000000001665e-01,1.875000000000000833e-01,6.250000000000002776e-02,-1.250000000000000555e-01,-2.500000000000001110e-01,-1.875000000000000833e-01,6.250000000000002776e-02,2.500000000000001110e-01,6.250000000000002776e-02,-1.250000000000000555e-01,-6.250000000000002776e-02,-6.250000000000002776e-02,-1.875000000000000833e-01,-6.250000000000002776e-02,3.125000000000001110e-01,3.125000000000001110e-01,-6.250000000000002776e-02,-1.250000000000000555e-01,1.250000000000000555e-01,1.250000000000000555e-01,-1.875000000000001110e-01,-3.125000000000001665e-01,0.000000000000000000e+00,2.500000000000001110e-01,3.750000000000001665e-01,5.750000000000001776e+00,1.562500000000000533e+01,9.750000000000003553e+00,-8.500000000000003553e+00,-5.750000000000001776e+00,1.225000000000000711e+01,1.162500000000000533e+01,-6.125000000000003553e+00,-1.075000000000000533e+01,1.250000000000001332e+00,5.312500000000001776e+00,1.375000000000000222e+00,6.875000000000002220e-01,-3.500000000000001776e+00,-4.812500000000001776e+00,6.562500000000004441e+00,8.812500000000005329e+00,-7.250000000000005329e+00,-1.043750000000000533e+01,6.375000000000001776e+00,1.006250000000000178e+01,-1.562500000000000444e+00,-7.562500000000002665e+00,-7.625000000000003553e+00,-5.625000000000000000e-01,5.437500000000003553e+00,1.687500000000001110e+00,-6.250000000000011102e-02,-4.625000000000002665e+00,-1.000000000000000533e+01,2.250000000000000888e+00,6.875000000000003553e+00,-1.100000000000000355e+01,-1.018750000000000355e+01,1.193750000000000355e+01,1.600000000000000711e+01,-3.625000000000001776e+00,-1.781250000000000711e+01,-5.000000000000001776e+00,9.875000000000003553e+00,3.125000000000000000e-01,-1.075000000000000355e+01,-4.250000000000001776e+00,3.625000000000001332e+00,1.312500000000000444e+00,-2.312500000000000888e+00,-1.500000000000000444e+00,6.250000000000000000e-02,5.000000000000002220e-01,6.250000000000000000e-02,-3.750000000000002220e-01,-1.250000000000000833e-01,1.250000000000000555e-01,6.250000000000002776e-02,6.250000000000002776e-02,1.250000000000000555e-01,-6.250000000000002776e-02,-3.125000000000001665e-01,-1.250000000000000833e-01,-1.875000000000000888e+00,-5.750000000000002665e+00,-4.312500000000001776e+00,4.062500000000001776e+00,1.081250000000000533e+01,4.062500000000002665e+00,-1.081250000000000355e+01,-1.162500000000000533e+01,-6.437500000000003553e+00,-1.750000000000000888e+00,1.287500000000000355e+01,7.750000000000001776e+00,-1.293750000000000533e+01,5.000000000000017764e-01,2.281250000000001421e+01,8.875000000000005329e+00,-1.600000000000000711e+01,-1.431250000000000711e+01,8.687500000000003553e+00,1.400000000000000533e+01,-7.375000000000001776e+00,-1.031250000000000355e+01,7.125000000000003553e+00,9.375000000000008882e-01,-1.262500000000000711e+01,-3.750000000000002665e+00,1.112500000000000355e+01,1.512500000000000711e+01,-3.437500000000001776e+00,-2.681250000000001421e+01,-1.768750000000000711e+01,5.625000000000004441e+00,1.225000000000000711e+01,9.312500000000003553e+00,7.250000000000003553e+00,6.500000000000003553e+00,-6.750000000000001776e+00,-2.450000000000001066e+01,-1.581250000000000711e+01,1.312500000000001998e+00,-1.250000000000000000e-01,-4.937500000000004441e+00,-6.875000000000000000e-01,5.750000000000005329e+00,2.250000000000000444e+00,-6.187500000000005329e+00,4.437500000000002665e+00,2.475000000000001421e+01,1.293750000000000533e+01,-1.912500000000000711e+01,-1.493750000000000533e+01,1.012500000000000711e+01,1.375000000000000888e+00,-1.468750000000000711e+01,2.625000000000002665e+00,2.087500000000000711e+01,1.387500000000000533e+01,3.187500000000001776e+00,1.062500000000000666e+00,7.500000000000003331e-01,1.875000000000000555e-01,2.500000000000001665e-01,3.750000000000002220e-01,4.375000000000002220e-01,5.625000000000002220e-01,6.250000000000002220e-01,4.375000000000001110e-01,8.750000000000003331e-01,3.687500000000001776e+00,4.187500000000001776e+00,8.750000000000003331e-01,1.187500000000000888e+00,5.250000000000002665e+00,1.012500000000000355e+01,2.625000000000000444e+00,-1.156250000000000533e+01,2.187500000000001776e+00,1.606250000000000711e+01,-6.125000000000003553e+00,-1.812500000000000711e+01,-3.749999999999991118e-01,4.062500000000001776e+00,-9.562500000000003553e+00,-1.100000000000000533e+01,3.187500000000002220e+00,1.412500000000000711e+01,5.750000000000002665e+00,-7.500000000000003553e+00,-6.250000000000003553e+00,-8.000000000000003553e+00,-1.062500000000000533e+01,6.875000000000000000e-01,5.750000000000002665e+00,4.375000000000002665e+00,4.500000000000002665e+00,-4.187500000000001776e+00,-6.750000000000003553e+00,3.187500000000001332e+00,6.312500000000002665e+00,6.562500000000002665e+00,9.812500000000003553e+00,-5.875000000000002665e+00,-2.137500000000001066e+01,1.750000000000000000e+00,1.431250000000000711e+01,-3.125000000000000888e+00,-3.062500000000000444e+00,-5.312500000000001776e+00,-8.437500000000003553e+00,1.075000000000000533e+01,1.162500000000000533e+01,-3.562500000000001776e+00,-3.812500000000001776e+00,-2.187500000000000888e+00,-6.375000000000002665e+00,-2.312500000000000888e+00,6.062500000000002665e+00,1.250000000000000888e+00,-1.812500000000000444e+00,3.812500000000001332e+00,-4.375000000000001776e+00,-1.212500000000000355e+01,8.562500000000005329e+00,2.568750000000001421e+01,-2.250000000000000000e+00,-2.081250000000001066e+01,6.625000000000003553e+00,1.125000000000000711e+01,-1.250000000000000711e+01,-2.062500000000000711e+01,-4.687500000000001776e+00,3.156250000000001421e+01,2.762500000000001421e+01,-1.856250000000000711e+01,-2.181250000000000711e+01,8.187500000000003553e+00,1.750000000000000711e+01,5.375000000000003553e+00,-1.206250000000000355e+01,-1.756250000000000711e+01,-3.937500000000001776e+00,1.475000000000000711e+01,1.800000000000000711e+01,-4.375000000000000000e-01,-1.756250000000000711e+01,-7.375000000000002665e+00,6.375000000000002665e+00,1.250000000000004441e-01,-8.750000000000000000e-01,3.812500000000001776e+00,-1.750000000000001110e+00,2.187500000000000888e+00,7.500000000000003553e+00,-7.000000000000002665e+00,-9.937500000000003553e+00,7.750000000000003553e+00,9.312500000000003553e+00,-5.625000000000002665e+00,-9.437500000000003553e+00,4.312500000000001776e+00,1.450000000000000711e+01,-1.375000000000000000e+00,-1.800000000000000711e+01,-1.687500000000000000e+00,1.562500000000000711e+01,4.937500000000002665e+00,-3.187500000000000888e+00,1.062500000000000666e+00,3.312500000000001776e+00,3.187500000000001776e+00,-7.500000000000003553e+00,-1.143750000000000355e+01,9.125000000000003553e+00,2.181250000000000711e+01,5.687500000000003553e+00,-1.800000000000000711e+01,-1.712500000000000711e+01,3.000000000000001332e+00,5.250000000000001776e+00,-9.375000000000004441e-01,3.500000000000001776e+00,-3.750000000000001776e+00,-9.250000000000003553e+00,7.750000000000002665e+00,1.106250000000000355e+01,-3.125000000000000888e+00,-2.500000000000001332e+00,2.499999999999995559e-01,-4.687500000000001776e+00,-6.125000000000001776e+00,-4.437500000000001776e+00,5.000000000000001776e+00,5.250000000000001776e+00,-9.750000000000003553e+00,-4.437500000000001776e+00,6.250000000000002665e+00,-3.500000000000001776e+00,-3.125000000000001776e+00,6.375000000000002665e+00,3.250000000000001776e+00,-4.437500000000001776e+00,-7.250000000000003553e+00,3.437500000000001776e+00,1.200000000000000711e+01,-2.125000000000000888e+00,-1.325000000000000711e+01,6.250000000000088818e-02,1.056250000000000533e+01,-1.250000000000000000e-01,-6.000000000000002665e+00,-2.312500000000000888e+00,-4.187500000000001776e+00,2.562500000000001332e+00,9.750000000000003553e+00,4.375000000000000000e-01,-3.625000000000002220e+00,-1.937500000000001110e+00,-5.562500000000002665e+00,1.437500000000000888e+00,1.056250000000000533e+01,2.312500000000000888e+00,-7.125000000000003553e+00,-3.562500000000001776e+00,2.125000000000000888e+00,1.562500000000000888e+00,-1.062500000000000444e+00,-2.812500000000001332e+00,-3.437500000000001776e+00,1.500000000000000888e+00,5.625000000000003553e+00,-2.812500000000000444e+00,-9.687500000000003553e+00,-1.312500000000000000e+00,4.125000000000002665e+00,9.375000000000006661e-01,-1.062500000000000666e+00,-2.000000000000000888e+00,5.500000000000003553e+00,1.018750000000000533e+01,-1.437500000000000888e+00,-3.125000000000001776e+00,6.437500000000003553e+00,6.250000000000008882e-01,-3.437500000000001776e+00,3.562500000000001776e+00,-3.312500000000001776e+00,-7.500000000000003553e+00,4.125000000000001776e+00,1.812500000000000000e+00,-6.750000000000003553e+00,2.437500000000000888e+00,8.812500000000003553e+00,-4.375000000000000000e-01,-5.875000000000002665e+00,-2.625000000000000888e+00,6.250000000000005551e-02,7.500000000000004441e-01,3.750000000000002220e-01,-1.250000000000000555e-01,-1.250000000000000555e-01,-3.125000000000001110e-01,-3.750000000000001665e-01,-6.250000000000002776e-02,1.875000000000000833e-01,1.875000000000000833e-01,1.250000000000000555e-01,-2.125000000000000888e+00,-8.125000000000003553e+00,-6.437500000000001776e+00,3.375000000000001332e+00,-1.500000000000001332e+00,-7.375000000000003553e+00,7.062500000000002665e+00,1.125000000000000355e+01,-3.687500000000000888e+00,-8.187500000000003553e+00,2.375000000000000888e+00,4.500000000000001776e+00,-1.006250000000000355e+01,-8.500000000000003553e+00,1.450000000000000711e+01,1.325000000000000711e+01,-8.812500000000003553e+00,-1.006250000000000355e+01,2.062500000000000888e+00,7.562500000000003553e+00,4.000000000000000888e+00,-1.093750000000000355e+01,-1.575000000000000533e+01,-1.875000000000000000e-01,1.050000000000000355e+01,1.387500000000000711e+01,1.275000000000000533e+01,-6.250000000000003553e+00,-1.668750000000000711e+01,2.500000000000000000e+00,9.375000000000003553e+00,-5.000000000000001776e+00,-5.812500000000001776e+00,2.375000000000000888e+00,5.437500000000002665e+00,5.000000000000008882e-01,-7.312500000000002665e+00,-5.625000000000001776e+00,-3.750000000000001776e+00,8.125000000000000000e-01,1.075000000000000533e+01,2.000000000000000888e+00,-5.187500000000002665e+00,9.312500000000003553e+00,7.062500000000001776e+00,-1.125000000000000533e+01,-1.275000000000000533e+01,-9.375000000000004441e-01,8.500000000000003553e+00,2.375000000000000888e+00,-5.437500000000002665e+00,2.250000000000001776e+00,6.125000000000003553e+00,5.750000000000002665e+00,7.000000000000002665e+00,-5.187500000000002665e+00,-1.350000000000000533e+01,-1.499999999999999556e+00,6.937500000000003553e+00,3.125000000000001332e+00,-2.812500000000000888e+00,-4.500000000000001776e+00,-5.625000000000006661e-01,-4.000000000000001776e+00,-6.375000000000001776e+00,3.875000000000001776e+00,7.000000000000001776e+00,7.187500000000003553e+00,1.187500000000000711e+01,2.312500000000001776e+00,-8.437500000000003553e+00,-5.375000000000002665e+00,-5.750000000000003553e+00,-3.687500000000001776e+00,6.625000000000003553e+00,5.500000000000002665e+00,-7.500000000000002220e-01,1.500000000000000666e+00,3.250000000000001332e+00,1.187500000000000444e+00,1.250000000000000555e-01,1.875000000000000833e-01,1.875000000000000833e-01,1.250000000000000555e-01,1.250000000000000555e-01,0.000000000000000000e+00,-1.875000000000000833e-01,-2.500000000000001110e-01,-1.250000000000000555e-01,1.875000000000001110e-01,3.125000000000001665e-01,0.000000000000000000e+00,-2.500000000000001110e-01,-1.250000000000000555e-01,0.000000000000000000e+00,1.250000000000000555e-01,1.875000000000000833e-01,-1.250000000000000833e-01,-2.500000000000001110e-01,6.250000000000002776e-02,2.500000000000001110e-01,1.875000000000000833e-01,-6.250000000000002776e-02,-2.500000000000001110e-01,-6.250000000000002776e-02,1.250000000000000555e-01,6.250000000000002776e-02,0.000000000000000000e+00,0.000000000000000000e+00,-6.250000000000002776e-02,-1.250000000000000555e-01,6.250000000000002776e-02,2.500000000000001110e-01,6.250000000000002776e-02,-1.250000000000000555e-01,-6.250000000000002776e-02,0.000000000000000000e+00,0.000000000000000000e+00,1.250000000000000555e-01,1.875000000000000833e-01,-1.875000000000000833e-01,-3.750000000000001665e-01,-6.250000000000002776e-02,6.250000000000002776e-02,6.250000000000002776e-02,1.875000000000000833e-01,1.875000000000000833e-01,0.000000000000000000e+00,-1.250000000000000555e-01,-1.250000000000000555e-01,-1.250000000000000555e-01,6.250000000000002776e-02,3.125000000000001665e-01,1.250000000000000833e-01,-3.125000000000001110e-01,-2.500000000000001110e-01,2.500000000000001110e-01,3.125000000000001110e-01,-6.250000000000002776e-02,-6.250000000000002776e-02,1.875000000000000833e-01,-1.250000000000000555e-01,-4.375000000000002220e-01,6.250000000000000000e-02,3.750000000000001665e-01,1.250000000000000555e-01,1.250000000000000833e-01,6.250000000000005551e-02,-1.387778780781445676e-17,5.000000000000002220e-01,5.625000000000003331e-01,2.000000000000000888e+00,7.500000000000003553e+00,1.087500000000000533e+01,6.750000000000003553e+00,-1.937500000000001332e+00,-7.062500000000003553e+00,-1.687500000000000444e+00,1.375000000000001332e+00,-5.000000000000001110e-01,6.062500000000002665e+00,6.125000000000002665e+00,-3.437500000000001776e+00,-9.750000000000005329e+00,-2.400000000000001066e+01,-3.400000000000001421e+01,9.562500000000007105e+00,8.837500000000004263e+01,8.231250000000002842e+01,-2.037500000000000711e+01,-7.693750000000002842e+01,-4.281250000000001421e+01,3.750000000000008882e-01,5.437500000000003553e+00,-4.000000000000001776e+00,-6.125000000000003553e+00,-2.437500000000001776e+00,9.500000000000003553e+00,9.500000000000003553e+00,-3.187500000000000888e+00,-1.000000000000000000e+00,1.125000000000000444e+00,-4.625000000000002665e+00,-3.250000000000001776e+00,-9.375000000000003331e-01,-1.750000000000000666e+00,1.187500000000000444e+00,7.312500000000002665e+00,6.875000000000000000e-01,-9.000000000000003553e+00,7.500000000000008882e-01,2.062500000000000888e+00,-1.150000000000000533e+01,-4.750000000000001776e+00,6.687500000000003553e+00,4.187500000000001776e+00,2.812500000000001332e+00,3.750000000000000000e-01,5.000000000000000000e-01,7.312500000000002665e+00,8.562500000000003553e+00,3.312500000000001332e+00,-1.875000000000000444e+00,-7.625000000000001776e+00,-1.187500000000000533e+01,-2.250000000000001776e+00,1.387500000000000533e+01,1.356250000000000533e+01,-1.062500000000000444e+00,-1.106250000000000711e+01,-1.306250000000000711e+01,-8.750000000000003553e+00,3.312500000000000888e+00,9.500000000000003553e+00,5.812500000000002665e+00,-1.812500000000001110e+00,-6.250000000000002665e+00,4.125000000000002665e+00,7.812500000000003553e+00,-3.937500000000001332e+00,-1.750000000000000000e+00,4.562500000000002665e+00,-3.875000000000000888e+00,-4.937500000000001776e+00,7.625000000000003553e+00,4.875000000000002665e+00,-1.306250000000000711e+01,-7.875000000000004441e+00,1.037500000000000355e+01,3.812500000000001776e+00,-4.812500000000001776e+00,2.375000000000001776e+00,1.625000000000000888e+00,-8.000000000000003553e+00,-9.500000000000005329e+00,3.750000000000001776e+00,1.150000000000000533e+01,-1.312500000000000888e+00,-4.312500000000001776e+00,7.499999999999998890e-01,-2.193750000000000711e+01,-2.968750000000000711e+01
2.575000000000000711e+01,2.200000000000000355e+01,-5.500000000000000888e+00,-4.000000000000000000e+00,-4.500000000000000888e+00,6.250000000000001776e+00,-1.400000000000000355e+01,2.100000000000000355e+01,-2.200000000000000355e+01,2.250000000000000355e+01,-2.250000000000000355e+01,2.125000000000000355e+01,-4.250000000000000888e+00,-1.550000000000000355e+01,1.775000000000000355e+01,-4.500000000000000888e+00,-1.850000000000000355e+01,2.450000000000000711e+01,-1.525000000000000355e+01,1.250000000000000355e+01,0.000000000000000000e+00,-1.500000000000000355e+01,0.000000000000000000e+00,8.250000000000001776e+00,1.900000000000000355e+01,-3.200000000000000711e+01,2.375000000000000711e+01,-1.600000000000000355e+01,-4.750000000000000888e+00,2.200000000000000355e+01,-1.000000000000000178e+01,3.500000000000000444e+00,-7.000000000000001776e+00,-1.150000000000000355e+01,1.675000000000000355e+01,8.750000000000003553e+00,-2.500000000000000711e+01,1.475000000000000355e+01,-9.500000000000001776e+00,2.250000000000000711e+01,-3.000000000000000711e+01,3.275000000000000711e+01,-2.675000000000000711e+01,-5.000000000000000000e-01,2.050000000000000355e+01,-5.750000000000000888e+00,-1.500000000000000355e+01,3.500000000000000000e+00,1.875000000000000711e+01,-2.575000000000000711e+01,3.000000000000000711e+01,-3.500000000000000711e+01,2.975000000000000711e+01,-9.750000000000001776e+00,-1.400000000000000355e+01,2.350000000000000711e+01,-8.000000000000000000e+00,-1.850000000000000355e+01,2.425000000000000711e+01,-1.250000000000000000e+00,-1.600000000000000355e+01,-1.500000000000000000e+00,2.075000000000000355e+01,-4.750000000000000000e+00,-1.775000000000000355e+01,2.225000000000000355e+01,-1.500000000000000355e+01,-1.000000000000000000e+00,1.000000000000000000e+00,1.650000000000000355e+01,-1.800000000000000355e+01,3.250000000000000444e+00,1.000000000000000000e+00,1.250000000000000178e+01,-2.150000000000000355e+01,8.250000000000001776e+00,-3.750000000000001332e+00,2.150000000000000711e+01,-1.450000000000000355e+01,-4.500000000000000888e+00,6.000000000000001776e+00,-1.475000000000000355e+01,1.775000000000000355e+01,2.500000000000000000e-01,-1.725000000000000355e+01,2.025000000000000355e+01,-1.375000000000000355e+01,1.500000000000000355e+01,-2.600000000000000711e+01,2.300000000000000711e+01,-1.375000000000000355e+01,1.525000000000000355e+01,-1.600000000000000355e+01,1.100000000000000355e+01,1.075000000000000355e+01,-2.525000000000000711e+01,2.200000000000000355e+01,-1.975000000000000355e+01,2.500000000000000000e-01,2.275000000000000711e+01,-2.775000000000000711e+01,2.400000000000000711e+01,-4.250000000000000000e+00,-1.775000000000000355e+01,2.325000000000000355e+01,-1.475000000000000355e+01,-2.250000000000000000e+00,-2.750000000000000888e+00,1.700000000000000355e+01,-5.000000000000000000e-01,-7.500000000000001776e+00,-1.725000000000000355e+01,3.200000000000000711e+01,-1.725000000000000355e+01,-1.050000000000000355e+01,1.650000000000000355e+01,-1.050000000000000355e+01,2.200000000000000711e+01,-3.075000000000000711e+01,1.900000000000000355e+01,9.250000000000003553e+00,-1.925000000000000355e+01,1.200000000000000355e+01,-1.650000000000000355e+01,3.500000000000000000e+00,1.950000000000000711e+01,-1.350000000000000355e+01,4.750000000000000888e+00,-1.600000000000000355e+01,2.575000000000000711e+01,-2.200000000000000711e+01,-2.500000000000000000e-01,2.050000000000000711e+01,-7.000000000000002665e+00,-1.500000000000000355e+01,1.600000000000000355e+01,-2.250000000000000888e+00,-1.150000000000000355e+01,1.500000000000000355e+01,-1.125000000000000355e+01,9.500000000000001776e+00,-2.100000000000000355e+01,2.050000000000000355e+01,6.250000000000000888e+00,-2.275000000000000355e+01,8.500000000000000000e+00,5.750000000000001776e+00,9.250000000000003553e+00,-1.050000000000000355e+01,1.000000000000000000e+00,-3.750000000000000888e+00,-9.000000000000001776e+00,2.900000000000000711e+01,-2.600000000000000711e+01,-1.000000000000000000e+00,2.550000000000000711e+01,-1.925000000000000355e+01,-3.500000000000000444e+00,1.675000000000000355e+01,-2.800000000000000711e+01,3.250000000000000711e+01,-2.600000000000000711e+01,2.225000000000000711e+01,-2.450000000000000711e+01,1.575000000000000355e+01,8.000000000000000000e+00,-2.150000000000000355e+01,5.250000000000000888e+00,1.475000000000000355e+01,-2.050000000000000355e+01,2.075000000000000355e+01,-3.750000000000000000e+00,-1.850000000000000711e+01,8.250000000000003553e+00,2.150000000000000355e+01,-3.500000000000000711e+01,2.500000000000000711e+01,-8.000000000000001776e+00,-3.500000000000000888e+00,1.200000000000000355e+01,-1.950000000000000355e+01,2.225000000000000355e+01,-3.500000000000000000e+00,-1.325000000000000355e+01,-6.750000000000001776e+00,1.300000000000000355e+01,9.250000000000001776e+00,-9.500000000000001776e+00,-1.250000000000000355e+01,2.575000000000000711e+01,-1.550000000000000355e+01,-9.250000000000001776e+00,7.250000000000000888e+00,4.250000000000000888e+00,-5.000000000000000888e+00,2.075000000000000355e+01,-1.775000000000000355e+01,-1.450000000000000355e+01,3.375000000000000711e+01,-2.150000000000000355e+01,-8.500000000000003553e+00,2.825000000000000711e+01,-2.175000000000000711e+01,-6.250000000000001776e+00,2.775000000000000711e+01,-3.125000000000000711e+01,2.075000000000000355e+01,7.750000000000002665e+00,-3.100000000000000711e+01,3.125000000000000711e+01,-2.475000000000000711e+01,1.800000000000000711e+01,-2.000000000000000888e+00,-1.550000000000000355e+01,2.925000000000000711e+01,-2.625000000000000711e+01,-5.000000000000000000e-01,2.050000000000000355e+01,-6.500000000000000888e+00,-2.150000000000000355e+01,1.575000000000000355e+01,1.750000000000000355e+01,-3.300000000000000711e+01,2.475000000000000711e+01,-1.950000000000000355e+01,1.075000000000000178e+01,1.225000000000000355e+01,-6.250000000000002665e+00,-2.200000000000000355e+01,2.825000000000000711e+01,-2.725000000000000711e+01,1.775000000000000355e+01,1.200000000000000355e+01,-3.175000000000000711e+01,3.475000000000000711e+01,-2.300000000000000355e+01,9.000000000000001776e+00,-2.050000000000000355e+01,3.175000000000000711e+01,-1.525000000000000355e+01,-1.650000000000000355e+01,1.675000000000000355e+01,1.300000000000000355e+01,-1.600000000000000355e+01,0.000000000000000000e+00,8.500000000000001776e+00,-1.150000000000000355e+01,-4.750000000000000000e+00,9.250000000000001776e+00,1.350000000000000178e+01,-2.300000000000000355e+01,2.350000000000000711e+01,-2.475000000000000711e+01,1.100000000000000355e+01,-2.500000000000000000e-01,1.400000000000000355e+01,-1.500000000000000355e+01,-9.750000000000003553e+00,2.250000000000000711e+01,-2.275000000000000711e+01,1.400000000000000355e+01,1.425000000000000355e+01,-1.975000000000000355e+01,-8.750000000000003553e+00,1.475000000000000355e+01,-2.000000000000000444e+00,-5.000000000000002220e-01,1.075000000000000178e+01,-2.275000000000000711e+01,6.250000000000001776e+00,2.175000000000000711e+01,-2.850000000000000711e+01,1.300000000000000355e+01,1.325000000000000355e+01,-2.275000000000000711e+01,1.200000000000000178e+01,-8.500000000000001776e+00,-1.750000000000000000e+00,2.125000000000000711e+01,-1.025000000000000355e+01,-1.475000000000000355e+01,1.525000000000000355e+01,-1.450000000000000355e+01,2.850000000000000711e+01,-2.700000000000000711e+01,1.700000000000000355e+01,-1.050000000000000355e+01,-2.500000000000000000e-01,-5.000000000000000888e+00,-2.000000000000000000e+00,2.175000000000000355e+01,-2.325000000000000355e+01,1.625000000000000355e+01,-1.400000000000000355e+01,1.825000000000000355e+01,-1.475000000000000355e+01,1.725000000000000355e+01,-1.800000000000000355e+01,1.575000000000000355e+01,-8.250000000000001776e+00,-1.200000000000000178e+01,1.500000000000000355e+01,4.250000000000000888e+00,-2.175000000000000711e+01,2.800000000000000711e+01,-1.500000000000000355e+01,-3.250000000000000888e+00,1.125000000000000355e+01,-1.975000000000000711e+01,1.725000000000000355e+01,1.600000000000000355e+01,-1.800000000000000355e+01,-2.500000000000000000e-01,-1.100000000000000178e+01,1.300000000000000355e+01,7.500000000000000000e-01,-4.500000000000000888e+00,2.050000000000000355e+01,-2.250000000000000355e+01,-5.750000000000001776e+00,3.300000000000000711e+01,-2.900000000000000711e+01,1.025000000000000355e+01,7.500000000000001776e+00,-1.000000000000000355e+01,1.675000000000000355e+01,-1.575000000000000355e+01,1.750000000000000888e+00,-6.250000000000001776e+00,-1.000000000000000222e+00,-5.000000000000001110e-01,2.500000000000000555e-01,0.000000000000000000e+00,2.500000000000000555e-01,-5.000000000000001110e-01,2.500000000000000555e-01,0.000000000000000000e+00,0.000000000000000000e+00,0.000000000000000000e+00,0.000000000000000000e+00,-2.500000000000000555e-01,5.000000000000001110e-01,-5.000000000000001110e-01,5.000000000000001110e-01,-2.500000000000000555e-01,0.000000000000000000e+00,2.500000000000000555e-01,-2.500000000000000555e-01,-2.500000000000000555e-01,2.500000000000000555e-01,0.000000000000000000e+00,2.500000000000000555e-01,-5.000000000000001110e-01,2.500000000000000555e-01,2.500000000000000555e-01,-5.000000000000001110e-01,2.500000000000000555e-01,0.000000000000000000e+00,0.000000000000000000e+00,-3.925000000000000711e+01,3.875000000000000711e+01,2.225000000000000355e+01,-2.650000000000000355e+01,-1.275000000000000355e+01,1.275000000000000355e+01,-2.500000000000000888e+00,3.000000000000000711e+01,-9.100000000000001421e+01,2.150000000000000711e+01,2.375000000000000355e+01,-1.400000000000000355e+01,-4.500000000000000000e+00,3.850000000000000711e+01,1.500000000000000444e+00,1.250000000000000444e+00,2.500000000000000555e-01,-2.500000000000000555e-01,7.500000000000002220e-01,-1.000000000000000222e+00,5.000000000000001110e-01,-2.500000000000000555e-01,2.500000000000000555e-01,0.000000000000000000e+00,0.000000000000000000e+00,0.000000000000000000e+00,-2.500000000000000555e-01,7.500000000000002220e-01,-7.500000000000002220e-01,5.000000000000001110e-01,-2.500000000000000555e-01,-2.500000000000000555e-01,2.500000000000000555e-01,0.000000000000000000e+00,5.000000000000001110e-01,-1.000000000000000222e+00,5.000000000000001110e-01,2.500000000000000555e-01,-2.500000000000000555e-01,-2.500000000000000555e-01,2.500000000000000555e-01,2.500000000000000555e-01,-7.500000000000002220e-01,7.500000000000002220e-01,0.000000000000000000e+00,-2.500000000000000555e-01,2.500000000000000555e-01,-1.000000000000000222e+00,1.000000000000000222e+00,-2.500000000000000555e-01,0.000000000000000000e+00,2.500000000000000555e-01,-2.500000000000000555e-01,0.000000000000000000e+00,0.000000000000000000e+00,-2.500000000000000555e-01,5.000000000000001110e-01,-2.500000000000000555e-01,0.000000000000000000e+00,0.000000000000000000e+00,0.000000000000000000e+00,0.000000000000000000e+00,-2.500000000000000555e-01,2.500000000000000555e-01,2.500000000000000555e-01,-2.500000000000000555e-01,0.000000000000000000e+00,0.000000000000000000e+00,2.500000000000000555e-01,-2.500000000000000555e-01,0.000000000000000000e+00,-2.500000000000000555e-01,5.000000000000001110e-01,-2.500000000000000555e-01,0.000000000000000000e+00,1.250000000000000222e+00,1.850000000000000355e+01,-1.875000000000000355e+01,-2.000000000000000444e+00,1.125000000000000178e+01,5.000000000000000000e-01,6.250000000000001776e+00,-2.450000000000000711e+01,2.275000000000000711e+01,-1.250000000000000355e+01,1.025000000000000355e+01,-1.125000000000000355e+01,1.625000000000000355e+01,-2.325000000000000355e+01,1.625000000000000355e+01,1.500000000000001776e+00,-5.000000000000000000e-01,-1.350000000000000355e+01,5.750000000000001776e+00,1.675000000000000355e+01,-2.150000000000000355e+01,1.625000000000000355e+01,-1.500000000000000355e+01,1.500000000000000222e+00,1.000000000000000355e+01,-7.500000000000002665e+00,7.500000000000000000e-01,7.250000000000002665e+00,-1.375000000000000355e+01,-2.500000000000000888e+00,2.275000000000000355e+01,-1.925000000000000355e+01,-8.250000000000001776e+00,1.600000000000000355e+01,-1.000000000000000000e+00,8.000000000000001776e+00,-1.775000000000000355e+01,-3.500000000000000888e+00,1.825000000000000355e+01,-9.000000000000001776e+00,-2.250000000000000444e+00,-5.250000000000000888e+00,9.250000000000001776e+00,-4.500000000000000888e+00,2.500000000000000555e-01,-5.000000000000001110e-01,0.000000000000000000e+00,5.000000000000001110e-01,0.000000000000000000e+00,-5.000000000000001110e-01,2.500000000000000555e-01,0.000000000000000000e+00,0.000000000000000000e+00,0.000000000000000000e+00,0.000000000000000000e+00,2.500000000000000555e-01,-5.000000000000001110e-01,2.500000000000000555e-01,-2.500000000000000555e-01,7.500000000000002220e-01,-9.500000000000001776e+00,1.125000000000000178e+01,-8.000000000000001776e+00,1.800000000000000355e+01,-1.625000000000000355e+01,-6.000000000000000888e+00,1.425000000000000355e+01,-2.050000000000000355e+01,1.100000000000000355e+01,2.100000000000000355e+01,-3.075000000000000711e+01,4.500000000000001776e+00,1.975000000000000355e+01,-2.000000000000000000e+00,-6.500000000000001776e+00,-1.000000000000000178e+01,3.250000000000000000e+00,1.775000000000000355e+01,-9.250000000000001776e+00,-1.650000000000000355e+01,1.775000000000000355e+01,6.000000000000000888e+00,-2.675000000000000711e+01,2.025000000000000355e+01,-1.275000000000000355e+01,1.550000000000000355e+01,4.750000000000000000e+00,-2.075000000000000355e+01,-8.500000000000001776e+00,1.675000000000000355e+01,-8.500000000000001776e+00,1.075000000000000178e+01,-1.500000000000000444e+00,-4.000000000000000888e+00,1.950000000000000355e+01,-3.275000000000000711e+01,4.500000000000000000e+00,6.500000000000001776e+00,-4.750000000000001776e+00,0.000000000000000000e+00,-2.500000000000000000e+00,2.750000000000001776e+00,6.000000000000000888e+00,-7.500000000000002665e+00,-5.500000000000000000e+00,1.550000000000000355e+01,1.275000000000000355e+01,-1.550000000000000355e+01,-1.925000000000000711e+01,2.700000000000000711e+01,-3.000000000000000888e+00,-1.700000000000000355e+01,2.750000000000000000e+00,1.725000000000000355e+01,-4.000000000000000888e+00,2.000000000000000444e+00,-2.500000000000000555e-01,5.000000000000001110e-01,-2.500000000000000555e-01,0.000000000000000000e+00,5.000000000000001110e-01,-5.000000000000001110e-01,7.500000000000002220e-01,-2.500000000000000555e-01,2.500000000000000555e-01,5.000000000000001110e-01,-1.500000000000000444e+00,5.750000000000000888e+00,-1.500000000000000000e+00,-6.250000000000001776e+00,1.600000000000000355e+01,-2.150000000000000711e+01,3.750000000000000711e+01,-3.825000000000000711e+01,8.500000000000001776e+00,2.075000000000000355e+01,-9.750000000000001776e+00,-1.700000000000000355e+01,1.050000000000000355e+01,5.750000000000000888e+00,-9.750000000000001776e+00,-4.250000000000000888e+00,3.750000000000000888e+00,-2.500000000000000555e-01,1.800000000000000355e+01,-2.475000000000000711e+01,1.125000000000000355e+01,1.750000000000000000e+00,-1.850000000000000355e+01,1.125000000000000355e+01,5.250000000000001776e+00,-1.350000000000000355e+01,1.900000000000000355e+01,-9.750000000000001776e+00,-8.250000000000001776e+00,1.225000000000000355e+01,-6.500000000000001776e+00,8.000000000000001776e+00,-8.500000000000001776e+00,2.600000000000000355e+01,-3.925000000000000711e+01,3.500000000000000000e+00,4.050000000000001421e+01,-4.500000000000001421e+01,1.950000000000000355e+01,1.400000000000000355e+01,-4.575000000000001421e+01,4.475000000000001421e+01,-1.375000000000000355e+01,-1.500000000000000444e+00,1.750000000000000444e+00,-2.000000000000000444e+00,2.000000000000000444e+00,-1.025000000000000178e+01,9.750000000000001776e+00,7.250000000000001776e+00,-2.425000000000000711e+01,2.975000000000000711e+01,-1.950000000000000711e+01,4.500000000000001776e+00,-1.325000000000000355e+01,2.575000000000000711e+01,1.225000000000000178e+01,-5.225000000000001421e+01,3.675000000000000711e+01,8.500000000000001776e+00,-3.125000000000000711e+01,2.425000000000000711e+01,-3.025000000000000711e+01,9.500000000000001776e+00,5.900000000000000711e+01,-7.000000000000001421e+01,2.875000000000000711e+01,-1.475000000000000355e+01,2.025000000000000355e+01,-4.750000000000000000e+00,-2.250000000000000888e+00,-7.250000000000001776e+00,-7.000000000000001776e+00,1.500000000000000355e+01,-2.500000000000000000e+00,1.425000000000000355e+01,-2.300000000000000355e+01,-2.500000000000008882e-01,1.425000000000000355e+01,-7.250000000000001776e+00,-7.000000000000001776e+00,1.525000000000000355e+01,-7.750000000000001776e+00,-1.000000000000000178e+01,2.550000000000000711e+01,-1.750000000000000355e+01,-5.250000000000000888e+00,6.000000000000000888e+00,1.225000000000000355e+01,-1.550000000000000355e+01,7.000000000000001776e+00,-1.250000000000000355e+01,2.000000000000000355e+01,-2.500000000000000000e-01,-1.800000000000000355e+01,5.000000000000000000e-01,1.500000000000000355e+01,2.500000000000000000e+00,-2.150000000000000355e+01,3.025000000000000711e+01,-2.975000000000000711e+01,2.525000000000000711e+01,-8.750000000000001776e+00,-1.500000000000000355e+01,1.125000000000000355e+01,9.000000000000003553e+00,1.750000000000000000e+00,-3.750000000000001776e+00,-2.000000000000000355e+01,1.450000000000000355e+01,6.750000000000000888e+00,-1.825000000000000355e+01,1.550000000000000355e+01,2.250000000000000000e+00,-2.175000000000000355e+01,1.475000000000000355e+01,1.000000000000000355e+01,-1.275000000000000355e+01,-2.000000000000000444e+00,1.725000000000000355e+01,-2.600000000000000711e+01,2.225000000000000711e+01,-1.875000000000000711e+01,3.750000000000001332e+00,1.675000000000000355e+01,-1.675000000000000355e+01,-8.750000000000001776e+00,2.575000000000000711e+01,-1.800000000000000355e+01,-5.750000000000000888e+00,2.275000000000000711e+01,-2.275000000000000711e+01,2.100000000000000355e+01,-1.975000000000000355e+01,3.500000000000000888e+00,1.425000000000000355e+01,-6.250000000000000888e+00,-6.750000000000001776e+00,-4.500000000000000888e+00,1.625000000000000355e+01,-4.500000000000000888e+00,-1.250000000000000355e+01,1.600000000000000355e+01,-1.125000000000000355e+01,-5.750000000000000888e+00,2.225000000000000711e+01,-1.525000000000000355e+01,7.500000000000000000e-01,7.000000000000001776e+00,-8.250000000000001776e+00,-4.500000000000000888e+00,1.650000000000000355e+01,-7.250000000000001776e+00,-1.500000000000000444e+00,-2.750000000000000444e+00,4.000000000000000888e+00,-5.000000000000002220e-01,-1.000000000000000222e+00,0.000000000000000000e+00,-2.500000000000000555e-01,-5.750000000000001776e+00,1.175000000000000355e+01,-5.500000000000000888e+00,-2.750000000000000444e+00,-8.500000000000001776e+00,2.200000000000000355e+01,-2.575000000000000711e+01,2.425000000000000711e+01,-1.825000000000000355e+01,4.250000000000000888e+00,1.325000000000000355e+01,-7.750000000000001776e+00,-6.500000000000000888e+00,9.500000000000001776e+00,6.250000000000000888e+00,-2.250000000000000711e+01,2.350000000000000711e+01,-7.250000000000000888e+00,-1.400000000000000355e+01,1.475000000000000355e+01,5.000000000000000000e-01,-1.075000000000000178e+01,2.250000000000000000e+00,1.175000000000000355e+01,-8.250000000000001776e+00,-5.000000000000001110e-01,5.000000000000001110e-01,-1.250000000000000222e+00,1.750000000000000444e+00,-7.500000000000002220e-01,0.000000000000000000e+00,2.500000000000000555e-01,-2.500000000000000555e-01,-2.500000000000000555e-01,2.500000000000000555e-01,-2.500000000000000555e-01,5.000000000000001110e-01,-5.000000000000001110e-01,5.000000000000001110e-01,-2.500000000000000555e-01,-9.000000000000001776e+00,3.500000000000000888e+00,1.475000000000000355e+01,-3.025000000000000711e+01,2.150000000000000355e+01,3.500000000000000888e+00,-8.500000000000001776e+00,2.250000000000000444e+00,-8.250000000000001776e+00,1.725000000000000355e+01,-1.050000000000000355e+01,-1.275000000000000355e+01,1.300000000000000355e+01,1.525000000000000355e+01,-1.950000000000000355e+01,2.500000000000000000e-01,6.750000000000001776e+00,-6.000000000000001776e+00,1.025000000000000355e+01,-2.000000000000000444e+00,-2.025000000000000355e+01,1.425000000000000355e+01,-7.500000000000000000e-01,-2.500000000000000000e-01,1.075000000000000178e+01,2.750000000000000888e+00,-2.275000000000000711e+01,6.750000000000001776e+00,2.100000000000000711e+01,-2.625000000000000711e+01,1.225000000000000355e+01,-2.250000000000000888e+00,-3.750000000000000888e+00,1.525000000000000355e+01,-2.000000000000000355e+01,7.750000000000000888e+00,2.500000000000000444e+00,-1.425000000000000355e+01,1.600000000000000355e+01,7.000000000000001776e+00,-2.650000000000000711e+01,2.225000000000000355e+01,5.250000000000000888e+00,-1.825000000000000355e+01,7.250000000000001776e+00,-7.750000000000001776e+00,4.250000000000000000e+00,1.500000000000000355e+01,-2.775000000000000711e+01,2.125000000000000355e+01,-4.500000000000000888e+00,-4.500000000000001776e+00,1.225000000000000355e+01,-2.250000000000000000e+00,-1.400000000000000355e+01,4.250000000000000000e+00,9.750000000000003553e+00,-1.225000000000000355e+01,1.525000000000000355e+01,-1.825000000000000711e+01,9.500000000000003553e+00,4.750000000000000888e+00,-2.050000000000000355e+01,1.775000000000000355e+01,-2.000000000000000444e+00,-5.750000000000001776e+00,1.250000000000000355e+01,3.500000000000000888e+00,-1.650000000000000355e+01,1.000000000000000178e+01,-1.250000000000000222e+00,-1.400000000000000355e+01,1.700000000000000355e+01,-3.750000000000000888e+00,-3.250000000000000888e+00,3.500000000000000888e+00,5.000000000000001110e-01,-2.500000000000000555e-01,2.500000000000000555e-01,-2.500000000000000555e-01,5.000000000000001110e-01,-5.000000000000001110e-01,5.000000000000001110e-01,-2.500000000000000555e-01,0.000000000000000000e+00,0.000000000000000000e+00,-2.500000000000000555e-01,2.500000000000000555e-01,0.000000000000000000e+00,2.500000000000000555e-01,-5.000000000000001110e-01,2.500000000000000555e-01,0.000000000000000000e+00,-2.500000000000000555e-01,5.000000000000001110e-01,-2.500000000000000555e-01,-2.500000000000000555e-01,2.500000000000000555e-01,0.000000000000000000e+00,0.000000000000000000e+00,2.500000000000000555e-01,-5.000000000000001110e-01,2.500000000000000555e-01,0.000000000000000000e+00,0.000000000000000000e+00,0.000000000000000000e+00,0.000000000000000000e+00,0.000000000000000000e+00,0.000000000000000000e+00,-2.500000000000000555e-01,5.000000000000001110e-01,-2.500000000000000555e-01,0.000000000000000000e+00,0.000000000000000000e+00,0.000000000000000000e+00,0.000000000000000000e+00,0.000000000000000000e+00,0.000000000000000000e+00,5.000000000000001110e-01,-1.250000000000000444e+00,1.250000000000000444e+00,-1.000000000000000222e+00,7.500000000000002220e-01,-5.000000000000001110e-01,5.000000000000001110e-01,-2.500000000000000555e-01,0.000000000000000000e+00,0.000000000000000000e+00,0.000000000000000000e+00,-2.500000000000000555e-01,5.000000000000001110e-01,-2.500000000000000555e-01,2.500000000000000555e-01,-7.500000000000002220e-01,7.500000000000002220e-01,-2.500000000000000555e-01,2.500000000000000555e-01,-5.000000000000001110e-01,5.000000000000001110e-01,0.000000000000000000e+00,-5.000000000000001110e-01,0.000000000000000000e+00,7.500000000000002220e-01,-7.500000000000002220e-01,5.000000000000001110e-01,0.000000000000000000e+00,-2.500000000000000555e-01,0.000000000000000000e+00,1.000000000000000222e+00,-1.000000000000000222e+00,5.000000000000001110e-01,8.000000000000001776e+00,-2.000000000000000000e+00,2.500000000000000000e+00,-3.500000000000000888e+00,-8.750000000000001776e+00,1.975000000000000355e+01,-2.175000000000000355e+01,1.250000000000000355e+01,8.250000000000001776e+00,-1.650000000000000355e+01,1.275000000000000178e+01,-1.125000000000000178e+01,-1.275000000000000355e+01,-1.200000000000000355e+01,2.075000000000000711e+01,8.950000000000001421e+01,-6.825000000000001421e+01,-5.750000000000000000e+00,-2.775000000000000711e+01,2.125000000000000355e+01,1.500000000000000888e+00,-1.525000000000000355e+01,1.650000000000000355e+01,-1.775000000000000355e+01,7.000000000000001776e+00,1.800000000000000355e+01,-2.150000000000000711e+01,5.750000000000001776e+00,1.425000000000000355e+01,-2.750000000000000711e+01,2.750000000000000711e+01,-2.625000000000000711e+01,2.275000000000000711e+01,-1.975000000000000355e+01,1.300000000000000355e+01,6.500000000000000888e+00,-1.850000000000000355e+01,5.500000000000001776e+00,1.400000000000000178e+01,-1.850000000000000355e+01,-5.250000000000001776e+00,2.450000000000000711e+01,-2.550000000000000711e+01,2.125000000000000711e+01,-8.000000000000001776e+00,-6.750000000000001776e+00,1.700000000000000355e+01,-1.475000000000000355e+01,2.125000000000000355e+01,-2.350000000000000711e+01,2.175000000000000711e+01,-2.375000000000000711e+01,6.750000000000001776e+00,4.500000000000000888e+00,5.750000000000001776e+00,2.250000000000000000e+00,-1.400000000000000355e+01,1.075000000000000355e+01,-1.800000000000000355e+01,9.000000000000001776e+00,8.000000000000001776e+00,-1.150000000000000355e+01,1.800000000000000355e+01,-2.075000000000000711e+01,5.750000000000001776e+00,1.600000000000000355e+01,-1.700000000000000355e+01,1.000000000000000444e+00,1.250000000000000178e+01,-1.100000000000000178e+01,2.500000000000000000e-01,-1.500000000000000222e+00,1.625000000000000355e+01,-1.550000000000000355e+01,-1.025000000000000178e+01,1.825000000000000355e+01,2.750000000000000000e+00,-2.250000000000000711e+01,2.600000000000000711e+01,-1.750000000000000355e+01,1.075000000000000355e+01,-1.300000000000000355e+01,-5.000000000000000000e-01,1.650000000000000355e+01,-6.750000000000001776e+00,-1.100000000000000178e+01,1.375000000000000355e+01,4.250000000000000888e+00,-4.575000000000000711e+01
