-1.801208750000001260e+02,-1.694958750000000975e+02,-1.599802500000000975e+02,-1.506990000000000975e+02,-1.449646250000000975e+02,-1.401052500000000975e+02,-1.381677500000000975e+02,-1.372458750000000975e+02,-1.361208750000000975e+02,-1.349802500000000975e+02,-1.354802500000000975e+02,-1.381833750000000975e+02,-1.396833750000000975e+02,-1.413865000000000975e+02,-1.418240000000000975e+02,-1.428552500000000975e+02,-1.453708750000000975e+02,-1.474958750000000975e+02,-1.480115000000000975e+02,-1.471833750000000975e+02,-1.454646250000000975e+02,-1.447927500000000975e+02,-1.448240000000000975e+02,-1.430896250000000975e+02,-1.412302500000000975e+02,-1.400583750000000975e+02,-1.400115000000000975e+02,-1.391521250000000975e+02,-1.400271250000000975e+02,-1.387615000000000975e+02,-1.377458750000000975e+02,-1.377927500000000975e+02,-1.374490000000000975e+02,-1.362927500000000975e+02,-1.343083750000000975e+02,-1.339177500000000975e+02,-1.328240000000000975e+02,-1.328396250000000975e+02,-1.318708750000000975e+02,-1.320896250000000975e+02,-1.322302500000000975e+02,-1.317927500000000975e+02,-1.323865000000000975e+02,-1.326052500000000975e+02,-1.321052500000000975e+02,-1.326365000000000975e+02,-1.338552500000000975e+02,-1.333240000000000975e+02,-1.325271250000000975e+02,-1.335583750000000975e+02,-1.339177500000000975e+02,-1.333708750000000975e+02,-1.334646250000000975e+02,-1.325896250000000975e+02,-1.311833750000000975e+02,-1.302458750000000975e+02,-1.294177500000000975e+02,-1.275271250000000975e+02,-1.260427500000000975e+02,-1.254490000000000975e+02,-1.253708750000000975e+02,-1.243396250000000975e+02,-1.237458750000000975e+02,-1.239021250000000975e+02,-1.245740000000000975e+02,-1.251365000000000975e+02,-1.247927500000000975e+02,-1.244490000000000975e+02,-1.226990000000000975e+02,-1.221990000000000975e+02,-1.211833750000000975e+02,-1.193240000000000975e+02,-1.172146250000000975e+02,-1.149490000000000975e+02,-1.141052500000000975e+02,-1.125271250000000975e+02,-1.130583750000000975e+02,-1.135115000000000975e+02,-1.145427500000000975e+02,-1.163396250000000975e+02,-1.182771250000000975e+02,-1.211208750000000975e+02,-1.231677500000000975e+02,-1.256990000000000975e+02,-1.270740000000000975e+02,-1.286365000000000975e+02,-1.306990000000000975e+02,-1.315115000000000975e+02,-1.328552500000000975e+02,-1.341677500000000975e+02,-1.356208750000000975e+02,-1.369490000000000975e+02,-1.383552500000000975e+02,-1.395740000000000975e+02,-1.399802500000000975e+02,-1.417458750000000975e+02,-1.425271250000000975e+02,-1.429177500000000975e+02,-1.422615000000000975e+02,-1.421365000000000975e+02,-1.421521250000000975e+02,-1.419490000000000975e+02,-1.430896250000000975e+02,-1.438708750000000975e+02,-1.451833750000000975e+02,-1.463552500000000975e+02,-1.492458750000000975e+02,-1.525583750000000975e+02,-1.548396250000000975e+02,-1.575740000000000975e+02,-1.587146250000000975e+02,-1.592927500000000975e+02,-1.605271250000000975e+02,-1.621365000000000975e+02,-1.626677500000000975e+02,-1.622615000000000975e+02,-1.634958750000000975e+02,-1.638083750000000975e+02,-1.650740000000000975e+02,-1.674646250000000975e+02,-1.694021250000000975e+02,-1.700896250000000975e+02,-1.710427500000000975e+02,-1.724646250000000975e+02,-1.724177500000000975e+02,-1.725427500000000975e+02,-1.715896250000000975e+02,-1.702771250000000975e+02,-1.687615000000000975e+02,-1.694490000000000975e+02,-1.710115000000000975e+02,-1.717771250000000975e+02,-1.745896250000000975e+02,-1.788865000000000975e+02,-1.842615000000001260e+02,-1.900427500000001828e+02,-1.962615000000001828e+02,-2.012927500000001828e+02,-2.063083750000001828e+02,-2.122458750000001828e+02,-2.170271250000001828e+02,-2.207302500000001828e+02,-2.253083750000001828e+02,-2.285740000000001828e+02,-2.310740000000001828e+02,-2.343552500000001828e+02,-2.362927500000001828e+02,-2.380271250000001828e+02,-2.393708750000001828e+02,-2.404802500000001828e+02,-2.399646250000001828e+02,-2.408552500000001828e+02,-2.418552500000001828e+02,-2.409646250000001828e+02,-2.412615000000001828e+02,-2.412302500000001828e+02,-2.411052500000001828e+02,-2.415583750000001828e+02,-2.418396250000001828e+02,-2.408865000000001828e+02,-2.397146250000001828e+02,-2.401990000000001828e+02,-2.399646250000001828e+02,-2.405115000000001828e+02,-2.407146250000001828e+02,-2.399802500000001828e+02,-2.400271250000001828e+02,-2.402458750000001828e+02,-2.405271250000001828e+02,-2.401052500000001828e+02,-2.390271250000001828e+02,-2.362302500000001828e+02,-2.335115000000001828e+02,-2.308083750000001828e+02,-2.263708750000001828e+02,-2.216833750000001828e+02,-2.174646250000001828e+02,-2.116990000000001828e+02,-2.061990000000001828e+02,-2.017615000000001828e+02,-1.973240000000001828e+02,-1.938708750000001828e+02,-1.922302500000001544e+02,-1.896521250000001260e+02,-1.865583750000000975e+02,-1.848396250000000975e+02,-1.824958750000000975e+02,-1.801208750000000975e+02,-1.778865000000000975e+02,-1.746521250000000975e+02,-1.701365000000000975e+02,-1.672615000000000975e+02,-1.642458750000000975e+02,-1.613396250000000975e+02,-1.601365000000000975e+02,-1.582771250000000975e+02,-1.567146250000000975e+02,-1.555427500000000975e+02,-1.561833750000000975e+02,-1.560740000000000975e+02,-1.556208750000000975e+02,-1.563083750000000975e+02,-1.551990000000000975e+02,-1.546677500000000975e+02,-1.539958750000000975e+02,-1.525271250000000975e+02,-1.496365000000000975e+02,-1.481208750000000975e+02,-1.473083750000000975e+02,-1.451365000000000975e+02,-1.437927500000000975e+02,-1.418396250000000975e+02,-1.409958750000000975e+02,-1.409333750000000975e+02,-1.415583750000000975e+02,-1.407771250000000975e+02,-1.407927500000000975e+02,-1.400896250000000975e+02,-1.404802500000000975e+02,-1.421521250000000975e+02,-1.415427500000000975e+02,-1.407771250000000975e+02,-1.392146250000000975e+02,-1.376990000000000975e+02,-1.345740000000000975e+02,-1.330427500000000975e+02,-1.299177500000000975e+02,-1.247302500000000975e+02,-1.204021250000000975e+02,-1.166208750000000975e+02,-1.121833750000000975e+02,-1.079177500000000975e+02,-1.036677500000000975e+02,-9.762087500000009754e+01,-9.137087500000006912e+01,-8.702712500000005491e+01,-8.357400000000005491e+01,-7.874587500000005491e+01,-7.537087500000005491e+01,-7.091775000000005491e+01,-6.682400000000005491e+01,-6.457400000000005491e+01,-6.373025000000005491e+01,-6.126150000000005491e+01,-5.751150000000005491e+01,-5.476150000000005491e+01,-5.101150000000005491e+01,-4.924587500000005491e+01,-4.773025000000004781e+01,-4.402712500000004070e+01,-3.951150000000003359e+01,-3.574587500000003359e+01,-3.232400000000003359e+01,-2.930837500000003359e+01,-2.680837500000003359e+01,-2.291775000000003004e+01,-1.891775000000002649e+01,-1.608962500000002294e+01,-1.308962500000002116e+01,-1.094900000000001938e+01,-9.074000000000017607e+00,-6.042750000000015831e+00,-2.339625000000013610e+00,5.978749999999881659e-01,3.379124999999989498e+00,4.941624999999990386e+00,6.175999999999991275e+00,8.488499999999994827e+00,1.094162499999999483e+01,1.380099999999999838e+01,1.558224999999999838e+01,1.906662500000000193e+01,2.317600000000000193e+01,2.994162500000000904e+01,3.761350000000001614e+01,4.597287500000002325e+01,5.401975000000003035e+01,6.067600000000003035e+01,6.750412500000003035e+01,7.189475000000003035e+01,7.570725000000003035e+01,7.705100000000003035e+01,7.670725000000003035e+01,7.498850000000003035e+01,7.292600000000003035e+01,7.036350000000003035e+01,6.795725000000003035e+01,6.608225000000003035e+01,6.383225000000003035e+01,6.197287500000003035e+01,5.966037500000003035e+01,5.537912500000003035e+01,5.005100000000002325e+01,4.453537500000001614e+01,3.748850000000000904e+01,2.944162500000000904e+01,1.948850000000000193e+01,6.660374999999993051e+00,-6.870875000000017607e+00,-1.946462500000002649e+01,-3.332400000000003359e+01,-4.927712500000004070e+01,-6.696462500000005491e+01,-8.710525000000006912e+01,-1.091208750000000975e+02,-1.319958750000000975e+02,-1.575427500000001260e+02,-1.872771250000001544e+02,-2.181833750000001828e+02,-2.501208750000001828e+02,-2.824490000000001828e+02,-3.136521250000001828e+02,-3.431833750000001828e+02,-3.696990000000002397e+02,-3.923865000000002965e+02,-4.098708750000002965e+02,-4.236208750000002965e+02,-4.334177500000003533e+02,-4.397458750000003533e+02,-4.435271250000003533e+02,-4.450427500000003533e+02,-4.456208750000003533e+02,-4.456365000000003533e+02,-4.455740000000003533e+02,-4.455115000000003533e+02,-4.454646250000003533e+02,-4.454333750000003533e+02,-4.454177500000003533e+02,-4.454333750000003533e+02,-4.454646250000003533e+02,-4.455271250000003533e+02,-4.456052500000003533e+02,-4.456833750000003533e+02,-4.457615000000003533e+02,-4.458240000000003533e+02,-4.458552500000003533e+02,-4.458708750000003533e+02,-4.458865000000003533e+02,-4.458865000000003533e+02,-4.434021250000003533e+02,-4.384333750000003533e+02,-4.323396250000003533e+02,-4.248083750000003533e+02,-4.147771250000002965e+02,-4.019333750000002965e+02,-3.858240000000002965e+02,-3.678708750000001828e+02,-3.487302500000001828e+02,-3.255271250000001828e+02,-2.941052500000001828e+02,-2.527615000000001828e+02,-2.010740000000001260e+02,-1.394490000000000975e+02,-6.869900000000006912e+01,1.403537499999997706e+01,1.026760000000000446e+02,1.914260000000001014e+02,2.760197500000001583e+02,3.521603750000002151e+02,4.157541250000002719e+02,4.667385000000002719e+02,5.053791250000002719e+02,5.302228750000002719e+02,5.455353750000002719e+02,5.542072500000002719e+02,5.577541250000002719e+02,5.583947500000002719e+02,5.587385000000002719e+02,5.589260000000002719e+02,5.590510000000002719e+02,5.591447500000002719e+02,5.592072500000002719e+02,5.592541250000002719e+02,5.591916250000002719e+02,5.591447500000002719e+02,5.590822500000002719e+02,5.590353750000002719e+02,5.590041250000002719e+02,5.589728750000002719e+02,5.589416250000002719e+02,5.588947500000002719e+02,5.589416250000002719e+02,5.589728750000002719e+02,5.589885000000002719e+02,5.590041250000002719e+02,5.590041250000002719e+02,5.590197500000002719e+02,5.590353750000002719e+02,5.590822500000002719e+02,5.590666250000002719e+02,5.590353750000002719e+02,5.590197500000002719e+02,5.590041250000002719e+02,5.590197500000002719e+02,5.590041250000002719e+02,5.589728750000002719e+02,5.589103750000002719e+02,5.588478750000002719e+02,5.588010000000002719e+02,5.587541250000002719e+02,5.587072500000002719e+02,5.586603750000002719e+02,5.586291250000002719e+02,5.586135000000002719e+02,5.586135000000002719e+02,5.586291250000002719e+02,5.586447500000002719e+02,5.586447500000002719e+02,5.586291250000002719e+02,5.585666250000002719e+02,5.584885000000002719e+02,5.583947500000002719e+02,5.582853750000002719e+02,5.581603750000002719e+02,5.579416250000002719e+02,5.564260000000002719e+02,5.535510000000002719e+02,5.493947500000002719e+02,5.432853750000002719e+02,5.345666250000002719e+02,5.221760000000002719e+02,5.065822500000002719e+02,4.869885000000002719e+02,4.656760000000002719e+02,4.419572500000002719e+02,4.155978750000002719e+02,3.867697500000002719e+02,3.571291250000001583e+02,3.281135000000001583e+02,2.980041250000001583e+02,2.678791250000001583e+02,2.369416250000001583e+02,2.064885000000001583e+02,1.754885000000001014e+02,1.455822500000000730e+02,1.144572500000000730e+02,8.237912500000004457e+01,5.123850000000001614e+01,2.081662500000000193e+01,-9.542750000000019384e+00,-4.046462500000004070e+01,-7.023025000000005491e+01,-9.996462500000006912e+01,-1.271521250000000975e+02,-1.535896250000001260e+02,-1.797771250000001544e+02,-2.044177500000001828e+02,-2.273083750000001828e+02,-2.484490000000001828e+02,-2.684802500000001828e+02,-2.873083750000001828e+02,-3.059490000000001828e+02,-3.227771250000001828e+02,-3.381052500000001828e+02,-3.537615000000001828e+02,-3.687771250000001828e+02,-3.829333750000002965e+02,-3.951833750000002965e+02,-4.058552500000002965e+02,-4.155271250000002965e+02,-4.239177500000003533e+02,-4.306990000000003533e+02,-4.353083750000003533e+02,-4.388083750000003533e+02,-4.410583750000003533e+02,-4.429802500000003533e+02,-4.443552500000003533e+02,-4.448083750000003533e+02,-4.451052500000003533e+02,-4.454021250000003533e+02,-4.456833750000003533e+02,-4.456833750000003533e+02,-4.456677500000003533e+02,-4.456677500000003533e+02,-4.451365000000003533e+02,-4.441990000000003533e+02,-4.424802500000003533e+02,-4.407302500000003533e+02,-4.387458750000003533e+02,-4.358865000000003533e+02,-4.324490000000003533e+02,-4.273552500000003533e+02,-4.214021250000003533e+02,-4.152927500000003533e+02,-4.088083750000002965e+02,-3.997771250000002965e+02,-3.892615000000002965e+02,-3.789646250000002397e+02,-3.683865000000001828e+02,-3.590115000000001828e+02,-3.505583750000001828e+02,-3.419333750000001828e+02,-3.348083750000001828e+02,-3.303865000000001828e+02,-3.274958750000001828e+02,-3.252146250000001828e+02,-3.226521250000001828e+02,-3.201521250000001828e+02,-3.175427500000001828e+02,-3.147146250000001828e+02,-3.110896250000001828e+02,-3.071365000000001828e+02,-3.018083750000001828e+02,-2.942302500000001828e+02,-2.859333750000001828e+02,-2.759646250000001828e+02,-2.650740000000001828e+02,-2.529333750000001828e+02,-2.392615000000001828e+02,-2.232927500000001828e+02,-2.067146250000001828e+02,-1.899021250000001828e+02,-1.723240000000001260e+02,-1.533708750000000975e+02,-1.316677500000000975e+02,-1.074802500000000691e+02,-7.930837500000006912e+01,-4.798025000000004070e+01,-1.288650000000002294e+01,2.537912499999999838e+01,6.536350000000003035e+01,1.059103750000000446e+02,1.468478750000000730e+02,1.869103750000001014e+02,2.245510000000001583e+02,2.603947500000001583e+02,2.939260000000001583e+02,3.250822500000001583e+02,3.559416250000001583e+02,3.865197500000002719e+02,4.145978750000002719e+02,4.411291250000002719e+02,4.663322500000002719e+02,4.887697500000002719e+02,5.076603750000002719e+02,5.234416250000002719e+02,5.352072500000002719e+02,5.432853750000002719e+02,5.491603750000002719e+02,5.526603750000002719e+02,5.538635000000002719e+02,5.535510000000002719e+02,5.524885000000002719e+02,5.506916250000002719e+02,5.475197500000002719e+02,5.435197500000002719e+02,5.369416250000002719e+02,5.284572500000002719e+02,5.180353750000002719e+02,5.050666250000002719e+02,4.893322500000002719e+02,4.709260000000002719e+02,4.512385000000002719e+02,4.286291250000002719e+02,4.067385000000002719e+02,3.846603750000002719e+02,3.624103750000001583e+02,3.422541250000001583e+02,3.242072500000001583e+02,3.080978750000001583e+02,2.933635000000001583e+02,2.813947500000001583e+02,2.711760000000001583e+02,2.628478750000001583e+02,2.561603750000001583e+02,2.503791250000001583e+02,2.464416250000001583e+02,2.438635000000001583e+02,2.434260000000001583e+02,2.450041250000001583e+02,2.471760000000001583e+02,2.496916250000001583e+02,2.532541250000001583e+02,2.552697500000001583e+02,2.568478750000001583e+02,2.592072500000001583e+02,2.593010000000001583e+02,2.583166250000001583e+02,2.565666250000001583e+02,2.537853750000001583e+02,2.511760000000001583e+02,2.512385000000001583e+02,2.512385000000001583e+02,2.495822500000001583e+02,2.501447500000001583e+02,2.505353750000001583e+02,2.510822500000001583e+02,2.540041250000001583e+02,2.557228750000001583e+02,2.561760000000001583e+02,2.575510000000001583e+02,2.597697500000001583e+02,2.616603750000001583e+02,2.643322500000001583e+02,2.687541250000001583e+02,2.721291250000001583e+02,2.749728750000001583e+02,2.791760000000001583e+02,2.821603750000001583e+02,2.846291250000001583e+02,2.866916250000001583e+02,2.876291250000001583e+02,2.868322500000001583e+02,2.869572500000001583e+02,2.878947500000001583e+02,2.869260000000001583e+02,2.856447500000001583e+02,2.857697500000001583e+02,2.850666250000001583e+02,2.843478750000001583e+02,2.816135000000001583e+02,2.748947500000001583e+02,2.692697500000001583e+02,2.633947500000001583e+02,2.573791250000001583e+02,2.480666250000001583e+02,2.382228750000001583e+02,2.285197500000001583e+02,2.203478750000001583e+02,2.140510000000001583e+02,2.058478750000001583e+02,1.972541250000001583e+02,1.881603750000001298e+02,1.817853750000001014e+02,1.756135000000000730e+02,1.684885000000000730e+02,1.615041250000000730e+02,1.549260000000000730e+02,1.478166250000000730e+02,1.411760000000000730e+02,1.347541250000000730e+02,1.269416250000000730e+02,1.195041250000000730e+02,1.120510000000000730e+02,1.037697500000000730e+02,9.501975000000007299e+01,8.719162500000004457e+01,7.862912500000003035e+01,7.037912500000003035e+01,6.066037500000003035e+01,5.045725000000001614e+01,4.023850000000001614e+01,2.909787500000000904e+01,1.675412499999999838e+01,3.332249999999990386e+00,-1.032400000000001761e+01,-2.660525000000002649e+01,-4.310525000000004070e+01,-6.113650000000005491e+01,-7.974587500000006912e+01,-9.837087500000006912e+01,-1.172146250000000975e+02,-1.369802500000000975e+02,-1.575427500000000975e+02,-1.758552500000001260e+02,-1.921521250000001828e+02,-2.079333750000001828e+02,-2.236677500000001828e+02,-2.383083750000001828e+02,-2.532302500000001828e+02,-2.669490000000001828e+02,-2.796521250000001828e+02,-2.931833750000001828e+02,-3.075427500000001828e+02,-3.212771250000001828e+02,-3.343865000000001828e+02,-3.469958750000001828e+02,-3.575427500000001828e+02,-3.675583750000001828e+02,-3.755740000000001828e+02,-3.825271250000002965e+02,-3.883865000000002965e+02,-3.929646250000002965e+02,-3.961365000000002965e+02,-3.989646250000003533e+02,-4.012615000000003533e+02,-4.030740000000003533e+02,-4.061365000000003533e+02,-4.078865000000003533e+02,-4.098552500000003533e+02,-4.117146250000003533e+02,-4.137771250000003533e+02,-4.163708750000003533e+02,-4.189490000000003533e+02,-4.202615000000003533e+02,-4.209333750000003533e+02,-4.226208750000003533e+02,-4.235740000000003533e+02,-4.243552500000003533e+02,-4.253396250000003533e+02,-4.248396250000003533e+02,-4.244958750000003533e+02,-4.258240000000003533e+02,-4.270427500000003533e+02,-4.278240000000003533e+02,-4.290115000000003533e+02,-4.302615000000003533e+02,-4.314177500000003533e+02,-4.338865000000003533e+02,-4.362927500000003533e+02,-4.374490000000003533e+02,-4.384802500000003533e+02,-4.395583750000003533e+02,-4.402302500000003533e+02,-4.400115000000003533e+02,-4.394021250000003533e+02,-4.370115000000003533e+02,-4.340271250000003533e+02,-4.307615000000003533e+02,-4.262302500000003533e+02,-4.207927500000003533e+02,-4.149177500000003533e+02,-4.096990000000003533e+02,-4.040115000000003533e+02,-4.003396250000003533e+02,-3.967146250000003533e+02,-3.945583750000003533e+02,-3.950427500000003533e+02,-3.964646250000003533e+02,-3.988396250000003533e+02,-4.024958750000003533e+02,-4.072771250000003533e+02,-4.107771250000003533e+02,-4.156521250000003533e+02,-4.199646250000003533e+02,-4.229177500000003533e+02,-4.263240000000003533e+02,-4.295896250000003533e+02,-4.317615000000003533e+02,-4.337771250000003533e+02,-4.366833750000003533e+02,-4.386677500000003533e+02,-4.404021250000003533e+02,-4.421521250000003533e+02,-4.432615000000003533e+02,-4.441365000000003533e+02,-4.450271250000003533e+02,-4.455740000000003533e+02,-4.455896250000003533e+02,-4.455740000000003533e+02,-4.449802500000003533e+02,-4.434802500000003533e+02,-4.416677500000003533e+02,-4.381990000000003533e+02,-4.331208750000003533e+02,-4.267146250000003533e+02,-4.186677500000002965e+02,-4.088552500000002965e+02,-3.977458750000002965e+02,-3.864333750000002965e+02,-3.735271250000001828e+02,-3.606052500000001828e+02,-3.474021250000001828e+02,-3.341365000000001828e+02,-3.209021250000001828e+02,-3.075115000000001828e+02,-2.946677500000001828e+02,-2.807615000000001828e+02,-2.670583750000001828e+02,-2.544021250000001828e+02,-2.420896250000001828e+02,-2.286208750000001828e+02,-2.143552500000001828e+02,-1.997458750000001828e+02,-1.845583750000001544e+02,-1.705583750000001260e+02,-1.561521250000000975e+02,-1.396208750000000975e+02,-1.239021250000000975e+02,-1.094646250000000975e+02,-9.641775000000009754e+01,-8.477712500000006912e+01,-7.340212500000005491e+01,-6.138650000000005491e+01,-5.005837500000004070e+01,-4.026150000000004070e+01,-2.910525000000002649e+01,-1.698025000000001938e+01,-3.699000000000013610e+00,1.022287499999999483e+01,2.478537500000000193e+01,4.033225000000001614e+01,5.580100000000002325e+01,7.181662500000003035e+01,8.755100000000004457e+01,1.025197500000000730e+02,1.172072500000000730e+02,1.321760000000000730e+02,1.466447500000000730e+02,1.603322500000000730e+02,1.751447500000001014e+02,1.905041250000001583e+02,2.058166250000001583e+02,2.205510000000001583e+02,2.345822500000001583e+02,2.489572500000001583e+02,2.623010000000001583e+02,2.752697500000001583e+02,2.866760000000001583e+02,2.970510000000001583e+02,3.074103750000001583e+02,3.186760000000001583e+02,3.310353750000001583e+02,3.431603750000001583e+02,3.568010000000001583e+02,3.712072500000001583e+02,3.870353750000002719e+02,4.027228750000002719e+02,4.181603750000002719e+02,4.333478750000002719e+02,4.466760000000003288e+02,4.593635000000002719e+02,4.707072500000002719e+02,4.802853750000002719e+02,4.884885000000002719e+02,4.970666250000002719e+02,5.050822500000002719e+02,5.125666250000002719e+02,5.206603750000002719e+02,5.276603750000002719e+02,5.340822500000002719e+02,5.403635000000002719e+02,5.457228750000002719e+02,5.496135000000002719e+02,5.525822500000002719e+02,5.545197500000002719e+02,5.554416250000002719e+02,5.561916250000002719e+02,5.566135000000002719e+02,5.567072500000002719e+02,5.567697500000002719e+02,5.568322500000002719e+02,5.568947500000002719e+02,5.569885000000002719e+02,5.570666250000002719e+02,5.571447500000002719e+02,5.572228750000002719e+02,5.573478750000002719e+02,5.574728750000002719e+02,5.575978750000002719e+02,5.577072500000002719e+02,5.577853750000002719e+02,5.578791250000002719e+02,5.579885000000002719e+02,5.580822500000002719e+02,5.581447500000002719e+02,5.581916250000002719e+02,5.582228750000002719e+02,5.582697500000002719e+02,5.583322500000002719e+02,5.583791250000002719e+02,5.584103750000002719e+02,5.584416250000002719e+02,5.584728750000002719e+02,5.585041250000002719e+02,5.585353750000002719e+02,5.585510000000002719e+02,5.585353750000002719e+02,5.584885000000002719e+02,5.584572500000002719e+02,5.584103750000002719e+02,5.583791250000002719e+02,5.583478750000002719e+02,5.583322500000002719e+02,5.583166250000002719e+02,5.583166250000002719e+02,5.583791250000002719e+02,5.584103750000002719e+02,5.584728750000002719e+02,5.585197500000002719e+02,5.585666250000002719e+02,5.585822500000002719e+02,5.585822500000002719e+02,5.585978750000002719e+02,5.585822500000002719e+02,5.585822500000002719e+02,5.585510000000002719e+02,5.585041250000002719e+02,5.584416250000002719e+02,5.583635000000002719e+02,5.583010000000002719e+02,5.582072500000002719e+02,5.580822500000002719e+02,5.579416250000002719e+02,5.578010000000002719e+02,5.576291250000002719e+02,5.574416250000002719e+02,5.572697500000002719e+02,5.570041250000002719e+02,5.566447500000002719e+02,5.562072500000002719e+02,5.551291250000002719e+02,5.530197500000002719e+02,5.493635000000002719e+02,5.438010000000002719e+02,5.365197500000002719e+02,5.266291250000002719e+02,5.144728750000002719e+02,4.996291250000002719e+02,4.822072500000002719e+02,4.630666250000002719e+02,4.425822500000002719e+02,4.214103750000002719e+02,3.999103750000002719e+02,3.815978750000002719e+02,3.660353750000001583e+02,3.487228750000001583e+02,3.299572500000001583e+02,3.084572500000001583e+02,2.861135000000001583e+02,2.623010000000001583e+02,2.352541250000001583e+02,2.014260000000001298e+02,1.601916250000001014e+02,1.224416250000000730e+02,8.958225000000004457e+01,6.220725000000003035e+01,3.798850000000001614e+01,1.759787500000000193e+01,1.800999999999989498e+00,-8.074000000000015831e+00,-1.165212500000001938e+01,-1.473025000000002116e+01,-1.938650000000002294e+01,-2.385525000000002649e+01,-2.813650000000003359e+01,-3.324587500000003359e+01,-3.735525000000003359e+01,-4.146462500000004070e+01,-4.504275000000004070e+01,-4.857400000000005491e+01,-4.980837500000005491e+01,-5.162087500000005491e+01,-5.232400000000005491e+01,-5.110525000000005491e+01,-4.985525000000005491e+01,-4.763650000000005491e+01,-4.454275000000004070e+01,-4.041775000000004070e+01,-3.851150000000003359e+01,-3.630837500000003359e+01,-3.665212500000003359e+01,-3.865212500000003359e+01,-4.168337500000004070e+01,-4.658962500000005491e+01,-5.332400000000005491e+01,-6.266775000000005491e+01,-7.154275000000005491e+01,-8.201150000000006912e+01,-9.069900000000008333e+01,-9.908962500000009754e+01,-1.078240000000000975e+02,-1.158396250000000975e+02,-1.235427500000000975e+02,-1.288396250000000975e+02,-1.330740000000000975e+02,-1.357771250000000975e+02,-1.390271250000000975e+02,-1.423552500000000975e+02,-1.454958750000000975e+02,-1.492146250000000975e+02,-1.524021250000000975e+02,-1.565896250000000975e+02,-1.627302500000000975e+02,-1.694802500000000975e+02,-1.758552500000000975e+02,-1.824490000000001260e+02,-1.889646250000001544e+02,-1.943552500000001828e+02,-2.002927500000001828e+02,-2.062458750000001828e+02,-2.106833750000001828e+02,-2.141990000000001828e+02,-2.175740000000001828e+02,-2.204021250000001828e+02,-2.222927500000001828e+02,-2.242927500000001828e+02,-2.250740000000001828e+02,-2.256677500000001828e+02,-2.256990000000001828e+02,-2.256208750000001828e+02,-2.263708750000001828e+02,-2.272146250000001828e+02,-2.288708750000001828e+02,-2.309021250000001828e+02,-2.333083750000001828e+02,-2.354333750000001828e+02,-2.381990000000001828e+02,-2.420583750000001828e+02,-2.443865000000001828e+02,-2.464177500000001828e+02,-2.466990000000001828e+02,-2.463240000000001828e+02,-2.443396250000001828e+02,-2.402146250000001828e+02,-2.345583750000001828e+02,-2.256208750000001828e+02,-2.160896250000001828e+02,-2.042927500000001828e+02,-1.925583750000001828e+02
8.484375000000005329e+00,1.342187500000000888e+01,1.509375000000000888e+01,1.562500000000001066e+01,8.140625000000005329e+00,3.156250000000001776e+00,-9.375000000000022204e-02,-1.015625000000000444e+00,1.546875000000001332e+00,4.531250000000003553e+00,4.218750000000003553e+00,7.968750000000004441e-01,1.171875000000000888e+00,-6.875000000000004441e-01,6.875000000000004441e-01,3.156250000000002220e+00,-1.765625000000001332e+00,-3.453125000000002665e+00,-5.750000000000003553e+00,-7.453125000000004441e+00,-3.234375000000001776e+00,-1.218750000000000444e+00,1.437500000000000888e+00,3.328125000000002220e+00,3.906250000000002220e+00,3.859375000000001776e+00,1.250000000000000888e+00,9.531250000000007772e-01,-1.546875000000000888e+00,-3.062500000000001776e+00,-1.390625000000000888e+00,-2.656250000000001776e+00,-2.187500000000001776e+00,1.093750000000000444e+00,3.593750000000000000e-01,1.843750000000001110e+00,3.875000000000002665e+00,-1.093750000000000000e-01,1.671875000000000666e+00,1.015625000000000000e+00,-1.531250000000001332e+00,1.531250000000000666e+00,-7.500000000000006661e-01,-1.531250000000001332e+00,-3.437500000000003331e-01,-1.062500000000000666e+00,7.812500000000004441e-01,2.250000000000001776e+00,2.765625000000001776e+00,6.718750000000003331e-01,-2.218750000000001776e+00,-3.640625000000002665e+00,-4.671875000000003553e+00,-2.171875000000001332e+00,8.593750000000004441e-01,1.859375000000000888e+00,1.593750000000000888e+00,-4.218750000000003331e-01,-1.906250000000001332e+00,-1.750000000000000888e+00,1.484375000000000888e+00,4.890625000000002665e+00,5.796875000000003553e+00,4.890625000000003553e+00,-1.312500000000001554e+00,-5.375000000000003553e+00,-6.343750000000003553e+00,-5.937500000000003553e+00,6.249999999999977796e-02,2.125000000000001332e+00,2.234375000000001332e+00,1.312500000000000888e+00,-2.421875000000001776e+00,-3.187500000000002220e+00,-1.593750000000001110e+00,1.640625000000000888e+00,6.109375000000003553e+00,1.006250000000000711e+01,8.468750000000005329e+00,6.015625000000005329e+00,-4.218750000000000000e-01,-7.890625000000005329e+00,-7.156250000000005329e+00,-8.125000000000005329e+00,-1.687500000000000000e+00,5.625000000000004441e+00,4.750000000000003553e+00,6.687500000000005329e+00,7.812500000000004441e-01,-5.343750000000003553e+00,-4.953125000000003553e+00,-5.625000000000003553e+00,-1.562500000000000000e-01,4.937500000000003553e+00,4.593750000000002665e+00,3.921875000000002665e+00,-1.796875000000001554e+00,-6.593750000000004441e+00,-6.312500000000004441e+00,-6.625000000000005329e+00,-7.968750000000008882e-01,3.937500000000001776e+00,6.578125000000003553e+00,1.067187500000000711e+01,6.796875000000004441e+00,4.093750000000002665e+00,-1.515625000000000444e+00,-7.765625000000005329e+00,-6.171875000000005329e+00,-5.312500000000003553e+00,-2.343750000000004441e-01,2.906250000000001776e+00,1.578125000000000888e+00,-1.250000000000002220e-01,-3.531250000000002220e+00,-1.812500000000000888e+00,2.968750000000000555e-01,2.671875000000001332e+00,5.750000000000003553e+00,2.953125000000001776e+00,7.656250000000005551e-01,-6.093750000000003331e-01,-4.406250000000003553e+00,-4.296875000000003553e+00,-4.718750000000003553e+00,-5.281250000000003553e+00,-2.359375000000001332e+00,-1.546875000000000666e+00,2.000000000000001332e+00,5.625000000000003553e+00,8.000000000000003553e+00,1.107812500000000533e+01,1.020312500000000533e+01,6.562500000000003553e+00,1.875000000000000000e-01,-3.843750000000002665e+00,-6.562500000000003553e+00,-5.781250000000003553e+00,4.218750000000002220e-01,5.468750000000002220e-01,2.015625000000000888e+00,2.031250000000000888e+00,-4.078125000000002665e+00,-3.125000000000002220e+00,-4.187500000000002665e+00,-4.093750000000002665e+00,-2.812500000000001665e-01,-1.171875000000000666e+00,6.093750000000003331e-01,-1.343750000000000888e+00,-2.671875000000001776e+00,-1.156250000000000888e+00,-2.843750000000002220e+00,1.140625000000000000e+00,3.250000000000001776e+00,1.031250000000000444e+00,1.843750000000000888e+00,-8.281250000000008882e-01,-4.546875000000003553e+00,-1.625000000000000888e+00,-1.484375000000000888e+00,-1.437500000000000666e+00,3.390625000000001776e+00,2.187500000000000888e+00,3.515625000000001776e+00,4.843750000000002665e+00,-2.968750000000000000e-01,-2.640625000000001332e+00,-6.734375000000003553e+00,-7.906250000000003553e+00,-3.859375000000002665e+00,-6.562500000000005551e-01,3.125000000000001776e+00,1.546875000000000888e+00,-3.640625000000001776e+00,-6.578125000000003553e+00,-8.546875000000005329e+00,-5.000000000000002665e+00,3.625000000000002220e+00,8.437500000000005329e+00,9.875000000000005329e+00,9.734375000000005329e+00,2.593750000000001332e+00,-2.484375000000001776e+00,-1.828125000000001110e+00,-5.671875000000003553e+00,-4.578125000000002665e+00,-8.906250000000002220e-01,-4.125000000000002665e+00,4.531250000000004441e-01,3.937500000000002665e+00,9.375000000000006661e-01,5.109375000000003553e+00,1.640625000000001332e+00,-9.375000000000000000e-01,2.890625000000001776e+00,1.562499999999988898e-02,3.781250000000001776e+00,3.984375000000001776e+00,6.249999999999955591e-02,1.296875000000000444e+00,-2.640625000000002220e+00,-4.062500000000003553e+00,-2.218750000000001776e+00,-3.140625000000002220e+00,-3.046875000000001776e+00,-4.375000000000003331e-01,-7.656250000000005551e-01,-7.812500000000000000e-02,5.125000000000003553e+00,4.656250000000003553e+00,4.015625000000002665e+00,3.671875000000002665e+00,-4.015625000000002665e+00,-5.265625000000002665e+00,-2.046875000000000888e+00,-1.156250000000000444e+00,6.265625000000005329e+00,7.031250000000006217e+00,2.515625000000001776e+00,-4.062500000000000000e-01,-6.984375000000005329e+00,-8.984375000000007105e+00,-8.812500000000007105e+00,-5.750000000000004441e+00,-7.187500000000005551e-01,2.906250000000001776e+00,6.593750000000004441e+00,4.703125000000003553e+00,-2.656250000000001110e-01,-5.265625000000004441e+00,-8.218750000000007105e+00,-6.218750000000003553e+00,-1.328125000000000888e+00,4.546875000000003553e+00,5.765625000000003553e+00,4.375000000000003553e+00,3.046875000000002220e+00,9.843750000000005551e-01,1.468750000000000888e+00,8.125000000000004441e-01,-6.250000000000011102e-02,-2.156250000000001332e+00,-2.250000000000001332e+00,1.437500000000001332e+00,1.437500000000001332e+00,2.250000000000001332e+00,6.718750000000004441e-01,-4.156250000000002665e+00,-3.734375000000002665e+00,-1.125000000000000666e+00,-5.781250000000004441e-01,1.250000000000000666e+00,2.046875000000001332e+00,-1.203125000000000888e+00,1.156250000000000666e+00,3.656250000000002665e+00,1.140625000000000666e+00,2.515625000000001332e+00,-8.750000000000013323e-01,-5.000000000000003553e+00,-1.156250000000000888e+00,-8.593750000000007772e-01,1.015625000000000222e+00,3.734375000000001776e+00,2.343749999999997780e-01,1.437500000000000888e+00,2.500000000000001776e+00,2.421875000000001332e+00,2.812500000000001776e+00,-2.906250000000002220e+00,-8.703125000000005329e+00,-1.325000000000000711e+01,-1.314062500000000711e+01,-8.250000000000003553e+00,-1.421875000000000222e+00,5.468750000000005329e+00,8.875000000000007105e+00,1.154687500000000711e+01,1.253125000000001066e+01,1.146875000000000711e+01,9.750000000000007105e+00,5.843750000000003553e+00,-8.125000000000006661e-01,-3.937500000000002665e+00,-5.312500000000003553e+00,-5.281250000000003553e+00,1.093750000000001110e+00,2.718750000000002220e+00,2.578125000000002220e+00,4.265625000000003553e+00,4.218750000000004441e-01,3.187500000000001776e+00,9.203125000000005329e+00,1.062500000000000711e+01,1.329687500000000888e+01,7.687500000000005329e+00,-5.468749999999995559e-01,-3.328125000000001332e+00,-4.046875000000002665e+00,3.687500000000002665e+00,9.953125000000007105e+00,1.176562500000000711e+01,1.353125000000001066e+01,7.921875000000006217e+00,7.421875000000005329e+00,1.028125000000000711e+01,9.515625000000005329e+00,1.373437500000000711e+01,1.060937500000000711e+01,2.000000000000000888e+00,-6.359375000000004441e+00,-1.945312500000001066e+01,-2.718750000000001776e+01,-2.925000000000002132e+01,-2.695312500000001776e+01,-1.939062500000001421e+01,-1.209375000000000888e+01,-6.078125000000003553e+00,-2.296875000000001776e+00,-7.812500000000004441e-01,-1.406250000000000833e-01,-6.250000000000004163e-02,-6.250000000000004163e-02,0.000000000000000000e+00,1.562500000000001041e-02,1.093750000000000833e-01,2.187500000000001665e-01,2.343750000000001665e-01,2.656250000000002220e-01,1.406250000000001110e-01,-3.125000000000000694e-02,-1.406250000000000833e-01,-2.500000000000001665e-01,-1.875000000000001110e-01,-9.375000000000006939e-02,-1.562500000000001388e-02,6.250000000000004163e-02,-6.938893903907228378e-18,-2.484375000000001332e+00,-7.453125000000003553e+00,-1.354687500000000711e+01,-2.095312500000001421e+01,-2.110937500000001421e+01,-1.414062500000000888e+01,-5.937500000000003553e+00,6.046875000000005329e+00,7.281250000000005329e+00,-4.171875000000003553e+00,-1.978125000000001421e+01,-4.931250000000004263e+01,-7.506250000000005684e+01,-8.718750000000005684e+01,-8.818750000000005684e+01,-5.910937500000002842e+01,-1.325000000000000000e+01,3.375000000000003553e+01,7.684375000000005684e+01,9.620312500000005684e+01,9.223437500000005684e+01,7.525000000000002842e+01,4.985937500000002842e+01,2.676562500000001421e+01,1.207812500000000711e+01,3.593750000000002665e+00,4.218750000000002776e-01,1.562500000000001110e-01,1.875000000000001665e-01,3.125000000000002220e-01,3.750000000000002776e-01,3.437500000000002220e-01,2.812500000000001665e-01,1.718750000000001110e-01,-1.562500000000000000e-02,-9.375000000000005551e-02,-1.562500000000001110e-01,-1.093750000000000694e-01,-1.562500000000001041e-02,1.562500000000001041e-02,4.687500000000002776e-02,-3.125000000000002776e-02,-7.812500000000005551e-02,-1.093750000000000833e-01,-1.250000000000000833e-01,-7.812500000000005551e-02,4.687500000000004857e-02,1.562500000000001110e-01,2.031250000000001388e-01,2.187500000000001665e-01,-1.562499999999998612e-02,-1.718750000000001110e-01,-2.187500000000001110e-01,-2.031250000000001110e-01,9.375000000000004163e-02,2.343750000000001665e-01,2.656250000000001665e-01,2.031250000000001110e-01,-4.687500000000002082e-02,-1.250000000000000833e-01,-1.406250000000001110e-01,-9.375000000000006939e-02,1.562500000000001041e-02,-1.562500000000001735e-02,-6.250000000000005551e-02,-1.250000000000001110e-01,-1.406250000000001110e-01,-3.125000000000004163e-02,9.375000000000005551e-02,2.343750000000001665e-01,2.968750000000002220e-01,2.500000000000001665e-01,1.562500000000001110e-01,1.562500000000000694e-02,-1.093750000000000833e-01,-7.812500000000005551e-02,1.312500000000000666e+00,4.125000000000001776e+00,8.281250000000003553e+00,1.401562500000000355e+01,1.710937500000000355e+01,1.837500000000000000e+01,1.759374999999999645e+01,1.368750000000000355e+01,1.150000000000000888e+01,7.968750000000013323e+00,4.703125000000017764e+00,2.531250000000012434e+00,-4.531249999999930056e-01,-6.874999999999966693e-01,-3.906250000000001110e-01,-7.812500000000000000e-02,1.046875000000000444e+00,1.187500000000000666e+00,1.000000000000000444e+00,1.031250000000000444e+00,6.562500000000003331e-01,7.968750000000003331e-01,1.250000000000000000e-01,4.843750000000002220e-01,-8.437500000000004441e-01,-4.046875000000002665e+00,-4.031250000000002665e+00,-5.984375000000003553e+00,-5.359375000000003553e+00,-2.421875000000000888e+00,-3.984375000000002665e+00,-4.843750000000003553e+00,-5.890625000000003553e+00,-9.375000000000007105e+00,-8.843750000000007105e+00,-5.890625000000004441e+00,-4.375000000000003553e+00,6.406250000000004441e-01,2.593750000000001332e+00,1.875000000000001110e-01,-1.171875000000001110e+00,-6.078125000000003553e+00,-8.890625000000005329e+00,-8.843750000000005329e+00,-9.359375000000005329e+00,-7.656250000000005329e+00,-6.375000000000004441e+00,-5.140625000000003553e+00,-3.578125000000002665e+00,-2.453125000000001776e+00,-1.593750000000001332e+00,-1.281250000000000888e+00,-7.656250000000004441e-01,-5.312500000000003331e-01,-2.968750000000001665e-01,-1.562500000000001041e-02,-1.562500000000001041e-02,3.125000000000002082e-02,3.125000000000002082e-02,-5.625000000000003331e-01,-1.562500000000000888e+00,-3.281250000000001776e+00,-4.968750000000003553e+00,-4.703125000000003553e+00,-3.687500000000002665e+00,-3.125000000000004441e-01,1.468750000000000888e+00,-9.843750000000006661e-01,-3.343750000000002665e+00,-9.703125000000007105e+00,-1.217187500000000711e+01,-8.125000000000003553e+00,-5.359375000000002665e+00,2.937500000000002665e+00,9.687500000000007105e+00,1.067187500000000711e+01,1.335937500000000888e+01,1.067187500000000711e+01,4.937500000000003553e+00,2.421875000000001776e+00,-1.046875000000000444e+00,-2.859375000000001776e+00,-1.171875000000000666e+00,-2.406250000000001332e+00,-5.046875000000003553e+00,-4.359375000000002665e+00,-5.375000000000003553e+00,-3.390625000000002220e+00,1.156250000000001332e+00,-2.015625000000000888e+00,-6.234375000000004441e+00,-1.181250000000000711e+01,-1.807812500000001421e+01,-1.312500000000001066e+01,-3.656250000000003109e+00,5.390625000000003553e+00,1.326562500000001066e+01,8.000000000000007105e+00,-3.703125000000002220e+00,-1.565625000000001066e+01,-2.784375000000001776e+01,-2.895312500000001776e+01,-2.440625000000001421e+01,-1.781250000000001066e+01,-8.015625000000001776e+00,-1.749999999999998890e+00,4.015625000000003553e+00,1.032812500000000711e+01,1.520312500000000711e+01,1.793750000000001066e+01,1.578125000000000888e+01,9.812500000000010658e+00,9.687500000000075495e-01,-6.328124999999994671e+00,-7.218749999999991118e+00,-3.546874999999996003e+00,4.984375000000001776e+00,1.571875000000000355e+01,2.253125000000000000e+01,2.489062500000000711e+01,2.279687500000000711e+01,1.640625000000000711e+01,9.890625000000007105e+00,5.328125000000003553e+00,2.515625000000001776e+00,1.687500000000001332e+00,1.937500000000001332e+00,2.625000000000001776e+00,3.359375000000002220e+00,5.218750000000003553e+00,6.531250000000004441e+00,8.296875000000005329e+00,1.103125000000000355e+01,1.101562500000000000e+01,1.342187499999999645e+01,1.284374999999999289e+01,9.875000000000000000e+00,1.006250000000000711e+01,4.609375000000010658e+00,1.000000000000014655e+00,-2.046874999999992450e+00,-9.109375000000000000e+00,-1.270312500000000711e+01,-1.490625000000001066e+01,-1.548437500000001066e+01,-1.162500000000000711e+01,-4.718750000000002665e+00,-6.875000000000002220e-01,1.703125000000001554e+00,5.156250000000006661e-01,-7.703125000000005329e+00,-1.201562500000000711e+01,-1.418750000000000888e+01,-1.387500000000000888e+01,-5.515625000000003553e+00,-7.500000000000005551e-01,1.859375000000000888e+00,4.671875000000002665e+00,3.093750000000001776e+00,4.578125000000003553e+00,6.781250000000005329e+00,8.312500000000005329e+00,6.546875000000003553e+00,1.546875000000000222e+00,-4.843750000000007772e-01,-7.125000000000005329e+00,-6.062500000000005329e+00,-2.625000000000001776e+00,-7.031250000000005329e+00,-1.156250000000000888e+00,-7.968750000000008882e-01,-1.468750000000001332e+00,5.921875000000003553e+00,2.828125000000002220e+00,1.312500000000000888e+00,-1.062500000000000888e+00,-6.156250000000003553e+00,-4.859375000000003553e+00,-4.343750000000002665e+00,-1.140625000000000444e+00,-2.031249999999997780e-01,-4.843750000000001110e-01,6.875000000000002220e-01,1.140625000000000666e+00,6.421875000000003553e+00,7.421875000000004441e+00,9.359375000000007105e+00,7.593750000000005329e+00,-2.468750000000002220e+00,-3.843750000000003109e+00,-1.025000000000000533e+01,-1.046875000000000533e+01,2.031250000000001776e+00,4.296875000000003553e+00,1.301562500000000711e+01,1.618750000000001066e+01,8.093750000000003553e+00,8.218750000000003553e+00,2.593750000000001332e+00,-1.703125000000000888e+00,-2.265625000000000888e+00,-5.484375000000003553e+00,-4.281250000000002665e+00,1.562499999999977796e-02,3.625000000000002220e+00,4.078125000000002665e+00,2.359375000000001776e+00,-3.171875000000002220e+00,-6.734375000000005329e+00,-4.812500000000003553e+00,-2.937500000000001776e+00,7.968750000000006661e-01,4.437500000000003553e+00,3.109375000000002220e+00,2.062500000000001332e+00,1.671875000000000888e+00,-1.015625000000000444e+00,-8.906250000000004441e-01,6.250000000000004441e-01,9.375000000000019429e-02,1.531250000000000888e+00,2.671875000000001332e+00,9.843750000000004441e-01,5.468750000000002220e-01,3.906250000000002220e-01,-3.124999999999955591e-02,2.375000000000001776e+00,6.703125000000003553e+00,7.234375000000005329e+00,7.781250000000005329e+00,6.437500000000003553e+00,4.687500000000006661e-01,1.093750000000000444e+00,1.812500000000001776e+00,3.609375000000003553e+00,8.421875000000007105e+00,4.828125000000004441e+00,-3.124999999999955591e-02,-5.281250000000003553e+00,-1.159375000000000711e+01,-9.921875000000007105e+00,-6.640625000000005329e+00,-4.718750000000003553e+00,-2.656250000000000000e-01,1.156250000000000444e+00,1.375000000000000666e+00,4.578125000000002665e+00,4.546875000000002665e+00,8.437500000000005551e-01,-7.968750000000006661e-01,-5.687500000000003553e+00,-9.890625000000007105e+00,-7.156250000000005329e+00,-7.828125000000005329e+00,-6.750000000000005329e+00,-3.046875000000002665e+00,-5.687500000000003553e+00,-4.421875000000002665e+00,-1.437500000000000888e+00,-3.109375000000001776e+00,5.625000000000000000e-01,1.375000000000000666e+00,-9.375000000000006661e-01,1.750000000000000888e+00,2.812500000000000000e-01,2.031249999999997780e-01,9.531250000000003331e-01,-8.281250000000006661e-01,-6.250000000000004441e-01,-1.875000000000001332e+00,-1.453125000000001110e+00,-2.328125000000001332e+00,-3.500000000000001776e+00,-9.062500000000002220e-01,-7.968750000000001110e-01,1.453125000000001332e+00,3.921875000000002665e+00,1.062500000000000888e+00,3.437500000000003331e-01,1.875000000000003331e-01,-7.500000000000002220e-01,1.750000000000001332e+00,2.781250000000001776e+00,1.250000000000000888e+00,3.437500000000000000e-01,-1.812500000000001554e+00,-3.218750000000002665e+00,-3.078125000000002665e+00,-3.281250000000002665e+00,-2.750000000000001776e+00,-2.484375000000001776e+00,-3.312500000000002665e+00,-3.921875000000002665e+00,-4.500000000000003553e+00,-5.906250000000003553e+00,-3.968750000000002665e+00,-1.781250000000000888e+00,-6.249999999999955591e-02,5.250000000000003553e+00,7.015625000000004441e+00,8.390625000000003553e+00,1.054687500000000533e+01,8.656250000000005329e+00,6.515625000000004441e+00,5.328125000000003553e+00,2.046875000000000888e+00,-1.359375000000001110e+00,-1.859375000000001332e+00,-4.359375000000003553e+00,-5.109375000000003553e+00,-2.531250000000001776e+00,-1.562500000000001332e+00,5.156250000000003331e-01,2.500000000000001776e+00,1.640625000000001332e+00,-2.031249999999997780e-01,-1.531250000000000888e+00,-3.046875000000001776e+00,-3.234375000000002220e+00,-1.812500000000001332e+00,-1.062500000000000888e+00,-4.218750000000003331e-01,-1.250000000000001110e-01,-4.218750000000002776e-01,-3.750000000000002220e-01,-7.812500000000004441e-01,-2.031250000000000888e+00,-3.593750000000001776e+00,-7.000000000000003553e+00,-9.828125000000007105e+00,-1.048437500000000711e+01,-1.146875000000000888e+01,-7.593750000000005329e+00,-3.078125000000001776e+00,-5.156249999999993339e-01,4.390625000000003553e+00,3.281250000000002665e+00,1.015625000000000444e+00,-5.000000000000013323e-01,-4.796875000000004441e+00,-3.812500000000003553e+00,-1.343750000000001110e+00,4.375000000000001110e-01,3.984375000000002220e+00,4.328125000000002665e+00,1.828125000000001110e+00,8.593750000000006661e-01,-2.031250000000000888e+00,-6.390625000000005329e+00,-7.265625000000005329e+00,-8.078125000000005329e+00,-5.421875000000003553e+00,2.984375000000003109e+00,9.578125000000007105e+00,1.226562500000000711e+01,1.134375000000000888e+01,5.703125000000004441e+00,-1.734375000000000444e+00,-3.437500000000001776e+00,-3.890625000000002220e+00,-4.062500000000002665e+00,9.375000000000000000e-02,-1.718750000000001332e+00,-3.562500000000002665e+00,-3.546875000000001776e+00,-8.046875000000003553e+00,-6.031250000000003553e+00,-2.125000000000000888e+00,4.687499999999977796e-02,7.125000000000003553e+00,8.906250000000003553e+00,5.906250000000003553e+00,4.687500000000002665e+00,-2.531250000000001332e+00,-7.406250000000004441e+00,-6.218750000000003553e+00,-7.390625000000003553e+00,-2.140625000000000888e+00,3.500000000000001776e+00,5.031250000000003553e+00,9.968750000000007105e+00,9.500000000000007105e+00,5.906250000000003553e+00,3.500000000000001332e+00,-2.187500000000002220e+00,-5.484375000000004441e+00,-4.000000000000003553e+00,-4.296875000000002665e+00,-3.609375000000000888e+00,-2.812500000000000888e+00,-7.031250000000004441e+00,-6.546875000000004441e+00,-4.046875000000003553e+00,-8.593750000000008882e-01,8.453125000000005329e+00,1.375000000000000888e+01,1.462500000000001421e+01,1.334375000000001421e+01,5.328125000000013323e+00,-3.124999999999987566e+00,-6.265624999999997335e+00,-7.656250000000005329e+00,-4.453125000000009770e+00,2.140624999999987121e+00,5.015624999999992895e+00,7.343749999999996447e+00,8.062500000000001776e+00,5.953125000000004441e+00,4.875000000000003553e+00,3.468750000000002220e+00,1.968750000000001332e+00,1.296875000000000888e+00,6.093750000000004441e-01,1.875000000000001110e-01,-3.125000000000002776e-02,-1.562500000000001110e-01,-1.562500000000001110e-01,-9.375000000000006939e-02,-3.469446951953614189e-18,4.687500000000003469e-02,3.125000000000002776e-02,-4.687500000000003469e-02,-4.687500000000004163e-02,-4.687500000000004163e-02,-4.687500000000004857e-02,3.125000000000002082e-02,1.562500000000001388e-02,4.687500000000002776e-02,1.250000000000000833e-01,9.375000000000005551e-02,9.375000000000005551e-02,4.687500000000002776e-02,-4.687500000000002776e-02,-3.125000000000002082e-02,-3.125000000000002082e-02,-1.562500000000001041e-02,1.562500000000001041e-02,-1.562500000000001041e-02,1.562500000000001041e-02,4.687500000000002776e-02,7.812500000000005551e-02,1.250000000000000833e-01,7.812500000000005551e-02,6.250000000000004163e-02,3.125000000000002776e-02,1.562500000000001041e-02,4.687500000000002776e-02,-4.687500000000002776e-02,-9.375000000000006939e-02,-2.031250000000001665e-01,-2.656250000000002220e-01,-1.406250000000001110e-01,-4.687500000000004163e-02,1.406250000000001110e-01,2.187500000000001665e-01,1.718750000000001388e-01,9.375000000000008327e-02,-3.125000000000002082e-02,-4.687500000000002776e-02,-3.125000000000002082e-02,3.125000000000002776e-02,6.250000000000004163e-02,4.687500000000002776e-02,4.687500000000002776e-02,6.250000000000005551e-02,1.250000000000000833e-01,1.562500000000001110e-01,1.562500000000001110e-01,4.687500000000004163e-02,-6.250000000000002776e-02,-7.812500000000005551e-02,-7.812500000000008327e-02,9.375000000000005551e-02,2.968750000000001665e-01,4.062500000000002776e-01,5.937500000000004441e-01,1.234375000000000888e+00,2.656250000000002220e+00,5.562500000000004441e+00,1.006250000000000711e+01,1.390625000000000711e+01,1.679687500000000355e+01,1.607812500000000000e+01,1.104687499999999289e+01,6.656249999999997335e+00,9.218749999999993339e-01,-7.187499999999931166e-01,1.890625000000015987e+00,7.656250000000117684e-01,-7.343749999999917843e-01,-9.984375000000001776e+00,-2.035937500000001066e+01,-2.053125000000001066e+01,-7.781250000000003553e+00,2.406250000000001421e+01,5.256250000000002842e+01,6.504687500000004263e+01,5.018750000000002842e+01,7.859375000000003553e+00,-3.132812500000001776e+01,-5.859375000000003553e+01,-6.040625000000004263e+01,-4.350000000000002842e+01,-2.492187500000001421e+01,-5.750000000000004441e+00,1.687500000000001332e+00,6.578125000000004441e+00,8.656250000000007105e+00,3.500000000000001776e+00,2.531250000000001776e+00,-2.812500000000001332e+00,-6.203125000000003553e+00,-4.468750000000002665e+00,-4.921875000000002665e+00,-5.312500000000000000e-01,5.625000000000006661e-01,-7.812500000000000000e-02,-1.406250000000000000e-01,-5.750000000000003553e+00,-7.718750000000005329e+00,-7.781250000000005329e+00,-8.937500000000005329e+00,-3.031250000000001776e+00,1.656250000000000888e+00,4.250000000000002665e+00,1.067187500000000711e+01,1.170312500000000711e+01,1.332812500000000711e+01,1.379687500000000711e+01,9.203125000000005329e+00,4.187500000000002665e+00,-2.531250000000001332e+00,-5.156250000000003553e+00,-3.937500000000002665e+00,6.250000000000006661e-01,4.140625000000003553e+00,2.937500000000002220e+00,-2.921875000000001332e+00,-9.968750000000005329e+00,-1.242187500000000711e+01,-1.175000000000000711e+01,-4.109375000000001776e+00,1.953125000000001332e+00,4.468750000000003553e+00,7.734375000000005329e+00,4.640625000000003553e+00,3.953125000000002665e+00,4.203125000000002665e+00,1.093750000000000888e+00,1.656250000000000888e+00,2.187500000000000000e-01,-1.250000000000000666e+00,-9.218750000000006661e-01,-3.343750000000001776e+00,-3.406250000000002220e+00,-3.765625000000002665e+00,-3.765625000000002665e+00,-1.110223024625156540e-16,-5.625000000000004441e-01,-8.593750000000005551e-01,-1.656250000000000888e+00,-6.406250000000003553e+00,-5.250000000000003553e+00,-3.406250000000002665e+00,-1.125000000000001110e+00,4.046875000000002665e+00,4.859375000000003553e+00,3.953125000000002665e+00,3.671875000000002665e+00,2.265625000000001776e+00,1.171875000000000888e+00,2.171875000000001776e+00,-6.249999999999977796e-02,-2.703125000000001776e+00,-3.062500000000001776e+00,-5.531250000000003553e+00,-4.375000000000003553e+00,-3.750000000000002665e+00,-6.171875000000003553e+00,-8.296875000000005329e+00,-1.182812500000000711e+01,-1.476562500000000888e+01,-1.279687500000000711e+01,-7.593750000000003553e+00,-1.828125000000000000e+00
1.556250000000000711e+01,7.000000000000002665e+00,-3.187500000000000888e+00,5.000000000000001776e+00,9.500000000000003553e+00,5.875000000000002665e+00,-6.312500000000002665e+00,-1.731250000000000711e+01,-2.000000000000000000e+00,1.962500000000001066e+01,1.068750000000000711e+01,-7.187500000000003553e+00,-8.812500000000003553e+00,-7.500000000000003553e+00,2.312500000000001776e+00,1.512500000000000711e+01,7.562500000000002665e+00,-9.125000000000003553e+00,-1.681250000000000711e+01,-4.437500000000001776e+00,1.437500000000000711e+01,5.687500000000003553e+00,-1.218750000000000533e+01,-4.562500000000001776e+00,9.250000000000003553e+00,6.125000000000002665e+00,1.187500000000000222e+00,-2.125000000000000888e+00,-1.025000000000000533e+01,-2.500000000000000000e-01,1.406250000000000711e+01,-2.375000000000000000e+00,-1.493750000000000533e+01,1.125000000000000888e+00,9.625000000000003553e+00,2.250000000000000888e+00,-3.625000000000001332e+00,-1.625000000000000222e+00,3.875000000000001776e+00,-1.750000000000000888e+00,-1.812500000000000444e+00,6.187500000000002665e+00,-4.437500000000001776e+00,-5.937500000000002665e+00,1.062500000000000355e+01,1.375000000000000000e+00,-1.550000000000000711e+01,1.000000000000000000e+00,1.643750000000000711e+01,1.062500000000000000e+00,-7.687500000000004441e+00,-8.125000000000006661e-01,-5.437500000000001776e+00,-5.812500000000002665e+00,8.750000000000003553e+00,8.312500000000003553e+00,-6.750000000000003553e+00,-4.875000000000002665e+00,7.375000000000003553e+00,1.125000000000000888e+00,-1.218750000000000533e+01,-4.375000000000001776e+00,1.512500000000000711e+01,1.493750000000000711e+01,-4.187500000000001776e+00,-1.356250000000000711e+01,-9.437500000000005329e+00,5.625000000000000000e-01,9.312500000000003553e+00,2.250000000000000000e+00,-4.375000000000001776e+00,3.187500000000001332e+00,3.812500000000001776e+00,-6.437500000000002665e+00,-7.875000000000003553e+00,2.312500000000000888e+00,7.125000000000002665e+00,1.625000000000000222e+00,1.500000000000000666e+00,8.750000000000003553e+00,3.375000000000001332e+00,-7.312500000000003553e+00,-9.250000000000003553e+00,-8.000000000000003553e+00,1.937500000000001332e+00,7.687500000000003553e+00,4.125000000000001776e+00,5.250000000000001776e+00,-1.250000000000000444e+00,-5.312500000000001776e+00,7.500000000000003331e-01,-6.250000000000003553e+00,-1.081250000000000533e+01,6.812500000000001776e+00,1.981250000000000711e+01,3.750000000000002665e+00,-1.675000000000000711e+01,-5.812500000000003553e+00,9.000000000000003553e+00,-4.562500000000001776e+00,-1.112500000000000355e+01,4.937500000000002665e+00,1.243750000000000533e+01,6.250000000000000000e-01,-5.437500000000001776e+00,7.687500000000003553e+00,8.937500000000003553e+00,-7.000000000000003553e+00,-1.456250000000000711e+01,-9.187500000000003553e+00,7.875000000000002665e+00,1.631250000000000711e+01,8.750000000000017764e-01,-1.106250000000000355e+01,-2.375000000000000888e+00,1.750000000000001554e+00,-6.375000000000002665e+00,2.812500000000000888e+00,1.425000000000000711e+01,-1.062500000000000000e+00,-8.937500000000005329e+00,2.125000000000000888e+00,1.125000000000000888e+00,-3.312500000000001332e+00,1.562500000000000444e+00,-5.000000000000000000e-01,-9.125000000000003553e+00,-2.750000000000000888e+00,1.268750000000000533e+01,4.000000000000001776e+00,-1.281250000000000533e+01,-3.750000000000000000e-01,1.806250000000000711e+01,1.150000000000000533e+01,-5.000000000000002665e+00,-1.268750000000000711e+01,-9.000000000000003553e+00,5.500000000000002665e+00,7.312500000000003553e+00,-6.875000000000003553e+00,4.375000000000000000e-01,1.062500000000000533e+01,-2.937500000000001776e+00,-8.375000000000003553e+00,-3.062500000000001776e+00,-1.250000000000002220e-01,4.500000000000001776e+00,2.625000000000001332e+00,-5.062500000000001776e+00,-3.250000000000001332e+00,7.312500000000003553e+00,1.437500000000001776e+00,-1.137500000000000533e+01,-2.000000000000001776e+00,6.687500000000002665e+00,5.125000000000001776e+00,5.937500000000002665e+00,-6.437500000000001776e+00,-1.268750000000000533e+01,5.687500000000001776e+00,7.125000000000002665e+00,-5.937500000000002665e+00,-1.000000000000000444e+00,3.750000000000001776e+00,1.250000000000001110e-01,-1.437500000000000666e+00,3.250000000000001332e+00,1.006250000000000355e+01,-2.812500000000001776e+00,-2.131250000000001066e+01,-8.937500000000005329e+00,1.631250000000000711e+01,1.256250000000000711e+01,-7.812500000000003553e+00,-4.062500000000001776e+00,5.937500000000002665e+00,-8.062500000000003553e+00,-1.462500000000000533e+01,7.500000000000008882e-01,1.150000000000000533e+01,1.487500000000000711e+01,5.812500000000002665e+00,-1.318750000000000711e+01,-5.937500000000003553e+00,8.062500000000003553e+00,-3.562500000000001776e+00,-3.000000000000001776e+00,5.187500000000002665e+00,-5.812500000000002665e+00,-4.125000000000002665e+00,3.875000000000000888e+00,2.000000000000000888e+00,6.812500000000003553e+00,1.375000000000000888e+00,-8.500000000000003553e+00,-2.437500000000000888e+00,3.875000000000001776e+00,4.187500000000001776e+00,6.250000000000004441e-01,1.937500000000001332e+00,1.500000000000000888e+00,-9.375000000000003553e+00,-8.125000000000000000e-01,1.181250000000000533e+01,-6.937500000000003553e+00,-1.350000000000000533e+01,9.750000000000005329e+00,9.812500000000003553e+00,-8.187500000000003553e+00,-8.312500000000003553e+00,1.062500000000000000e+00,1.350000000000000711e+01,1.250000000000000711e+01,-9.375000000000003553e+00,-1.475000000000000711e+01,-4.000000000000001776e+00,2.625000000000001332e+00,1.050000000000000533e+01,5.875000000000002665e+00,-2.187500000000000888e+00,2.625000000000001332e+00,-3.812500000000002220e+00,-1.337500000000000711e+01,4.375000000000000000e-01,1.000000000000000533e+01,-8.562500000000003553e+00,-1.206250000000000533e+01,1.381250000000000711e+01,1.612500000000000711e+01,-4.687500000000001776e+00,-7.125000000000002665e+00,-3.937500000000002220e+00,-1.118750000000000533e+01,-3.875000000000001776e+00,1.400000000000000533e+01,1.118750000000000355e+01,-1.375000000000000444e+00,-6.375000000000002665e+00,-8.437500000000003553e+00,8.750000000000008882e-01,1.468750000000000711e+01,6.062500000000001776e+00,-1.268750000000000533e+01,-9.312500000000003553e+00,1.000000000000000222e+00,3.500000000000000888e+00,1.318750000000000711e+01,7.750000000000003553e+00,-1.693750000000000711e+01,-1.506250000000000711e+01,6.312500000000003553e+00,1.175000000000000533e+01,6.000000000000002665e+00,-6.062500000000002665e+00,-1.181250000000000533e+01,3.937500000000001776e+00,7.937500000000003553e+00,-3.125000000000000888e+00,4.000000000000002665e+00,6.000000000000003553e+00,-7.750000000000003553e+00,-1.037500000000000533e+01,-2.875000000000001776e+00,1.056250000000000355e+01,1.406250000000000533e+01,-5.500000000000001776e+00,-1.543750000000000711e+01,-1.812500000000000888e+00,1.156250000000000533e+01,9.312500000000003553e+00,-1.250000000000000888e+00,-4.937500000000002665e+00,-7.000000000000002665e+00,-1.212500000000000533e+01,-6.937500000000003553e+00,7.875000000000003553e+00,1.018750000000000355e+01,-8.750000000000008882e-01,-2.875000000000001332e+00,4.000000000000001776e+00,7.000000000000003553e+00,5.375000000000002665e+00,1.625000000000000888e+00,2.500000000000004996e-01,-1.312500000000000444e+00,-9.375000000000003553e+00,-6.250000000000003553e+00,7.250000000000003553e+00,3.625000000000002665e+00,-3.750000000000000000e-01,5.500000000000002665e+00,-3.750000000000000000e-01,-6.562500000000002665e+00,-5.562500000000001776e+00,2.062500000000000444e+00,2.043750000000000711e+01,1.825000000000000711e+01,-9.687500000000005329e+00,-2.212500000000001066e+01,-8.062500000000003553e+00,8.062500000000003553e+00,1.200000000000000711e+01,1.212500000000000533e+01,2.500000000000000000e+00,-1.187500000000000711e+01,-2.500000000000000000e-01,1.168750000000000711e+01,1.875000000000017764e-01,-3.750000000000000000e-01,8.437500000000001776e+00,7.875000000000003553e+00,1.687500000000002442e+00,-9.187500000000005329e+00,-1.543750000000000711e+01,-1.268750000000000533e+01,-7.750000000000002665e+00,-3.062500000000000888e+00,-3.125000000000001665e-01,2.500000000000001110e-01,0.000000000000000000e+00,-2.500000000000001110e-01,-6.250000000000002776e-02,1.250000000000000555e-01,6.250000000000002776e-02,-6.250000000000002776e-02,-1.250000000000000555e-01,0.000000000000000000e+00,1.250000000000000555e-01,1.250000000000000555e-01,1.250000000000000555e-01,6.250000000000002776e-02,6.250000000000002776e-02,0.000000000000000000e+00,-3.125000000000001110e-01,-3.125000000000001110e-01,1.250000000000000833e-01,3.125000000000001665e-01,0.000000000000000000e+00,-1.875000000000000833e-01,6.250000000000002776e-02,6.250000000000002776e-02,-1.875000000000000833e-01,-6.250000000000002776e-02,-9.687500000000003553e+00,-2.950000000000001066e+01,-1.456250000000000533e+01,3.450000000000001421e+01,3.262500000000001421e+01,-1.737500000000000711e+01,-2.793750000000001066e+01,4.750000000000001776e+00,1.306250000000000533e+01,-3.993750000000001421e+01,-7.968750000000002842e+01,-3.100000000000001421e+01,1.925000000000001066e+01,1.325000000000001599e+01,2.406250000000000711e+01,5.156250000000000711e+01,4.093750000000001421e+01,1.318750000000000533e+01,1.937500000000000888e+00,6.875000000000003331e-01,6.250000000000005551e-02,-3.750000000000001665e-01,-2.500000000000001110e-01,1.250000000000000833e-01,2.500000000000001110e-01,1.875000000000000833e-01,0.000000000000000000e+00,-6.250000000000002776e-02,1.875000000000001110e-01,2.500000000000001110e-01,0.000000000000000000e+00,-1.250000000000000555e-01,-2.500000000000001110e-01,-2.500000000000001110e-01,1.875000000000000833e-01,4.375000000000002220e-01,-6.250000000000000000e-02,-4.375000000000002220e-01,6.250000000000000000e-02,3.125000000000001110e-01,-1.875000000000000833e-01,-2.500000000000001110e-01,1.250000000000000555e-01,0.000000000000000000e+00,-6.250000000000002776e-02,3.750000000000002220e-01,3.750000000000002220e-01,-1.875000000000000833e-01,-6.250000000000003331e-01,-3.750000000000002220e-01,3.125000000000001110e-01,4.375000000000001665e-01,1.875000000000000833e-01,6.250000000000002776e-02,-1.250000000000000555e-01,-2.500000000000001110e-01,-1.875000000000000833e-01,6.250000000000002776e-02,2.500000000000001110e-01,6.250000000000002776e-02,-1.250000000000000555e-01,-6.250000000000002776e-02,-6.250000000000002776e-02,-1.875000000000000833e-01,-6.250000000000002776e-02,3.125000000000001110e-01,3.125000000000001110e-01,-6.250000000000002776e-02,-1.250000000000000555e-01,1.250000000000000555e-01,1.250000000000000555e-01,-1.875000000000001110e-01,-3.125000000000001665e-01,0.000000000000000000e+00,2.500000000000001110e-01,3.750000000000001665e-01,5.750000000000001776e+00,1.562499999999999822e+01,9.749999999999989342e+00,-8.500000000000003553e+00,-5.749999999999987566e+00,1.225000000000001421e+01,1.162500000000000533e+01,-6.125000000000003553e+00,-1.075000000000000533e+01,1.250000000000001332e+00,5.312500000000001776e+00,1.375000000000000222e+00,6.875000000000002220e-01,-3.500000000000001776e+00,-4.812500000000001776e+00,6.562500000000004441e+00,8.812500000000005329e+00,-7.250000000000005329e+00,-1.043750000000000533e+01,6.375000000000001776e+00,1.006250000000000178e+01,-1.562500000000000444e+00,-7.562500000000002665e+00,-7.625000000000003553e+00,-5.625000000000000000e-01,5.437500000000003553e+00,1.687500000000001110e+00,-6.250000000000011102e-02,-4.625000000000002665e+00,-1.000000000000000533e+01,2.250000000000000888e+00,6.875000000000003553e+00,-1.100000000000000355e+01,-1.018750000000000355e+01,1.193750000000000355e+01,1.600000000000000711e+01,-3.625000000000001776e+00,-1.781250000000000711e+01,-5.000000000000001776e+00,9.875000000000003553e+00,3.125000000000000000e-01,-1.075000000000000355e+01,-4.250000000000001776e+00,3.625000000000001332e+00,1.312500000000000444e+00,-2.312500000000000888e+00,-1.500000000000000444e+00,6.250000000000000000e-02,5.000000000000002220e-01,6.250000000000000000e-02,-3.750000000000002220e-01,-1.250000000000000833e-01,1.250000000000000555e-01,6.250000000000002776e-02,6.250000000000002776e-02,1.250000000000000555e-01,-6.250000000000002776e-02,-3.125000000000001665e-01,-1.250000000000000833e-01,-1.875000000000000888e+00,-5.750000000000002665e+00,-4.312500000000001776e+00,4.062500000000001776e+00,1.081250000000000533e+01,4.062500000000002665e+00,-1.081250000000000355e+01,-1.162500000000000533e+01,-6.437500000000003553e+00,-1.750000000000000888e+00,1.287500000000000355e+01,7.750000000000001776e+00,-1.293750000000000533e+01,5.000000000000017764e-01,2.281250000000001421e+01,8.875000000000005329e+00,-1.600000000000000711e+01,-1.431250000000000711e+01,8.687500000000003553e+00,1.400000000000000533e+01,-7.375000000000001776e+00,-1.031250000000000355e+01,7.125000000000003553e+00,9.375000000000008882e-01,-1.262500000000000711e+01,-3.750000000000002665e+00,1.112500000000000355e+01,1.512500000000000711e+01,-3.437500000000001776e+00,-2.681250000000001421e+01,-1.768750000000000711e+01,5.625000000000004441e+00,1.225000000000000711e+01,9.312500000000003553e+00,7.250000000000003553e+00,6.500000000000003553e+00,-6.750000000000001776e+00,-2.450000000000001066e+01,-1.581250000000000711e+01,1.312500000000001998e+00,-1.250000000000000000e-01,-4.937500000000004441e+00,-6.875000000000000000e-01,5.750000000000005329e+00,2.250000000000000444e+00,-6.187500000000005329e+00,4.437500000000002665e+00,2.475000000000001421e+01,1.293750000000000533e+01,-1.912500000000000711e+01,-1.493750000000000533e+01,1.012500000000000711e+01,1.375000000000007994e+00,-1.468749999999999289e+01,2.625000000000002665e+00,2.087499999999999289e+01,1.387499999999999822e+01,3.187500000000001776e+00,1.062500000000000666e+00,7.500000000000003331e-01,1.875000000000000555e-01,2.500000000000001665e-01,3.750000000000002220e-01,4.375000000000002220e-01,5.625000000000002220e-01,6.250000000000002220e-01,4.375000000000001110e-01,8.750000000000003331e-01,3.687500000000001776e+00,4.187500000000001776e+00,8.750000000000003331e-01,1.187499999999993783e+00,5.249999999999988454e+00,1.012500000000000355e+01,2.625000000000014655e+00,-1.156249999999999822e+01,2.187500000000001776e+00,1.606250000000000711e+01,-6.125000000000003553e+00,-1.812500000000000711e+01,-3.749999999999991118e-01,4.062500000000001776e+00,-9.562500000000003553e+00,-1.100000000000000533e+01,3.187500000000002220e+00,1.412500000000000711e+01,5.750000000000002665e+00,-7.500000000000003553e+00,-6.250000000000003553e+00,-8.000000000000003553e+00,-1.062500000000000533e+01,6.875000000000000000e-01,5.750000000000002665e+00,4.375000000000002665e+00,4.500000000000002665e+00,-4.187500000000001776e+00,-6.750000000000003553e+00,3.187500000000001332e+00,6.312500000000002665e+00,6.562500000000002665e+00,9.812500000000003553e+00,-5.875000000000002665e+00,-2.137500000000001066e+01,1.750000000000000000e+00,1.431250000000000711e+01,-3.125000000000000888e+00,-3.062500000000000444e+00,-5.312500000000001776e+00,-8.437500000000003553e+00,1.075000000000000533e+01,1.162500000000000533e+01,-3.562500000000001776e+00,-3.812500000000001776e+00,-2.187500000000000888e+00,-6.375000000000002665e+00,-2.312500000000000888e+00,6.062500000000002665e+00,1.250000000000000888e+00,-1.812500000000000444e+00,3.812500000000001332e+00,-4.375000000000001776e+00,-1.212500000000000355e+01,8.562500000000005329e+00,2.568750000000001421e+01,-2.250000000000000000e+00,-2.081250000000001066e+01,6.625000000000003553e+00,1.125000000000000711e+01,-1.250000000000000711e+01,-2.062500000000000711e+01,-4.687500000000001776e+00,3.156250000000001421e+01,2.762500000000001421e+01,-1.856250000000000711e+01,-2.181250000000000711e+01,8.187500000000003553e+00,1.750000000000000711e+01,5.375000000000003553e+00,-1.206250000000000355e+01,-1.756250000000000711e+01,-3.937500000000001776e+00,1.475000000000000711e+01,1.800000000000000711e+01,-4.375000000000000000e-01,-1.756250000000000711e+01,-7.375000000000002665e+00,6.375000000000002665e+00,1.250000000000004441e-01,-8.750000000000000000e-01,3.812500000000001776e+00,-1.750000000000001110e+00,2.187500000000000888e+00,7.500000000000003553e+00,-7.000000000000002665e+00,-9.937500000000003553e+00,7.750000000000003553e+00,9.312500000000003553e+00,-5.625000000000002665e+00,-9.437500000000003553e+00,4.312500000000001776e+00,1.450000000000000711e+01,-1.375000000000000000e+00,-1.800000000000000711e+01,-1.687500000000000000e+00,1.562500000000000711e+01,4.937500000000002665e+00,-3.187500000000000888e+00,1.062500000000000666e+00,3.312500000000001776e+00,3.187500000000001776e+00,-7.500000000000003553e+00,-1.143750000000000355e+01,9.125000000000003553e+00,2.181250000000000711e+01,5.687500000000003553e+00,-1.800000000000000711e+01,-1.712500000000000711e+01,3.000000000000001332e+00,5.250000000000001776e+00,-9.375000000000004441e-01,3.500000000000001776e+00,-3.750000000000001776e+00,-9.250000000000003553e+00,7.750000000000002665e+00,1.106250000000000355e+01,-3.125000000000000888e+00,-2.500000000000001332e+00,2.499999999999995559e-01,-4.687500000000001776e+00,-6.125000000000001776e+00,-4.437500000000001776e+00,5.000000000000001776e+00,5.250000000000001776e+00,-9.750000000000003553e+00,-4.437500000000001776e+00,6.250000000000002665e+00,-3.500000000000001776e+00,-3.125000000000001776e+00,6.375000000000002665e+00,3.250000000000001776e+00,-4.437500000000001776e+00,-7.250000000000003553e+00,3.437500000000001776e+00,1.200000000000000711e+01,-2.125000000000000888e+00,-1.325000000000000711e+01,6.250000000000088818e-02,1.056250000000000533e+01,-1.250000000000000000e-01,-6.000000000000002665e+00,-2.312500000000000888e+00,-4.187500000000001776e+00,2.562500000000001332e+00,9.750000000000003553e+00,4.375000000000000000e-01,-3.625000000000002220e+00,-1.937500000000001110e+00,-5.562500000000002665e+00,1.437500000000000888e+00,1.056250000000000533e+01,2.312500000000000888e+00,-7.125000000000003553e+00,-3.562500000000001776e+00,2.125000000000000888e+00,1.562500000000000888e+00,-1.062500000000000444e+00,-2.812500000000001332e+00,-3.437500000000001776e+00,1.500000000000000888e+00,5.625000000000003553e+00,-2.812500000000000444e+00,-9.687500000000003553e+00,-1.312500000000000000e+00,4.125000000000002665e+00,9.375000000000006661e-01,-1.062500000000000666e+00,-2.000000000000000888e+00,5.500000000000003553e+00,1.018750000000000533e+01,-1.437500000000000888e+00,-3.125000000000001776e+00,6.437500000000003553e+00,6.250000000000008882e-01,-3.437500000000001776e+00,3.562500000000001776e+00,-3.312500000000001776e+00,-7.500000000000003553e+00,4.125000000000001776e+00,1.812500000000000000e+00,-6.750000000000003553e+00,2.437500000000000888e+00,8.812500000000003553e+00,-4.375000000000000000e-01,-5.875000000000002665e+00,-2.625000000000000888e+00,6.250000000000005551e-02,7.500000000000004441e-01,3.750000000000002220e-01,-1.250000000000000555e-01,-1.250000000000000555e-01,-3.125000000000001110e-01,-3.750000000000001665e-01,-6.250000000000002776e-02,1.875000000000000833e-01,1.875000000000000833e-01,1.250000000000000555e-01,-2.125000000000000888e+00,-8.125000000000003553e+00,-6.437500000000001776e+00,3.375000000000001332e+00,-1.500000000000001332e+00,-7.375000000000003553e+00,7.062500000000002665e+00,1.125000000000000355e+01,-3.687500000000000888e+00,-8.187500000000003553e+00,2.375000000000000888e+00,4.500000000000001776e+00,-1.006250000000000355e+01,-8.500000000000003553e+00,1.450000000000000711e+01,1.325000000000000711e+01,-8.812500000000003553e+00,-1.006250000000000355e+01,2.062500000000000888e+00,7.562500000000003553e+00,4.000000000000000888e+00,-1.093750000000000355e+01,-1.575000000000000533e+01,-1.875000000000000000e-01,1.050000000000000355e+01,1.387500000000000711e+01,1.275000000000000533e+01,-6.250000000000003553e+00,-1.668750000000000711e+01,2.500000000000000000e+00,9.375000000000003553e+00,-5.000000000000001776e+00,-5.812500000000001776e+00,2.375000000000000888e+00,5.437500000000002665e+00,5.000000000000008882e-01,-7.312500000000002665e+00,-5.625000000000001776e+00,-3.750000000000001776e+00,8.125000000000000000e-01,1.075000000000000533e+01,2.000000000000000888e+00,-5.187500000000002665e+00,9.312500000000003553e+00,7.062500000000001776e+00,-1.125000000000000533e+01,-1.275000000000000533e+01,-9.375000000000004441e-01,8.500000000000003553e+00,2.375000000000000888e+00,-5.437500000000002665e+00,2.250000000000001776e+00,6.125000000000003553e+00,5.750000000000002665e+00,7.000000000000002665e+00,-5.187500000000002665e+00,-1.350000000000000533e+01,-1.499999999999999556e+00,6.937500000000003553e+00,3.125000000000001332e+00,-2.812500000000000888e+00,-4.500000000000001776e+00,-5.625000000000006661e-01,-4.000000000000001776e+00,-6.375000000000001776e+00,3.875000000000001776e+00,7.000000000000001776e+00,7.187500000000003553e+00,1.187500000000000711e+01,2.312500000000001776e+00,-8.437500000000003553e+00,-5.374999999999995559e+00,-5.749999999999989342e+00,-3.687500000000001776e+00,6.624999999999989342e+00,5.499999999999995559e+00,-7.500000000000002220e-01,1.500000000000000666e+00,3.250000000000001332e+00,1.187500000000000444e+00,1.250000000000000555e-01,1.875000000000000833e-01,1.875000000000000833e-01,1.250000000000000555e-01,1.250000000000000555e-01,0.000000000000000000e+00,-1.875000000000000833e-01,-2.500000000000001110e-01,-1.250000000000000555e-01,1.875000000000001110e-01,3.125000000000001665e-01,0.000000000000000000e+00,-2.500000000000001110e-01,-1.250000000000000555e-01,0.000000000000000000e+00,1.250000000000000555e-01,1.875000000000000833e-01,-1.250000000000000833e-01,-2.500000000000001110e-01,6.250000000000002776e-02,2.500000000000001110e-01,1.875000000000000833e-01,-6.250000000000002776e-02,-2.500000000000001110e-01,-6.250000000000002776e-02,1.250000000000000555e-01,6.250000000000002776e-02,0.000000000000000000e+00,0.000000000000000000e+00,-6.250000000000002776e-02,-1.250000000000000555e-01,6.250000000000002776e-02,2.500000000000001110e-01,6.250000000000002776e-02,-1.250000000000000555e-01,-6.250000000000002776e-02,0.000000000000000000e+00,0.000000000000000000e+00,1.250000000000000555e-01,1.875000000000000833e-01,-1.875000000000000833e-01,-3.750000000000001665e-01,-6.250000000000002776e-02,6.250000000000002776e-02,6.250000000000002776e-02,1.875000000000000833e-01,1.875000000000000833e-01,0.000000000000000000e+00,-1.250000000000000555e-01,-1.250000000000000555e-01,-1.250000000000000555e-01,6.250000000000002776e-02,3.125000000000001665e-01,1.250000000000000833e-01,-3.125000000000001110e-01,-2.500000000000001110e-01,2.500000000000001110e-01,3.125000000000001110e-01,-6.250000000000002776e-02,-6.250000000000002776e-02,1.875000000000000833e-01,-1.250000000000000555e-01,-4.375000000000002220e-01,6.250000000000000000e-02,3.750000000000001665e-01,1.250000000000000555e-01,1.250000000000000833e-01,6.250000000000005551e-02,-1.387778780781445676e-17,5.000000000000002220e-01,5.625000000000003331e-01,2.000000000000000888e+00,7.500000000000003553e+00,1.087499999999999822e+01,6.749999999999988454e+00,-1.937500000000001554e+00,-7.062499999999989342e+00,-1.687499999999993339e+00,1.375000000000001332e+00,-5.000000000000001110e-01,6.062500000000002665e+00,6.125000000000002665e+00,-3.437500000000001776e+00,-9.750000000000005329e+00,-2.400000000000001066e+01,-3.400000000000001421e+01,9.562500000000007105e+00,8.837500000000004263e+01,8.231250000000002842e+01,-2.037500000000000711e+01,-7.693750000000002842e+01,-4.281250000000001421e+01,3.750000000000008882e-01,5.437500000000003553e+00,-4.000000000000001776e+00,-6.125000000000003553e+00,-2.437500000000001776e+00,9.500000000000003553e+00,9.500000000000003553e+00,-3.187500000000000888e+00,-1.000000000000000000e+00,1.125000000000000444e+00,-4.625000000000002665e+00,-3.250000000000001776e+00,-9.375000000000003331e-01,-1.750000000000000666e+00,1.187500000000000444e+00,7.312500000000002665e+00,6.875000000000000000e-01,-9.000000000000003553e+00,7.500000000000008882e-01,2.062500000000000888e+00,-1.150000000000000533e+01,-4.750000000000001776e+00,6.687500000000003553e+00,4.187500000000001776e+00,2.812500000000001332e+00,3.750000000000000000e-01,5.000000000000000000e-01,7.312500000000002665e+00,8.562500000000003553e+00,3.312500000000001332e+00,-1.875000000000000444e+00,-7.625000000000001776e+00,-1.187500000000000533e+01,-2.250000000000001776e+00,1.387500000000000533e+01,1.356250000000000533e+01,-1.062500000000000444e+00,-1.106250000000000711e+01,-1.306250000000000711e+01,-8.750000000000003553e+00,3.312500000000000888e+00,9.500000000000003553e+00,5.812500000000002665e+00,-1.812500000000001110e+00,-6.250000000000002665e+00,4.125000000000002665e+00,7.812500000000003553e+00,-3.937500000000001332e+00,-1.750000000000000000e+00,4.562500000000002665e+00,-3.875000000000000888e+00,-4.937500000000001776e+00,7.625000000000003553e+00,4.875000000000002665e+00,-1.306250000000000711e+01,-7.875000000000004441e+00,1.037500000000000355e+01,3.812500000000001776e+00,-4.812500000000001776e+00,2.375000000000001776e+00,1.625000000000000888e+00,-8.000000000000003553e+00,-9.500000000000005329e+00,3.750000000000001776e+00,1.150000000000000533e+01,-1.312500000000000888e+00,-4.312500000000001776e+00,7.875000000000003553e+00,8.125000000000008882e-01,-1.118750000000000533e+01,1.937500000000000888e+00,1.368750000000000711e+01,2.187500000000001776e+00,-1.312500000000000533e+01,-1.062500000000000355e+01,7.000000000000002665e+00,1.000000000000000355e+01,-5.062500000000002665e+00,-9.062500000000003553e+00,-4.375000000000000000e-01,1.562500000000000888e+00,-7.437500000000003553e+00,-1.443750000000000711e+01,-1.687500000000000888e+00
3.350000000000000711e+01,-4.500000000000000888e+00,-1.850000000000000355e+01,2.450000000000000711e+01,-1.525000000000000355e+01,1.250000000000000355e+01,0.000000000000000000e+00,-1.500000000000000355e+01,0.000000000000000000e+00,8.250000000000001776e+00,1.900000000000000355e+01,-3.200000000000000711e+01,2.375000000000000711e+01,-1.600000000000000355e+01,-4.750000000000000888e+00,2.200000000000000355e+01,-1.000000000000000178e+01,3.500000000000000444e+00,-7.000000000000001776e+00,-1.150000000000000355e+01,1.675000000000000355e+01,8.750000000000003553e+00,-2.500000000000000711e+01,1.475000000000000355e+01,-9.500000000000001776e+00,2.250000000000000711e+01,-3.000000000000000711e+01,3.275000000000000711e+01,-2.675000000000000711e+01,-5.000000000000000000e-01,2.050000000000000355e+01,-5.750000000000000888e+00,-1.500000000000000355e+01,3.500000000000000000e+00,1.875000000000000711e+01,-2.575000000000000711e+01,3.000000000000000711e+01,-3.500000000000000711e+01,2.975000000000000711e+01,-9.750000000000001776e+00,-1.400000000000000355e+01,2.350000000000000711e+01,-8.000000000000000000e+00,-1.850000000000000355e+01,2.425000000000000711e+01,-1.250000000000000000e+00,-1.600000000000000355e+01,-1.500000000000000000e+00,2.075000000000000355e+01,-4.750000000000000000e+00,-1.775000000000000355e+01,2.225000000000000355e+01,-1.500000000000000355e+01,-1.000000000000000000e+00,1.000000000000000000e+00,1.650000000000000355e+01,-1.800000000000000355e+01,3.250000000000000444e+00,1.000000000000000000e+00,1.250000000000000178e+01,-2.150000000000000355e+01,8.250000000000001776e+00,-3.750000000000001332e+00,2.150000000000000711e+01,-1.450000000000000355e+01,-4.500000000000000888e+00,6.000000000000001776e+00,-1.475000000000000355e+01,1.775000000000000355e+01,2.500000000000000000e-01,-1.725000000000000355e+01,2.025000000000000355e+01,-1.375000000000000355e+01,1.500000000000000355e+01,-2.600000000000000711e+01,2.300000000000000711e+01,-1.375000000000000355e+01,1.525000000000000355e+01,-1.600000000000000355e+01,1.100000000000000355e+01,1.075000000000000355e+01,-2.525000000000000711e+01,2.200000000000000355e+01,-1.975000000000000355e+01,2.500000000000000000e-01,2.275000000000000711e+01,-2.775000000000000711e+01,2.400000000000000711e+01,-4.250000000000000000e+00,-1.775000000000000355e+01,2.325000000000000355e+01,-1.475000000000000355e+01,-2.250000000000000000e+00,-2.750000000000000888e+00,1.700000000000000355e+01,-5.000000000000000000e-01,-7.500000000000001776e+00,-1.725000000000000355e+01,3.200000000000000711e+01,-1.725000000000000355e+01,-1.050000000000000355e+01,1.650000000000000355e+01,-1.050000000000000355e+01,2.200000000000000711e+01,-3.075000000000000711e+01,1.900000000000000355e+01,9.250000000000003553e+00,-1.925000000000000355e+01,1.200000000000000355e+01,-1.650000000000000355e+01,3.500000000000000000e+00,1.950000000000000711e+01,-1.350000000000000355e+01,4.750000000000000888e+00,-1.600000000000000355e+01,2.575000000000000711e+01,-2.200000000000000711e+01,-2.500000000000000000e-01,2.050000000000000711e+01,-7.000000000000002665e+00,-1.500000000000000355e+01,1.600000000000000355e+01,-2.250000000000000888e+00,-1.150000000000000355e+01,1.500000000000000355e+01,-1.125000000000000355e+01,9.500000000000001776e+00,-2.100000000000000355e+01,2.050000000000000355e+01,6.250000000000000888e+00,-2.275000000000000355e+01,8.500000000000000000e+00,5.750000000000001776e+00,9.250000000000003553e+00,-1.050000000000000355e+01,1.000000000000000000e+00,-3.750000000000000888e+00,-9.000000000000001776e+00,2.900000000000000711e+01,-2.600000000000000711e+01,-1.000000000000000000e+00,2.550000000000000711e+01,-1.925000000000000355e+01,-3.500000000000000444e+00,1.675000000000000355e+01,-2.800000000000000711e+01,3.250000000000000711e+01,-2.600000000000000711e+01,2.225000000000000711e+01,-2.450000000000000711e+01,1.575000000000000355e+01,8.000000000000000000e+00,-2.150000000000000355e+01,5.250000000000000888e+00,1.475000000000000355e+01,-2.050000000000000355e+01,2.075000000000000355e+01,-3.750000000000000000e+00,-1.850000000000000711e+01,8.250000000000003553e+00,2.150000000000000355e+01,-3.500000000000000711e+01,2.500000000000000711e+01,-8.000000000000001776e+00,-3.500000000000000888e+00,1.200000000000000355e+01,-1.950000000000000355e+01,2.225000000000000355e+01,-3.500000000000000000e+00,-1.325000000000000355e+01,-6.750000000000001776e+00,1.300000000000000355e+01,9.250000000000001776e+00,-9.500000000000001776e+00,-1.250000000000000355e+01,2.575000000000000711e+01,-1.550000000000000355e+01,-9.250000000000001776e+00,7.250000000000000888e+00,4.250000000000000888e+00,-5.000000000000000888e+00,2.075000000000000355e+01,-1.775000000000000355e+01,-1.450000000000000355e+01,3.375000000000000711e+01,-2.150000000000000355e+01,-8.500000000000003553e+00,2.825000000000000711e+01,-2.175000000000000711e+01,-6.250000000000001776e+00,2.775000000000000711e+01,-3.125000000000000711e+01,2.075000000000000355e+01,7.750000000000002665e+00,-3.100000000000000711e+01,3.125000000000000711e+01,-2.475000000000000711e+01,1.800000000000000711e+01,-2.000000000000000888e+00,-1.550000000000000355e+01,2.925000000000000711e+01,-2.625000000000000711e+01,-5.000000000000000000e-01,2.050000000000000355e+01,-6.500000000000000888e+00,-2.150000000000000355e+01,1.575000000000000355e+01,1.750000000000000355e+01,-3.300000000000000711e+01,2.475000000000000711e+01,-1.950000000000000355e+01,1.075000000000000178e+01,1.225000000000000355e+01,-6.250000000000002665e+00,-2.200000000000000355e+01,2.825000000000000711e+01,-2.725000000000000711e+01,1.775000000000000355e+01,1.200000000000000355e+01,-3.175000000000000711e+01,3.475000000000000711e+01,-2.300000000000000355e+01,9.000000000000001776e+00,-2.050000000000000355e+01,3.175000000000000711e+01,-1.525000000000000355e+01,-1.650000000000000355e+01,1.675000000000000355e+01,1.300000000000000355e+01,-1.600000000000000355e+01,0.000000000000000000e+00,8.500000000000001776e+00,-1.150000000000000355e+01,-4.750000000000000000e+00,9.250000000000001776e+00,1.350000000000000178e+01,-2.300000000000000355e+01,2.350000000000000711e+01,-2.475000000000000711e+01,1.100000000000000355e+01,-2.500000000000000000e-01,1.400000000000000355e+01,-1.500000000000000355e+01,-9.750000000000003553e+00,2.250000000000000711e+01,-2.275000000000000711e+01,1.400000000000000355e+01,1.425000000000000355e+01,-1.975000000000000355e+01,-8.750000000000003553e+00,1.475000000000000355e+01,-2.000000000000000444e+00,-5.000000000000002220e-01,1.075000000000000178e+01,-2.275000000000000711e+01,6.250000000000001776e+00,2.175000000000000711e+01,-2.850000000000000711e+01,1.300000000000000355e+01,1.325000000000000355e+01,-2.275000000000000711e+01,1.200000000000000178e+01,-8.500000000000001776e+00,-1.750000000000000000e+00,2.125000000000000711e+01,-1.025000000000000355e+01,-1.475000000000000355e+01,1.525000000000000355e+01,-1.450000000000000355e+01,2.850000000000000711e+01,-2.700000000000000711e+01,1.700000000000000355e+01,-1.050000000000000355e+01,-2.500000000000000000e-01,-5.000000000000000888e+00,-2.000000000000000000e+00,2.175000000000000355e+01,-2.325000000000000355e+01,1.625000000000000355e+01,-1.400000000000000355e+01,1.825000000000000355e+01,-1.475000000000000355e+01,1.725000000000000355e+01,-1.800000000000000355e+01,1.575000000000000355e+01,-8.250000000000001776e+00,-1.200000000000000178e+01,1.500000000000000355e+01,4.250000000000000888e+00,-2.175000000000000711e+01,2.800000000000000711e+01,-1.500000000000000355e+01,-3.250000000000000888e+00,1.125000000000000355e+01,-1.975000000000000711e+01,1.725000000000000355e+01,1.600000000000000355e+01,-1.800000000000000355e+01,-2.500000000000000000e-01,-1.100000000000000178e+01,1.300000000000000355e+01,7.500000000000000000e-01,-4.500000000000000888e+00,2.050000000000000355e+01,-2.250000000000000355e+01,-5.750000000000001776e+00,3.300000000000000711e+01,-2.900000000000000711e+01,1.025000000000000355e+01,7.500000000000001776e+00,-1.000000000000000355e+01,1.675000000000000355e+01,-1.575000000000000355e+01,1.750000000000000888e+00,-6.250000000000001776e+00,-1.000000000000000222e+00,-5.000000000000001110e-01,2.500000000000000555e-01,0.000000000000000000e+00,2.500000000000000555e-01,-5.000000000000001110e-01,2.500000000000000555e-01,0.000000000000000000e+00,0.000000000000000000e+00,0.000000000000000000e+00,0.000000000000000000e+00,-2.500000000000000555e-01,5.000000000000001110e-01,-5.000000000000001110e-01,5.000000000000001110e-01,-2.500000000000000555e-01,0.000000000000000000e+00,2.500000000000000555e-01,-2.500000000000000555e-01,-2.500000000000000555e-01,2.500000000000000555e-01,0.000000000000000000e+00,2.500000000000000555e-01,-5.000000000000001110e-01,2.500000000000000555e-01,2.500000000000000555e-01,-5.000000000000001110e-01,2.500000000000000555e-01,0.000000000000000000e+00,0.000000000000000000e+00,-3.925000000000000711e+01,3.875000000000000711e+01,2.225000000000000355e+01,-2.650000000000000355e+01,-1.275000000000000355e+01,1.275000000000000355e+01,-2.500000000000000888e+00,3.000000000000000711e+01,-9.100000000000001421e+01,2.150000000000000711e+01,2.375000000000000355e+01,-1.400000000000000355e+01,-4.499999999999985789e+00,3.849999999999999289e+01,1.500000000000000444e+00,1.250000000000000444e+00,2.500000000000000555e-01,-2.500000000000000555e-01,7.500000000000002220e-01,-1.000000000000000222e+00,5.000000000000001110e-01,-2.500000000000000555e-01,2.500000000000000555e-01,0.000000000000000000e+00,0.000000000000000000e+00,0.000000000000000000e+00,-2.500000000000000555e-01,7.500000000000002220e-01,-7.500000000000002220e-01,5.000000000000001110e-01,-2.500000000000000555e-01,-2.500000000000000555e-01,2.500000000000000555e-01,0.000000000000000000e+00,5.000000000000001110e-01,-1.000000000000000222e+00,5.000000000000001110e-01,2.500000000000000555e-01,-2.500000000000000555e-01,-2.500000000000000555e-01,2.500000000000000555e-01,2.500000000000000555e-01,-7.500000000000002220e-01,7.500000000000002220e-01,0.000000000000000000e+00,-2.500000000000000555e-01,2.500000000000000555e-01,-1.000000000000000222e+00,1.000000000000000222e+00,-2.500000000000000555e-01,0.000000000000000000e+00,2.500000000000000555e-01,-2.500000000000000555e-01,0.000000000000000000e+00,0.000000000000000000e+00,-2.500000000000000555e-01,5.000000000000001110e-01,-2.500000000000000555e-01,0.000000000000000000e+00,0.000000000000000000e+00,0.000000000000000000e+00,0.000000000000000000e+00,-2.500000000000000555e-01,2.500000000000000555e-01,2.500000000000000555e-01,-2.500000000000000555e-01,0.000000000000000000e+00,0.000000000000000000e+00,2.500000000000000555e-01,-2.500000000000000555e-01,0.000000000000000000e+00,-2.500000000000000555e-01,5.000000000000001110e-01,-2.500000000000000555e-01,0.000000000000000000e+00,1.250000000000000222e+00,1.849999999999998934e+01,-1.874999999999998934e+01,-2.000000000000000444e+00,1.125000000000000178e+01,5.000000000000000000e-01,6.250000000000001776e+00,-2.450000000000000711e+01,2.275000000000000711e+01,-1.250000000000000355e+01,1.025000000000000355e+01,-1.125000000000000355e+01,1.625000000000000355e+01,-2.325000000000000355e+01,1.625000000000000355e+01,1.500000000000001776e+00,-5.000000000000000000e-01,-1.350000000000000355e+01,5.750000000000001776e+00,1.675000000000000355e+01,-2.150000000000000355e+01,1.625000000000000355e+01,-1.500000000000000355e+01,1.500000000000000222e+00,1.000000000000000355e+01,-7.500000000000002665e+00,7.500000000000000000e-01,7.250000000000002665e+00,-1.375000000000000355e+01,-2.500000000000000888e+00,2.275000000000000355e+01,-1.925000000000000355e+01,-8.250000000000001776e+00,1.600000000000000355e+01,-1.000000000000000000e+00,8.000000000000001776e+00,-1.775000000000000355e+01,-3.500000000000000888e+00,1.825000000000000355e+01,-9.000000000000001776e+00,-2.250000000000000444e+00,-5.250000000000000888e+00,9.250000000000001776e+00,-4.500000000000000888e+00,2.500000000000000555e-01,-5.000000000000001110e-01,0.000000000000000000e+00,5.000000000000001110e-01,0.000000000000000000e+00,-5.000000000000001110e-01,2.500000000000000555e-01,0.000000000000000000e+00,0.000000000000000000e+00,0.000000000000000000e+00,0.000000000000000000e+00,2.500000000000000555e-01,-5.000000000000001110e-01,2.500000000000000555e-01,-2.500000000000000555e-01,7.500000000000002220e-01,-9.500000000000001776e+00,1.125000000000000178e+01,-8.000000000000001776e+00,1.800000000000000355e+01,-1.625000000000000355e+01,-6.000000000000000888e+00,1.425000000000000355e+01,-2.050000000000000355e+01,1.100000000000000355e+01,2.100000000000000355e+01,-3.075000000000000711e+01,4.500000000000001776e+00,1.975000000000000355e+01,-2.000000000000000000e+00,-6.500000000000001776e+00,-1.000000000000000178e+01,3.250000000000000000e+00,1.775000000000000355e+01,-9.250000000000001776e+00,-1.650000000000000355e+01,1.775000000000000355e+01,6.000000000000000888e+00,-2.675000000000000711e+01,2.025000000000000355e+01,-1.275000000000000355e+01,1.550000000000000355e+01,4.750000000000000000e+00,-2.075000000000000355e+01,-8.500000000000001776e+00,1.675000000000000355e+01,-8.500000000000001776e+00,1.075000000000000178e+01,-1.500000000000000444e+00,-4.000000000000000888e+00,1.950000000000000355e+01,-3.275000000000000711e+01,4.500000000000000000e+00,6.500000000000001776e+00,-4.750000000000001776e+00,0.000000000000000000e+00,-2.500000000000000000e+00,2.750000000000001776e+00,6.000000000000000888e+00,-7.500000000000002665e+00,-5.500000000000000000e+00,1.550000000000000355e+01,1.275000000000000355e+01,-1.550000000000000355e+01,-1.925000000000000711e+01,2.700000000000000711e+01,-3.000000000000000888e+00,-1.700000000000000355e+01,2.750000000000014211e+00,1.724999999999998934e+01,-4.000000000000000888e+00,2.000000000000000444e+00,-2.500000000000000555e-01,5.000000000000001110e-01,-2.500000000000000555e-01,0.000000000000000000e+00,5.000000000000001110e-01,-5.000000000000001110e-01,7.500000000000002220e-01,-2.500000000000000555e-01,2.500000000000000555e-01,5.000000000000001110e-01,-1.500000000000000444e+00,5.750000000000000888e+00,-1.500000000000000000e+00,-6.250000000000001776e+00,1.599999999999998934e+01,-2.149999999999999289e+01,3.750000000000000711e+01,-3.825000000000000711e+01,8.500000000000001776e+00,2.075000000000000355e+01,-9.750000000000001776e+00,-1.700000000000000355e+01,1.050000000000000355e+01,5.750000000000000888e+00,-9.750000000000001776e+00,-4.250000000000000888e+00,3.750000000000000888e+00,-2.500000000000000555e-01,1.800000000000000355e+01,-2.475000000000000711e+01,1.125000000000000355e+01,1.750000000000000000e+00,-1.850000000000000355e+01,1.125000000000000355e+01,5.250000000000001776e+00,-1.350000000000000355e+01,1.900000000000000355e+01,-9.750000000000001776e+00,-8.250000000000001776e+00,1.225000000000000355e+01,-6.500000000000001776e+00,8.000000000000001776e+00,-8.500000000000001776e+00,2.600000000000000355e+01,-3.925000000000000711e+01,3.500000000000000000e+00,4.050000000000001421e+01,-4.500000000000001421e+01,1.950000000000000355e+01,1.400000000000000355e+01,-4.575000000000001421e+01,4.475000000000001421e+01,-1.375000000000000355e+01,-1.500000000000000444e+00,1.750000000000000444e+00,-2.000000000000000444e+00,2.000000000000000444e+00,-1.025000000000000178e+01,9.750000000000001776e+00,7.250000000000001776e+00,-2.425000000000000711e+01,2.975000000000000711e+01,-1.950000000000000711e+01,4.500000000000001776e+00,-1.325000000000000355e+01,2.575000000000000711e+01,1.225000000000000178e+01,-5.225000000000001421e+01,3.675000000000000711e+01,8.500000000000001776e+00,-3.125000000000000711e+01,2.425000000000000711e+01,-3.025000000000000711e+01,9.500000000000001776e+00,5.900000000000000711e+01,-7.000000000000001421e+01,2.875000000000000711e+01,-1.475000000000000355e+01,2.025000000000000355e+01,-4.750000000000000000e+00,-2.250000000000000888e+00,-7.250000000000001776e+00,-7.000000000000001776e+00,1.500000000000000355e+01,-2.500000000000000000e+00,1.425000000000000355e+01,-2.300000000000000355e+01,-2.500000000000008882e-01,1.425000000000000355e+01,-7.250000000000001776e+00,-7.000000000000001776e+00,1.525000000000000355e+01,-7.750000000000001776e+00,-1.000000000000000178e+01,2.550000000000000711e+01,-1.750000000000000355e+01,-5.250000000000000888e+00,6.000000000000000888e+00,1.225000000000000355e+01,-1.550000000000000355e+01,7.000000000000001776e+00,-1.250000000000000355e+01,2.000000000000000355e+01,-2.500000000000000000e-01,-1.800000000000000355e+01,5.000000000000000000e-01,1.500000000000000355e+01,2.500000000000000000e+00,-2.150000000000000355e+01,3.025000000000000711e+01,-2.975000000000000711e+01,2.525000000000000711e+01,-8.750000000000001776e+00,-1.500000000000000355e+01,1.125000000000000355e+01,9.000000000000003553e+00,1.750000000000000000e+00,-3.750000000000001776e+00,-2.000000000000000355e+01,1.450000000000000355e+01,6.750000000000000888e+00,-1.825000000000000355e+01,1.550000000000000355e+01,2.250000000000000000e+00,-2.175000000000000355e+01,1.475000000000000355e+01,1.000000000000000355e+01,-1.275000000000000355e+01,-2.000000000000000444e+00,1.725000000000000355e+01,-2.600000000000000711e+01,2.225000000000000711e+01,-1.875000000000000711e+01,3.750000000000001332e+00,1.675000000000000355e+01,-1.675000000000000355e+01,-8.750000000000001776e+00,2.575000000000000711e+01,-1.800000000000000355e+01,-5.750000000000000888e+00,2.275000000000000711e+01,-2.275000000000000711e+01,2.100000000000000355e+01,-1.975000000000000355e+01,3.500000000000000888e+00,1.425000000000000355e+01,-6.250000000000000888e+00,-6.750000000000001776e+00,-4.500000000000000888e+00,1.625000000000000355e+01,-4.500000000000000888e+00,-1.250000000000000355e+01,1.600000000000000355e+01,-1.125000000000000355e+01,-5.750000000000000888e+00,2.225000000000000711e+01,-1.525000000000000355e+01,7.500000000000000000e-01,7.000000000000001776e+00,-8.250000000000001776e+00,-4.500000000000000888e+00,1.650000000000000355e+01,-7.250000000000001776e+00,-1.500000000000000444e+00,-2.750000000000000444e+00,4.000000000000000888e+00,-5.000000000000002220e-01,-1.000000000000000222e+00,0.000000000000000000e+00,-2.500000000000000555e-01,-5.750000000000001776e+00,1.175000000000000355e+01,-5.500000000000000888e+00,-2.750000000000000444e+00,-8.500000000000001776e+00,2.200000000000000355e+01,-2.575000000000000711e+01,2.425000000000000711e+01,-1.825000000000000355e+01,4.250000000000000888e+00,1.325000000000000355e+01,-7.750000000000001776e+00,-6.500000000000000888e+00,9.500000000000001776e+00,6.250000000000000888e+00,-2.250000000000000711e+01,2.350000000000000711e+01,-7.250000000000000888e+00,-1.400000000000000355e+01,1.475000000000000355e+01,5.000000000000000000e-01,-1.075000000000000178e+01,2.250000000000000000e+00,1.175000000000000355e+01,-8.250000000000001776e+00,-5.000000000000001110e-01,5.000000000000001110e-01,-1.250000000000000222e+00,1.750000000000000444e+00,-7.500000000000002220e-01,0.000000000000000000e+00,2.500000000000000555e-01,-2.500000000000000555e-01,-2.500000000000000555e-01,2.500000000000000555e-01,-2.500000000000000555e-01,5.000000000000001110e-01,-5.000000000000001110e-01,5.000000000000001110e-01,-2.500000000000000555e-01,-9.000000000000001776e+00,3.500000000000000888e+00,1.475000000000000355e+01,-3.025000000000000711e+01,2.150000000000000355e+01,3.500000000000000888e+00,-8.500000000000001776e+00,2.250000000000000444e+00,-8.250000000000001776e+00,1.725000000000000355e+01,-1.050000000000000355e+01,-1.275000000000000355e+01,1.300000000000000355e+01,1.525000000000000355e+01,-1.950000000000000355e+01,2.500000000000000000e-01,6.750000000000001776e+00,-6.000000000000001776e+00,1.025000000000000355e+01,-2.000000000000000444e+00,-2.025000000000000355e+01,1.425000000000000355e+01,-7.500000000000000000e-01,-2.500000000000000000e-01,1.075000000000000178e+01,2.750000000000000888e+00,-2.275000000000000711e+01,6.750000000000001776e+00,2.100000000000000711e+01,-2.625000000000000711e+01,1.225000000000000355e+01,-2.250000000000000888e+00,-3.750000000000000888e+00,1.525000000000000355e+01,-2.000000000000000355e+01,7.750000000000000888e+00,2.500000000000000444e+00,-1.425000000000000355e+01,1.600000000000000355e+01,7.000000000000001776e+00,-2.650000000000000711e+01,2.225000000000000355e+01,5.250000000000000888e+00,-1.825000000000000355e+01,7.250000000000001776e+00,-7.750000000000001776e+00,4.250000000000000000e+00,1.500000000000000355e+01,-2.775000000000000711e+01,2.125000000000000355e+01,-4.500000000000000888e+00,-4.500000000000001776e+00,1.225000000000000355e+01,-2.250000000000000000e+00,-1.400000000000000355e+01,4.250000000000000000e+00,9.750000000000003553e+00,-1.225000000000000355e+01,1.525000000000000355e+01,-1.825000000000000711e+01,9.500000000000003553e+00,4.750000000000000888e+00,-2.050000000000000355e+01,1.775000000000000355e+01,-2.000000000000000444e+00,-5.750000000000001776e+00,1.250000000000000355e+01,3.500000000000000888e+00,-1.650000000000000355e+01,1.000000000000000178e+01,-1.250000000000000222e+00,-1.399999999999998934e+01,1.699999999999998934e+01,-3.750000000000000888e+00,-3.250000000000000888e+00,3.500000000000000888e+00,5.000000000000001110e-01,-2.500000000000000555e-01,2.500000000000000555e-01,-2.500000000000000555e-01,5.000000000000001110e-01,-5.000000000000001110e-01,5.000000000000001110e-01,-2.500000000000000555e-01,0.000000000000000000e+00,0.000000000000000000e+00,-2.500000000000000555e-01,2.500000000000000555e-01,0.000000000000000000e+00,2.500000000000000555e-01,-5.000000000000001110e-01,2.500000000000000555e-01,0.000000000000000000e+00,-2.500000000000000555e-01,5.000000000000001110e-01,-2.500000000000000555e-01,-2.500000000000000555e-01,2.500000000000000555e-01,0.000000000000000000e+00,0.000000000000000000e+00,2.500000000000000555e-01,-5.000000000000001110e-01,2.500000000000000555e-01,0.000000000000000000e+00,0.000000000000000000e+00,0.000000000000000000e+00,0.000000000000000000e+00,0.000000000000000000e+00,0.000000000000000000e+00,-2.500000000000000555e-01,5.000000000000001110e-01,-2.500000000000000555e-01,0.000000000000000000e+00,0.000000000000000000e+00,0.000000000000000000e+00,0.000000000000000000e+00,0.000000000000000000e+00,0.000000000000000000e+00,5.000000000000001110e-01,-1.250000000000000444e+00,1.250000000000000444e+00,-1.000000000000000222e+00,7.500000000000002220e-01,-5.000000000000001110e-01,5.000000000000001110e-01,-2.500000000000000555e-01,0.000000000000000000e+00,0.000000000000000000e+00,0.000000000000000000e+00,-2.500000000000000555e-01,5.000000000000001110e-01,-2.500000000000000555e-01,2.500000000000000555e-01,-7.500000000000002220e-01,7.500000000000002220e-01,-2.500000000000000555e-01,2.500000000000000555e-01,-5.000000000000001110e-01,5.000000000000001110e-01,0.000000000000000000e+00,-5.000000000000001110e-01,0.000000000000000000e+00,7.500000000000002220e-01,-7.500000000000002220e-01,5.000000000000001110e-01,0.000000000000000000e+00,-2.500000000000000555e-01,0.000000000000000000e+00,1.000000000000000222e+00,-1.000000000000000222e+00,5.000000000000001110e-01,8.000000000000001776e+00,-2.000000000000014211e+00,2.500000000000014211e+00,-3.500000000000000888e+00,-8.750000000000001776e+00,1.975000000000000355e+01,-2.175000000000000355e+01,1.250000000000000355e+01,8.250000000000001776e+00,-1.650000000000000355e+01,1.275000000000000178e+01,-1.125000000000000178e+01,-1.275000000000000355e+01,-1.200000000000000355e+01,2.075000000000000711e+01,8.950000000000001421e+01,-6.825000000000001421e+01,-5.750000000000000000e+00,-2.775000000000000711e+01,2.125000000000000355e+01,1.500000000000000888e+00,-1.525000000000000355e+01,1.650000000000000355e+01,-1.775000000000000355e+01,7.000000000000001776e+00,1.800000000000000355e+01,-2.150000000000000711e+01,5.750000000000001776e+00,1.425000000000000355e+01,-2.750000000000000711e+01,2.750000000000000711e+01,-2.625000000000000711e+01,2.275000000000000711e+01,-1.975000000000000355e+01,1.300000000000000355e+01,6.500000000000000888e+00,-1.850000000000000355e+01,5.500000000000001776e+00,1.400000000000000178e+01,-1.850000000000000355e+01,-5.250000000000001776e+00,2.450000000000000711e+01,-2.550000000000000711e+01,2.125000000000000711e+01,-8.000000000000001776e+00,-6.750000000000001776e+00,1.700000000000000355e+01,-1.475000000000000355e+01,2.125000000000000355e+01,-2.350000000000000711e+01,2.175000000000000711e+01,-2.375000000000000711e+01,6.750000000000001776e+00,4.500000000000000888e+00,5.750000000000001776e+00,2.250000000000000000e+00,-1.400000000000000355e+01,1.075000000000000355e+01,-1.800000000000000355e+01,9.000000000000001776e+00,8.000000000000001776e+00,-1.150000000000000355e+01,1.800000000000000355e+01,-2.075000000000000711e+01,5.750000000000001776e+00,1.600000000000000355e+01,-1.700000000000000355e+01,1.000000000000000444e+00,1.250000000000000178e+01,-1.100000000000000178e+01,2.500000000000000000e-01,-1.500000000000000222e+00,1.625000000000000355e+01,-1.550000000000000355e+01,-1.025000000000000178e+01,1.825000000000000355e+01,2.750000000000000000e+00,-2.250000000000000711e+01,2.600000000000000711e+01,-1.750000000000000355e+01,1.075000000000000355e+01,-1.300000000000000355e+01,-5.000000000000000000e-01,1.650000000000000355e+01,-6.750000000000001776e+00,-1.100000000000000178e+01,1.375000000000000355e+01,4.250000000000000888e+00,-1.725000000000000355e+01,2.750000000000000888e+00,1.700000000000000355e+01,-1.200000000000000178e+01,7.000000000000001776e+00,-1.800000000000000355e+01,8.500000000000001776e+00,1.550000000000000355e+01,-2.000000000000000711e+01,1.100000000000000355e+01,-1.475000000000000355e+01,2.125000000000000355e+01,-2.225000000000000711e+01,1.575000000000000355e+01,-2.950000000000000711e+01
