-2.202874999999949068e+00,-7.874974999999999170e+01,-1.420153750000000343e+02,-1.920153750000000628e+02,-2.284841250000001196e+02,-2.506872500000001196e+02,-2.595310000000001196e+02,-2.548591250000001196e+02,-2.385622500000001196e+02,-2.214841250000001196e+02,-2.035778750000001196e+02,-1.844685000000001196e+02,-1.646716250000000628e+02,-1.449372500000000343e+02,-1.247341250000000343e+02,-1.049528750000000201e+02,-8.367162500000000591e+01,-6.371849999999999170e+01,-4.404662499999997749e+01,-2.618724999999996328e+01,-9.905999999999954397e+00,5.719000000000055373e+00,1.957837500000006514e+01,3.276587500000007225e+01,4.381275000000007935e+01,5.393775000000009356e+01,6.204712500000009356e+01,7.026587500000009356e+01,7.935962500000009356e+01,8.856275000000010778e+01,9.868775000000012199e+01,1.083752500000001362e+02,1.186252500000001362e+02,1.306721250000001362e+02,1.448908750000001362e+02,1.590627500000001362e+02,1.724846250000001646e+02,1.850783750000001646e+02,1.971877500000002215e+02,2.104065000000002215e+02,2.228752500000002215e+02,2.332815000000002215e+02,2.417033750000002215e+02,2.490783750000002215e+02,2.557033750000002215e+02,2.616252500000002215e+02,2.668283750000002215e+02,2.695940000000002215e+02,2.715315000000002215e+02,2.737815000000002215e+02,2.751096250000002215e+02,2.762658750000002215e+02,2.769533750000002215e+02,2.770471250000002215e+02,2.755627500000002215e+02,2.743752500000002215e+02,2.737502500000002215e+02,2.713752500000002215e+02,2.695002500000002215e+02,2.682658750000002215e+02,2.672502500000002215e+02,2.659533750000002215e+02,2.661408750000002215e+02,2.664690000000002215e+02,2.662346250000002215e+02,2.678283750000002215e+02,2.694221250000002215e+02,2.707033750000002215e+02,2.714690000000002215e+02,2.735627500000002215e+02,2.748908750000002215e+02,2.759690000000002215e+02,2.783596250000002215e+02,2.798440000000002215e+02,2.810158750000002215e+02,2.811252500000002215e+02,2.814533750000002215e+02,2.810940000000002215e+02,2.810471250000002215e+02,2.810315000000002215e+02,2.798440000000002215e+02,2.794377500000002215e+02,2.794690000000002215e+02,2.802658750000002215e+02,2.815158750000002215e+02,2.823283750000002215e+02,2.828752500000002215e+02,2.838127500000002215e+02,2.839221250000002215e+02,2.826721250000002215e+02,2.814846250000002215e+02,2.807346250000002215e+02,2.798283750000002215e+02,2.794377500000002215e+02,2.798283750000002215e+02,2.804377500000002215e+02,2.826252500000002215e+02,2.866096250000002215e+02,2.909846250000002215e+02,2.948908750000002215e+02,2.983596250000002215e+02,3.023440000000002215e+02,3.054533750000002215e+02,3.077971250000002215e+02,3.090783750000002215e+02,3.080940000000002215e+02,3.052502500000002215e+02,3.023127500000002215e+02,2.984533750000002215e+02,2.927346250000002215e+02,2.862502500000002215e+02,2.773283750000002215e+02,2.669846250000002215e+02,2.566408750000002215e+02,2.447971250000002215e+02,2.306565000000002215e+02,2.160315000000002215e+02,1.994846250000002215e+02,1.822658750000001646e+02,1.667971250000001646e+02,1.508440000000001362e+02,1.340627500000001362e+02,1.194690000000001362e+02,1.057502500000001362e+02,9.195337500000012199e+01,8.120337500000010778e+01,7.148462500000009356e+01,6.153150000000009356e+01,5.353150000000009356e+01,4.675025000000009356e+01,3.950025000000007935e+01,3.282837500000007225e+01,2.750025000000007225e+01,2.067212500000006514e+01,1.406275000000005804e+01,8.187750000000054484e+00,2.375250000000052264e+00,-1.796624999999950623e+00,-5.202874999999952621e+00,-7.124749999999954397e+00,-8.937249999999954397e+00,-8.624749999999954397e+00,-7.749749999999954397e+00,-5.359124999999952621e+00,-2.765374999999950401e+00,-1.905999999999950179e+00,-9.216249999999495124e-01,-3.591249999999492348e-01,1.078375000000051820e+00,1.953375000000052264e+00,2.922125000000052708e+00,2.078375000000052708e+00,1.125250000000051598e+00,1.797125000000052042e+00,2.969000000000052708e+00,3.703375000000053596e+00,4.140875000000053596e+00,4.734625000000054484e+00,4.500250000000053596e+00,5.406500000000054484e+00,7.531500000000056261e+00,8.984625000000058037e+00,9.234625000000058037e+00,9.797125000000058037e+00,1.010962500000005804e+01,1.039087500000005804e+01,1.185962500000005981e+01,1.232837500000005981e+01,1.095337500000005804e+01,8.984625000000056261e+00,8.719000000000056261e+00,8.765875000000056261e+00,8.375250000000056261e+00,7.219000000000054484e+00,5.969000000000054484e+00,6.203375000000056261e+00,7.765875000000056261e+00,1.076587500000005804e+01,1.210962500000005981e+01,1.342212500000006159e+01,1.482837500000006159e+01,1.784400000000006159e+01,2.059400000000006514e+01,2.268775000000006514e+01,2.396900000000006870e+01,2.395337500000006870e+01,2.503150000000007225e+01,2.575025000000007225e+01,2.667212500000007225e+01,2.610962500000007225e+01,2.545337500000007225e+01,2.420337500000006514e+01,2.296900000000006514e+01,2.210962500000006514e+01,2.142212500000006159e+01,1.995337500000006159e+01,1.893775000000006159e+01,1.814087500000006159e+01,1.684400000000006159e+01,1.637525000000006159e+01,1.620337500000006159e+01,1.651587500000006159e+01,1.548462500000006159e+01,1.537525000000006159e+01,1.517212500000006159e+01,1.529712500000006159e+01,1.548462500000006159e+01,1.456275000000006159e+01,1.460962500000006159e+01,1.406275000000006159e+01,1.425025000000006159e+01,1.521900000000006159e+01,1.593775000000006159e+01,1.662525000000006159e+01,1.854712500000006159e+01,2.109400000000006514e+01,2.251587500000006514e+01,2.448462500000007225e+01,2.664087500000007225e+01,2.753150000000007225e+01,2.881275000000007225e+01,3.070337500000007225e+01,3.090650000000007225e+01,3.168775000000007225e+01,3.273462500000007225e+01,3.256275000000007225e+01,3.310962500000007225e+01,3.382837500000007225e+01,3.379712500000007225e+01,3.345337500000007225e+01,3.442212500000007225e+01,3.482837500000007225e+01,3.387525000000007225e+01,3.426587500000007225e+01,3.279712500000007225e+01,3.125025000000007225e+01,2.971900000000007225e+01,2.709400000000007225e+01,2.329712500000006870e+01,1.909400000000006514e+01,1.593775000000006159e+01,1.164087500000005804e+01,7.922125000000055373e+00,4.984625000000054484e+00,1.734625000000052264e+00,-1.515374999999950179e+00,-4.374749999999951733e+00,-7.327874999999952621e+00,-9.749749999999954397e+00,-1.209349999999995617e+01,-1.396849999999995973e+01,-1.698412499999995973e+01,-1.898412499999995973e+01,-1.918724999999995973e+01,-1.851537499999995973e+01,-1.746849999999995973e+01,-1.656224999999995973e+01,-1.424974999999995973e+01,-1.179662499999995617e+01,-8.218499999999954397e+00,-5.796624999999952621e+00,-4.280999999999950845e+00,-3.046624999999950845e+00,-1.484124999999950179e+00,-7.341249999999496234e-01,-6.091249999999495124e-01,-1.716249999999492348e-01,-1.247499999999491238e-01,1.859625000000052486e+00,4.078375000000054484e+00,5.531500000000054484e+00,8.062750000000056261e+00,1.206275000000005804e+01,1.603150000000006159e+01,2.053150000000006514e+01,2.537525000000006870e+01,2.893775000000007225e+01,3.190650000000007225e+01,3.629712500000007225e+01,3.979712500000007225e+01,4.301587500000007935e+01,4.685962500000008646e+01,4.998462500000009356e+01,5.304712500000009356e+01,5.712525000000009356e+01,6.268775000000009356e+01,6.753150000000009356e+01,7.221900000000009356e+01,7.562525000000009356e+01,7.746900000000009356e+01,7.785962500000009356e+01,7.743775000000009356e+01,7.501587500000009356e+01,6.929712500000009356e+01,6.157837500000009356e+01,5.056275000000007935e+01,3.739087500000007225e+01,2.139087500000006514e+01,3.984625000000052708e+00,-1.606224999999996328e+01,-3.879662499999997749e+01,-6.253099999999999170e+01,-8.729662500000000591e+01,-1.103747500000000343e+02,-1.316247500000000343e+02,-1.501091250000000343e+02,-1.681247500000000628e+02,-1.842341250000000912e+02,-1.974528750000001196e+02,-2.089841250000001196e+02,-2.189841250000001196e+02,-2.302185000000001196e+02,-2.423747500000001196e+02,-2.564372500000001196e+02,-2.706560000000001196e+02,-2.870778750000001196e+02,-3.050778750000001196e+02,-3.243278750000001196e+02,-3.454997500000001196e+02,-3.662653750000001764e+02,-3.875935000000002901e+02,-4.087497500000002901e+02,-4.300622500000002901e+02,-4.497028750000002901e+02,-4.692810000000002901e+02,-4.878747500000002901e+02,-5.044060000000002901e+02,-5.200622500000002901e+02,-5.344841250000002901e+02,-5.465778750000002901e+02,-5.562653750000002901e+02,-5.642028750000002901e+02,-5.697497500000002901e+02,-5.736560000000002901e+02,-5.764372500000002901e+02,-5.778591250000002901e+02,-5.780153750000002901e+02,-5.779372500000002901e+02,-5.778591250000002901e+02,-5.778122500000002901e+02,-5.777653750000002901e+02,-5.777185000000002901e+02,-5.776716250000002901e+02,-5.776560000000002901e+02,-5.776560000000002901e+02,-5.777185000000002901e+02,-5.777810000000002901e+02,-5.778122500000002901e+02,-5.778435000000002901e+02,-5.778903750000002901e+02,-5.779372500000002901e+02,-5.779685000000002901e+02,-5.780153750000002901e+02,-5.779997500000002901e+02,-5.779685000000002901e+02,-5.779685000000002901e+02,-5.779841250000002901e+02,-5.779528750000002901e+02,-5.779216250000002901e+02,-5.779060000000002901e+02,-5.778747500000002901e+02,-5.778903750000002901e+02,-5.779216250000002901e+02,-5.779372500000002901e+02,-5.779372500000002901e+02,-5.779841250000002901e+02,-5.780310000000002901e+02,-5.780466250000002901e+02,-5.780466250000002901e+02,-5.780310000000002901e+02,-5.780466250000002901e+02,-5.780622500000002901e+02,-5.766091250000002901e+02,-5.746247500000002901e+02,-5.712028750000002901e+02,-5.661247500000002901e+02,-5.599685000000002901e+02,-5.522497500000002901e+02,-5.424685000000002901e+02,-5.292028750000002901e+02,-5.141872500000002901e+02,-4.949841250000002901e+02,-4.748903750000002901e+02,-4.531560000000002901e+02,-4.286560000000002901e+02,-4.030153750000002901e+02,-3.756872500000002901e+02,-3.497185000000001764e+02,-3.260778750000001196e+02,-3.068122500000001196e+02,-2.872028750000001196e+02,-2.688122500000001196e+02,-2.513903750000001196e+02,-2.330466250000001196e+02,-2.169528750000001196e+02,-2.014216250000001196e+02,-1.839216250000001196e+02,-1.645935000000000628e+02,-1.460622500000000343e+02,-1.276716250000000343e+02,-1.108747500000000343e+02,-9.545287500000002012e+01,-7.839037500000000591e+01,-6.024974999999999170e+01,-4.253099999999997749e+01,-2.457787499999996328e+01,-5.624749999999952621e+00,1.357837500000005804e+01,3.398462500000007225e+01,5.392212500000007935e+01,7.309400000000009356e+01,9.179712500000010778e+01,1.094377500000001362e+02,1.270471250000001362e+02,1.429690000000001362e+02,1.583127500000001362e+02,1.727815000000001646e+02,1.862190000000002215e+02,1.970940000000002215e+02,2.066252500000002215e+02,2.163908750000002215e+02,2.255315000000002215e+02,2.342502500000002215e+02,2.425627500000002215e+02,2.492190000000002215e+02,2.562815000000002215e+02,2.650158750000002215e+02,2.732971250000002215e+02,2.801721250000002215e+02,2.853283750000002215e+02,2.903440000000002215e+02,2.946408750000002215e+02,2.998752500000002215e+02,3.047502500000002215e+02,3.093127500000002215e+02,3.148596250000002215e+02,3.200783750000002215e+02,3.255158750000002215e+02,3.312815000000002215e+02,3.361565000000002215e+02,3.400002500000002215e+02,3.431408750000002215e+02,3.440627500000002215e+02,3.436565000000002215e+02,3.438440000000002215e+02,3.431877500000002215e+02,3.411252500000002215e+02,3.396096250000002215e+02,3.378752500000002215e+02,3.357971250000002215e+02,3.345627500000002215e+02,3.326877500000002215e+02,3.306252500000002215e+02,3.296096250000002215e+02,3.286408750000002215e+02,3.269846250000002215e+02,3.260471250000002215e+02,3.240627500000002215e+02,3.220783750000002215e+02,3.202346250000002215e+02,3.167346250000002215e+02,3.113752500000002215e+02,3.052190000000002215e+02,2.990315000000002215e+02,2.916252500000002215e+02,2.856877500000002215e+02,2.791877500000002215e+02,2.726096250000002215e+02,2.675783750000002215e+02,2.639846250000002215e+02,2.619377500000002215e+02,2.606408750000002215e+02,2.596252500000002215e+02,2.580940000000002215e+02,2.577033750000002215e+02,2.576877500000002215e+02,2.573596250000002215e+02,2.578596250000002215e+02,2.590315000000002215e+02,2.593127500000002215e+02,2.604846250000002215e+02,2.619377500000002215e+02,2.636408750000002215e+02,2.659065000000002215e+02,2.675158750000002215e+02,2.674377500000002215e+02,2.657658750000002215e+02,2.646877500000002215e+02,2.632971250000002215e+02,2.621565000000002215e+02,2.594377500000002215e+02,2.557190000000002215e+02,2.531565000000002215e+02,2.511565000000002215e+02,2.472658750000002215e+02,2.415471250000002215e+02,2.342815000000002215e+02,2.237346250000002215e+02,2.114377500000002215e+02,1.970002500000002215e+02,1.780627500000001646e+02,1.547971250000001362e+02,1.313283750000001362e+02,1.054065000000001078e+02,7.640650000000009356e+01,4.693775000000007935e+01,1.578150000000005981e+01,-1.710912499999996328e+01,-4.909349999999997749e+01,-7.984350000000000591e+01,-1.129528750000000201e+02,-1.452028750000000628e+02,-1.779060000000000912e+02,-2.116872500000001196e+02,-2.461091250000001196e+02,-2.809685000000001196e+02,-3.167341250000001196e+02,-3.529997500000001764e+02,-3.875153750000002901e+02,-4.212653750000002901e+02,-4.517341250000002901e+02,-4.793903750000002901e+02,-5.024060000000002901e+02,-5.209060000000002901e+02,-5.366403750000002901e+02,-5.492185000000002901e+02,-5.584997500000002901e+02,-5.650153750000002901e+02,-5.697497500000002901e+02,-5.726560000000002901e+02,-5.751247500000002901e+02,-5.771872500000002901e+02,-5.778747500000002901e+02,-5.778278750000002901e+02,-5.761091250000002901e+02,-5.743747500000002901e+02,-5.717497500000002901e+02,-5.679997500000002901e+02,-5.642497500000002901e+02,-5.604060000000002901e+02,-5.536247500000002901e+02,-5.452497500000002901e+02,-5.387966250000002901e+02,-5.310778750000002901e+02,-5.237653750000002901e+02,-5.142341250000002901e+02,-5.029528750000002901e+02,-4.913903750000002901e+02,-4.826560000000002901e+02,-4.738278750000002901e+02,-4.635153750000002901e+02,-4.506872500000002901e+02,-4.352185000000002901e+02,-4.222028750000002901e+02,-4.073591250000002901e+02,-3.872185000000002901e+02,-3.639216250000001764e+02,-3.392028750000001764e+02,-3.126247500000001196e+02,-2.875153750000001196e+02,-2.647497500000001196e+02,-2.432810000000001196e+02,-2.248903750000001196e+02,-2.123122500000001196e+02,-2.033747500000001196e+02,-1.989060000000001196e+02,-1.978591250000001196e+02,-2.000310000000001196e+02,-2.023591250000001196e+02,-2.032653750000001196e+02,-2.048435000000001196e+02,-2.057810000000001196e+02,-2.057653750000001196e+02,-2.042810000000001196e+02,-2.028278750000001196e+02,-2.007653750000001196e+02,-1.991403750000001196e+02,-1.990310000000001196e+02,-1.986091250000001196e+02,-1.988747500000001196e+02,-2.003903750000001196e+02,-2.016716250000001196e+02,-2.013903750000001196e+02,-2.008122500000001196e+02,-1.998435000000001196e+02,-1.973903750000001196e+02,-1.946872500000001196e+02,-1.925310000000001196e+02,-1.905153750000000628e+02,-1.889997500000000628e+02,-1.905466250000000628e+02,-1.931560000000001196e+02,-1.986716250000001196e+02,-2.066872500000001196e+02,-2.177653750000001196e+02,-2.294997500000001196e+02,-2.412653750000001196e+02,-2.549372500000001196e+02,-2.675153750000001196e+02,-2.806403750000001196e+02,-2.923122500000001196e+02,-3.043591250000001196e+02,-3.147653750000001196e+02,-3.251560000000001196e+02,-3.355778750000001196e+02,-3.430466250000001196e+02,-3.491560000000001196e+02,-3.503122500000001196e+02,-3.471247500000001196e+02,-3.379997500000001196e+02,-3.212341250000001196e+02,-2.941403750000001196e+02,-2.578747500000001196e+02,-2.149060000000000628e+02,-1.632810000000000628e+02,-1.085153750000000059e+02,-5.012474999999997749e+01,1.228150000000005981e+01,7.440650000000009356e+01,1.314221250000001362e+02,1.841721250000001646e+02,2.330471250000002215e+02,2.746565000000002215e+02,3.119533750000002215e+02,3.437971250000002783e+02,3.680940000000002783e+02,3.861096250000003920e+02,4.003596250000003920e+02,4.106408750000003920e+02,4.172033750000003920e+02,4.217815000000003920e+02,4.241877500000003920e+02,4.249533750000003920e+02,4.252190000000003920e+02,4.254221250000003920e+02,4.255627500000003920e+02,4.256096250000003920e+02,4.256565000000003920e+02,4.257033750000003920e+02,4.257346250000003920e+02,4.258127500000003920e+02,4.258752500000003920e+02,4.259533750000003920e+02,4.260002500000003920e+02,4.260940000000003920e+02,4.261721250000003920e+02,4.262346250000003920e+02,4.263127500000003920e+02,4.263127500000003920e+02,4.262971250000003920e+02,4.262658750000003920e+02,4.262502500000003920e+02,4.261877500000003920e+02,4.260783750000003920e+02,4.258596250000003920e+02,4.249221250000003920e+02,4.233752500000003920e+02,4.208908750000003920e+02,4.151565000000003920e+02,4.064690000000003920e+02,3.949221250000003920e+02,3.799690000000003920e+02,3.622658750000002783e+02,3.424533750000002215e+02,3.210158750000002215e+02,2.986096250000002215e+02,2.795783750000002215e+02,2.641721250000002215e+02,2.520627500000002215e+02,2.435627500000002215e+02,2.372658750000002215e+02,2.334065000000002215e+02,2.302033750000002215e+02,2.280783750000002215e+02,2.238440000000002215e+02,2.167033750000002215e+02,2.072033750000002215e+02,1.956877500000002215e+02,1.833908750000001646e+02,1.700627500000001646e+02,1.575940000000001362e+02,1.437502500000001362e+02,1.307971250000001362e+02,1.190940000000001362e+02,1.081721250000001362e+02,9.810962500000013620e+01,8.942212500000010778e+01,8.048462500000009356e+01,7.050025000000009356e+01,6.139087500000009356e+01,5.292212500000009356e+01,4.429712500000007935e+01,3.584400000000007225e+01,2.814087500000006870e+01,1.842212500000006159e+01,9.687750000000058037e+00,2.734625000000052708e+00,-2.405999999999951289e+00,-8.452874999999956174e+00,-1.412474999999995973e+01,-1.901537499999996328e+01,-2.442162499999997038e+01,-2.826537499999997038e+01,-3.070287499999997038e+01,-3.298412499999997038e+01,-3.657787499999997038e+01,-3.831224999999997038e+01,-3.934349999999997038e+01,-3.948412499999997038e+01,-3.857787499999997038e+01,-3.704662499999997038e+01,-3.524974999999997038e+01,-3.298412499999997038e+01,-2.899974999999997038e+01,-2.446849999999996328e+01,-1.906224999999996328e+01,-1.359349999999995617e+01,-7.140374999999952621e+00,-3.434999999999492903e-01,4.922125000000053596e+00,9.812750000000058037e+00,1.414087500000006159e+01,1.796900000000006514e+01,2.118775000000006514e+01,2.267212500000006514e+01,2.271900000000006514e+01,2.300025000000006514e+01,2.398462500000006514e+01,2.510962500000007225e+01,2.537525000000007225e+01,2.434400000000007225e+01,2.312525000000006514e+01,2.339087500000006870e+01,2.360962500000006870e+01,2.281275000000006514e+01,2.103150000000006514e+01,1.810962500000006159e+01,1.493775000000006159e+01,1.201587500000005804e+01,9.265875000000058037e+00,5.922125000000054484e+00,1.672125000000051820e+00,-1.343499999999949956e+00,-2.405999999999950845e+00,-2.999749999999950845e+00,-1.468499999999950179e+00,1.469000000000051598e+00,3.484625000000052708e+00,5.109625000000054484e+00,9.406500000000058037e+00,1.104712500000005804e+01,1.118775000000005804e+01,1.157837500000005804e+01,1.075025000000005804e+01,8.172125000000054484e+00,7.515875000000055373e+00,8.140875000000056261e+00,5.969000000000054484e+00,6.281500000000054484e+00,6.625250000000055373e+00,6.890875000000056261e+00,6.672125000000055373e+00,8.453375000000056261e+00,8.390875000000056261e+00,7.531500000000055373e+00,7.875250000000056261e+00,8.250250000000058037e+00,9.375250000000058037e+00,1.100025000000005981e+01,1.301587500000006159e+01,1.384400000000006159e+01,1.503150000000006159e+01,1.582837500000006159e+01,1.653150000000006159e+01,1.520337500000006159e+01,1.314087500000005981e+01,1.078150000000005804e+01,8.672125000000056261e+00,5.312750000000054484e+00,2.187750000000052264e+00,-2.028749999999490683e-01,-1.968499999999950401e+00,-1.421624999999949956e+00,-1.187249999999949734e+00,-8.903749999999495124e-01,-1.343499999999949956e+00,-1.872499999999490683e-01,6.096250000000513758e-01,-2.653749999999494569e-01,-1.515374999999950179e+00,-5.530999999999952621e+00,-9.234124999999956174e+00,-1.407787499999995795e+01,-1.903099999999995973e+01,-2.417162499999996328e+01,-2.864037499999997038e+01,-3.273412499999997038e+01,-3.818724999999997038e+01,-4.068724999999997038e+01,-4.223412499999997038e+01,-4.304662499999997038e+01,-4.365599999999997749e+01,-4.507787499999997749e+01,-4.759349999999997749e+01,-4.906224999999999170e+01,-4.934349999999999170e+01,-5.209349999999999170e+01,-5.687474999999999170e+01,-6.174974999999999170e+01,-6.667162499999999170e+01,-7.162474999999999170e+01,-7.498412499999999170e+01,-7.957787499999999170e+01,-8.390599999999999170e+01,-8.748412499999999170e+01,-9.035912499999999170e+01,-9.282787500000000591e+01,-9.506225000000000591e+01,-9.729662500000003433e+01,-1.014841250000000343e+02,-1.034841250000000343e+02,-1.064685000000000343e+02,-1.084060000000000343e+02,-1.089685000000000343e+02,-1.099841250000000343e+02,-1.101716250000000343e+02,-1.084997500000000343e+02,-1.060466250000000343e+02,-1.049216250000000343e+02,-1.030310000000000343e+02,-1.028747500000000343e+02,-1.036247500000000343e+02,-1.033903750000000343e+02,-1.037497500000000343e+02,-1.060153750000000343e+02,-1.072185000000000343e+02,-1.082028750000000343e+02,-1.094060000000000343e+02,-1.093278750000000343e+02,-1.101091250000000343e+02,-1.112810000000000343e+02,-1.129528750000000343e+02,-1.132497500000000343e+02,-1.144685000000000343e+02,-1.139216250000000343e+02,-1.122497500000000343e+02,-1.115778750000000343e+02,-1.096560000000000343e+02,-1.087497500000000343e+02,-1.076091250000000343e+02,-1.074528750000000343e+02,-1.064528750000000343e+02,-1.091560000000000343e+02,-1.139997500000000343e+02,-1.159528750000000343e+02,-1.167810000000000343e+02,-1.170935000000000343e+02,-1.174997500000000343e+02,-1.159841250000000343e+02,-1.174528750000000343e+02,-1.174997500000000343e+02,-1.157653750000000343e+02,-1.168903750000000343e+02,-1.194372500000000343e+02,-1.214372500000000343e+02,-1.227810000000000343e+02,-1.270310000000000343e+02,-1.276247500000000343e+02,-1.261403750000000343e+02,-1.248435000000000343e+02,-1.224997500000000343e+02,-1.199528750000000343e+02,-1.174528750000000343e+02,-1.151247500000000343e+02,-1.117028750000000343e+02,-1.085622500000000343e+02,-1.062185000000000343e+02,-1.035466250000000343e+02,-9.945287500000003433e+01,-9.593725000000003433e+01,-9.256225000000000591e+01,-8.867162499999999170e+01,-8.487474999999999170e+01,-8.299974999999999170e+01,-8.276537499999999170e+01,-8.456224999999999170e+01,-9.071850000000000591e+01,-9.735912500000002012e+01,-1.055466250000000343e+02,-1.167653750000000343e+02,-1.289997500000000343e+02,-1.419997500000000343e+02,-1.552810000000000343e+02,-1.678747500000000343e+02,-1.752497500000000343e+02,-1.798747500000000343e+02,-1.802341250000000343e+02,-1.747966250000000343e+02,-1.641560000000000343e+02,-1.476872500000000343e+02,-1.270310000000000343e+02,-1.020153750000000059e+02,-7.807787500000000591e+01,-5.435912499999998460e+01,-3.101537499999997038e+01,-7.984124999999952621e+00,1.473462500000006159e+01,3.750025000000007935e+01,6.118775000000009356e+01,8.442212500000010778e+01,1.097502500000001362e+02,1.367033750000001362e+02,1.629377500000001646e+02,1.880940000000001930e+02,2.102190000000002215e+02,2.283752500000002215e+02,2.440627500000002215e+02,2.577815000000002215e+02,2.691408750000002215e+02,2.795315000000002215e+02,2.894533750000002215e+02,2.975627500000002215e+02,3.065158750000002215e+02,3.174690000000002215e+02,3.279690000000002215e+02,3.375315000000002215e+02,3.468127500000002215e+02,3.535627500000002215e+02,3.603283750000002215e+02,3.668752500000002215e+02,3.709690000000002215e+02,3.706565000000002215e+02,3.676096250000002215e+02,3.638440000000002215e+02,3.573440000000002215e+02,3.500940000000002215e+02,3.395471250000002215e+02,3.280002500000002215e+02,3.180315000000002215e+02,3.121252500000002215e+02,3.092815000000002215e+02,3.078283750000002215e+02,3.102033750000002215e+02,3.152190000000002215e+02,3.217658750000002215e+02,3.279065000000002215e+02,3.317033750000002215e+02,3.298752500000002215e+02,3.234690000000002215e+02,3.107971250000002215e+02,2.919221250000002215e+02,2.662033750000002215e+02,2.375471250000002215e+02,2.079065000000002215e+02,1.775471250000001646e+02,1.484846250000001646e+02,1.194533750000001362e+02,9.328150000000010778e+01,6.920337500000009356e+01,4.851587500000007935e+01,2.984400000000007225e+01,1.304712500000005804e+01,-2.921624999999950401e+00,-1.556224999999995795e+01,-2.470287499999996328e+01,-2.978099999999997038e+01,-3.212474999999997038e+01,-2.990599999999997038e+01,-2.324974999999996328e+01,-1.476537499999995617e+01,-1.718499999999949512e+00,1.171900000000005804e+01,2.657837500000006514e+01,4.167212500000007935e+01,5.693775000000009356e+01,7.065650000000009356e+01,8.245337500000010778e+01,9.354712500000013620e+01,1.031096250000001362e+02,1.121096250000001362e+02,1.218440000000001362e+02,1.305158750000001362e+02,1.414846250000001362e+02,1.537346250000001362e+02,1.671565000000001362e+02,1.835315000000001646e+02,2.014377500000002215e+02,2.227502500000002215e+02,2.447346250000002215e+02,2.694690000000002215e+02,2.936408750000002215e+02,3.170315000000002215e+02,3.400315000000002215e+02,3.479846250000002215e+02,3.416721250000002215e+02,3.198127500000002215e+02,2.833440000000002215e+02,2.315002500000002215e+02,1.660002500000001646e+02,8.789087500000010778e+01
-5.782812500000004974e+01,-1.199687500000000853e+02,-1.428906250000000853e+02,-1.307656250000000853e+02,-7.979687500000005684e+01,-3.990625000000002842e+01,-1.387500000000001066e+01,1.390625000000000888e+00,1.218750000000000666e+00,-1.359375000000000666e+00,-2.828125000000001332e+00,-5.250000000000002665e+00,-6.609375000000004441e+00,-4.718750000000003553e+00,-3.359375000000002665e+00,-1.562500000000088818e-02,4.890625000000003553e+00,6.125000000000003553e+00,7.703125000000004441e+00,6.031250000000003553e+00,4.062500000000001776e+00,4.250000000000002665e+00,5.015625000000003553e+00,7.765625000000005329e+00,7.031250000000004441e+00,6.593750000000004441e+00,3.421875000000002220e+00,-1.093750000000002776e-01,4.687499999999983347e-02,-3.843750000000003109e+00,-6.031250000000003553e+00,-8.156250000000003553e+00,-1.084375000000000533e+01,-6.390625000000002665e+00,-9.218750000000002220e-01,3.843750000000002665e+00,7.046875000000004441e+00,4.328125000000001776e+00,1.781250000000000888e+00,-1.875000000000004441e-01,2.187500000000000000e-01,3.937500000000002665e+00,5.140625000000003553e+00,9.203125000000007105e+00,1.007812500000000711e+01,7.656250000000005329e+00,7.328125000000005329e+00,-6.250000000000044409e-02,-3.375000000000002665e+00,-3.062500000000002220e+00,-2.953125000000002220e+00,4.765625000000002665e+00,7.078125000000003553e+00,7.359375000000003553e+00,6.406250000000003553e+00,-9.062500000000004441e-01,-2.156250000000001332e+00,-2.718750000000001776e+00,-3.343750000000002220e+00,1.265625000000001332e+00,5.312500000000006661e-01,-2.171875000000000888e+00,-2.421875000000001776e+00,-5.937500000000003553e+00,-4.390625000000002665e+00,-2.343750000000002776e-01,1.546875000000001110e+00,4.578125000000002665e+00,2.000000000000000888e+00,-1.218750000000000888e+00,-2.859375000000001776e+00,-4.250000000000002665e+00,-1.265625000000000888e+00,2.125000000000001776e+00,3.515625000000002665e+00,4.031250000000002665e+00,4.328125000000002665e+00,2.000000000000001332e+00,1.921875000000001332e+00,1.437500000000000888e+00,-2.687500000000001776e+00,-3.218750000000001776e+00,-5.750000000000003553e+00,-6.234375000000003553e+00,-2.234375000000001776e+00,-1.093750000000003331e-01,4.593750000000002665e+00,6.718750000000003553e+00,6.421875000000003553e+00,5.984375000000003553e+00,1.359375000000000666e+00,-5.781250000000006661e-01,-4.109375000000002665e+00,-8.281250000000005329e+00,-7.046875000000004441e+00,-8.343750000000005329e+00,-5.093750000000003553e+00,1.718750000000001388e-01,-7.812500000000013878e-02,2.515625000000001776e+00,1.359375000000000888e+00,-6.250000000000003331e-01,3.890625000000003109e+00,4.859375000000003553e+00,7.390625000000005329e+00,1.106250000000000711e+01,6.968750000000003553e+00,6.156250000000003553e+00,5.203125000000002665e+00,-3.906250000000003331e-01,9.687500000000006661e-01,2.328125000000001332e+00,3.046875000000001776e+00,1.045312500000000711e+01,1.354687500000001066e+01,1.087500000000000711e+01,8.187500000000007105e+00,5.468750000000017764e-01,-6.984375000000005329e+00,-6.890625000000005329e+00,-5.187500000000003553e+00,-3.281250000000002665e+00,6.875000000000007772e-01,9.375000000000000000e-02,-4.109375000000002665e+00,-6.546875000000004441e+00,-9.203125000000007105e+00,-1.012500000000000711e+01,-7.062500000000004441e+00,-2.031250000000001332e+00,1.718750000000001332e+00,4.640625000000003553e+00,5.843750000000003553e+00,2.234375000000001332e+00,-7.812500000000002220e-01,-3.218750000000001332e+00,-5.531250000000002665e+00,-6.046875000000003553e+00,-6.328125000000005329e+00,-7.531250000000005329e+00,-8.593750000000005329e+00,-5.781250000000003553e+00,-3.281250000000002220e+00,1.203125000000000888e+00,5.234375000000003553e+00,4.062500000000003553e+00,3.515625000000002665e+00,1.890625000000001332e+00,4.531250000000003331e-01,5.156250000000003331e-01,-7.656250000000005551e-01,-2.421875000000001332e+00,-2.343750000000001332e+00,-1.078125000000000666e+00,1.812500000000001332e+00,3.765625000000002665e+00,1.265625000000000888e+00,-1.453125000000000888e+00,-4.343750000000003553e+00,-5.187500000000003553e+00,-5.625000000000006661e-01,2.671875000000001332e+00,3.671875000000001776e+00,3.921875000000002665e+00,6.718750000000004441e-01,-1.046875000000000666e+00,-8.906250000000005551e-01,-7.968750000000004441e-01,9.531250000000007772e-01,2.234375000000001332e+00,3.875000000000001776e+00,3.765625000000001776e+00,8.437500000000004441e-01,-3.062500000000002220e+00,-7.250000000000004441e+00,-7.734375000000005329e+00,-4.609375000000003553e+00,-1.421875000000000666e+00,1.734375000000001110e+00,1.921875000000001332e+00,7.031250000000006661e-01,2.375000000000001776e+00,1.437500000000001110e+00,1.843750000000001110e+00,1.125000000000000666e+00,-2.359375000000001776e+00,-5.625000000000003331e-01,5.937500000000005551e-01,3.484375000000002665e+00,6.296875000000004441e+00,3.703125000000002665e+00,1.578125000000000888e+00,-1.687500000000000888e+00,-4.078125000000002665e+00,-2.390625000000001776e+00,-1.046875000000000444e+00,2.187500000000001110e-01,1.828125000000001110e+00,1.625000000000000888e+00,-1.562499999999998890e-01,-4.687499999999977796e-02,-1.921875000000000888e+00,-4.078125000000002665e+00,-1.218750000000001110e+00,-1.828125000000001110e+00,1.609375000000001332e+00,5.171875000000003553e+00,2.406250000000001776e+00,3.234375000000001776e+00,-1.281250000000000888e+00,-5.031250000000003553e+00,-5.062500000000003553e+00,-6.531250000000003553e+00,-2.843750000000001776e+00,-6.406250000000006661e-01,2.500000000000001776e+00,4.578125000000002665e+00,1.671875000000000888e+00,2.515625000000001776e+00,-5.000000000000000000e-01,-2.343750000000000888e+00,1.140625000000001110e+00,-5.625000000000002220e-01,7.812500000000004441e-01,2.484375000000001332e+00,4.062500000000002776e-01,6.718750000000005551e-01,9.531250000000007772e-01,2.343750000000002220e-01,-9.843750000000007772e-01,1.093750000000000000e-01,-1.546875000000000666e+00,-1.968750000000000888e+00,1.640625000000001110e+00,2.046875000000001332e+00,6.718750000000004441e+00,7.937500000000005329e+00,5.687500000000003553e+00,3.671875000000002665e+00,-3.312500000000002220e+00,-4.281250000000002665e+00,-4.734375000000003553e+00,-3.515625000000002220e+00,1.859375000000001332e+00,1.046875000000000444e+00,1.484375000000000888e+00,2.812500000000000000e-01,-2.203125000000001776e+00,-5.312500000000002220e-01,-8.125000000000004441e-01,2.500000000000002220e-01,-1.093750000000000000e-01,-2.234375000000001332e+00,-3.343750000000001776e+00,-5.828125000000003553e+00,-6.750000000000004441e+00,-6.656250000000004441e+00,-4.531250000000003553e+00,1.406249999999997780e-01,3.875000000000001776e+00,7.203125000000003553e+00,7.375000000000004441e+00,3.515625000000002220e+00,1.515625000000000888e+00,-2.046875000000000888e+00,-3.921875000000001776e+00,-1.296875000000000444e+00,-1.531250000000000444e+00,-6.406250000000001110e-01,-5.468750000000003331e-01,-3.750000000000002220e+00,-5.281250000000003553e+00,-4.281250000000003553e+00,-2.250000000000001776e+00,-5.000000000000002220e-01,2.968750000000002220e+00,2.531250000000002220e+00,1.125000000000000888e+00,3.984375000000002665e+00,2.234375000000001776e+00,2.015625000000001776e+00,9.218750000000006661e-01,-5.390625000000003553e+00,-6.265625000000004441e+00,-6.593750000000004441e+00,-3.843750000000002665e+00,2.937500000000001776e+00,4.375000000000003553e+00,6.781250000000003553e+00,7.812500000000004441e+00,6.734375000000004441e+00,1.146875000000000711e+01,1.214062500000000711e+01,1.117187500000000711e+01,1.020312500000000711e+01,4.781250000000003553e+00,5.953125000000004441e+00,9.578125000000007105e+00,1.417187500000000711e+01,1.871875000000001066e+01,1.451562500000000711e+01,5.687500000000002665e+00,-4.859375000000002665e+00,-1.453125000000000711e+01,-1.834375000000001066e+01,-1.729687500000001066e+01,-1.490625000000001066e+01,-1.010937500000000711e+01,-4.828125000000003553e+00,2.031249999999997780e-01,4.703125000000003553e+00,6.875000000000004441e+00,7.093750000000005329e+00,5.468750000000003553e+00,6.312500000000003553e+00,7.234375000000005329e+00,8.421875000000005329e+00,9.296875000000007105e+00,5.843750000000004441e+00,9.843750000000006661e-01,-4.125000000000003553e+00,-7.531250000000007105e+00,-8.281250000000007105e+00,-4.953125000000003553e+00,-1.000000000000001332e+00,4.687500000000002220e-01,4.999999999999997780e-01,-4.156250000000003553e+00,-1.035937500000000711e+01,-1.382812500000001066e+01,-1.520312500000001066e+01,-1.295312500000000711e+01,-8.218750000000003553e+00,-4.437500000000001776e+00,-1.781250000000000888e+00,-4.218750000000003331e-01,-2.031250000000001388e-01,-9.375000000000006939e-02,1.562500000000001735e-02,9.375000000000006939e-02,1.093750000000000833e-01,1.250000000000001110e-01,1.406250000000001110e-01,1.250000000000000833e-01,1.250000000000000833e-01,6.250000000000004163e-02,0.000000000000000000e+00,-3.125000000000002082e-02,-6.250000000000004163e-02,-7.812500000000005551e-02,-9.375000000000006939e-02,-6.250000000000004163e-02,-1.562500000000001041e-02,3.125000000000002082e-02,6.250000000000004163e-02,-6.938893903907228378e-18,-1.093750000000000833e-01,-1.406250000000001110e-01,-1.093750000000000833e-01,-6.938893903907228378e-18,1.562500000000001110e-01,2.343750000000001665e-01,2.031250000000001388e-01,9.375000000000005551e-02,-3.125000000000004163e-02,-1.718750000000001110e-01,-1.875000000000001110e-01,-1.093750000000000833e-01,-4.687500000000004163e-02,6.250000000000004163e-02,7.812500000000005551e-02,3.125000000000002082e-02,-1.421875000000000666e+00,-3.406250000000001776e+00,-6.828125000000003553e+00,-1.190625000000000711e+01,-1.231250000000000711e+01,-1.221875000000000711e+01,-8.312500000000005329e+00,-1.203125000000001110e+00,-3.093750000000002665e+00,-7.046875000000004441e+00,-1.539062500000000888e+01,-2.481250000000001421e+01,-2.125000000000001421e+01,-8.390625000000005329e+00,7.468750000000006217e+00,2.343750000000001421e+01,2.854687500000002132e+01,1.959375000000001421e+01,1.117187500000000711e+01,4.687500000000000000e-01,-7.953125000000005329e+00,-8.359375000000005329e+00,-1.157812500000000711e+01,-1.085937500000000711e+01,-5.421875000000004441e+00,2.437500000000001776e+00,1.134375000000000888e+01,1.489062500000001066e+01,1.321875000000000888e+01,2.796875000000000888e+00,-7.890625000000006217e+00,-1.259375000000000888e+01,-1.631250000000001066e+01,-9.765625000000005329e+00,-6.562499999999993339e-01,3.890625000000002665e+00,1.123437500000000711e+01,9.109375000000007105e+00,3.250000000000002665e+00,4.218750000000011102e-01,-5.093750000000002665e+00,-3.078125000000001332e+00,3.000000000000001776e+00,6.968750000000003553e+00,1.106250000000000711e+01,1.100000000000000711e+01,6.500000000000003553e+00,3.843750000000003109e+00,2.703125000000002220e+00,9.375000000000008882e-01,9.687500000000008882e-01,-2.281250000000001776e+00,-5.687500000000003553e+00,-4.312500000000001776e+00,-2.046875000000001332e+00,5.921875000000003553e+00,1.054687500000000711e+01,9.390625000000005329e+00,8.562500000000005329e+00,-1.718750000000004441e-01,-4.156250000000002665e+00,-4.843750000000002665e+00,-8.718750000000007105e+00,-4.453125000000003553e+00,-2.734375000000002220e+00,-1.046875000000000888e+00,5.875000000000003553e+00,8.000000000000005329e+00,9.906250000000007105e+00,1.007812500000000711e+01,6.156250000000003553e+00,2.250000000000001332e+00,-1.000000000000000666e+00,-1.531250000000000888e+00,-2.468750000000001776e+00,-9.531250000000006661e-01,1.906250000000001332e+00,4.218750000000003331e-01,2.406250000000001332e+00,2.531250000000001332e+00,-1.531250000000000888e+00,-5.156250000000003331e-01,-2.984375000000002220e+00,-5.328125000000003553e+00,-1.515625000000001110e+00,-3.124999999999977796e-02,4.203125000000002665e+00,9.171875000000007105e+00,9.296875000000007105e+00,7.718750000000005329e+00,4.875000000000003553e+00,1.437500000000000888e+00,-1.281250000000000444e+00,-2.406250000000001332e+00,-4.781250000000002665e+00,-6.828125000000004441e+00,-7.796875000000005329e+00,-6.890625000000003553e+00,-4.093750000000002665e+00,-2.234375000000001332e+00,7.812500000000005551e-01,3.750000000000002220e-01,-4.687500000000000000e-02,2.281250000000001776e+00,5.468750000000003331e-01,4.843750000000001110e-01,-1.375000000000001110e+00,-6.906250000000004441e+00,-7.265625000000004441e+00,-5.656250000000003553e+00,-4.843750000000000000e-01,6.562500000000004441e+00,1.007812500000000711e+01,9.406250000000007105e+00,4.828125000000003553e+00,1.593750000000000666e+00,-1.640625000000001110e+00,-2.375000000000001776e+00,-7.187500000000006661e-01,-2.000000000000001776e+00,-8.750000000000007772e-01,1.062500000000000666e+00,2.453125000000001776e+00,7.609375000000005329e+00,1.212500000000000711e+01,1.667187500000001066e+01,1.946875000000001421e+01,1.715625000000001066e+01,1.396875000000001066e+01,7.109375000000005329e+00,2.890625000000002220e+00,5.125000000000004441e+00,5.375000000000003553e+00,8.031250000000003553e+00,1.018750000000000355e+01,3.515625000000001776e+00,-8.750000000000002220e-01,-4.250000000000001776e+00,-1.007812500000000355e+01,-6.578125000000003553e+00,-3.125000000000003331e-01,5.531250000000001776e+00,1.439062500000000533e+01,1.731250000000000711e+01,1.151562500000000533e+01,2.656250000000000888e+00,-1.045312500000000533e+01,-2.351562500000001421e+01,-2.654687500000001421e+01,-2.576562500000001421e+01,-2.000000000000001421e+01,-1.093750000000000711e+01,-8.515625000000007105e+00,-7.687500000000004441e+00,-8.343750000000003553e+00,-1.014062500000000533e+01,-8.218750000000003553e+00,-5.250000000000003553e+00,-2.781250000000001776e+00,-7.187500000000003331e-01,-3.125000000000002082e-02,-7.812500000000005551e-02,-1.734375000000001332e+00,-3.406250000000002665e+00,-5.968750000000003553e+00,-9.593750000000007105e+00,-6.593750000000003553e+00,-3.625000000000001776e+00,-3.125000000000000000e-02,6.343750000000003553e+00,1.328125000000000444e+00,-4.703125000000003553e+00,-5.703125000000003553e+00,-1.135937500000000711e+01,-6.453125000000004441e+00,2.671875000000001776e+00,1.875000000000002220e-01,6.984375000000005329e+00,7.984375000000005329e+00,-1.656250000000001110e+00,-1.000000000000000444e+00,-1.382812500000001066e+01,-2.623437500000001776e+01,-2.212500000000001421e+01,-2.204687500000001421e+01,-1.070312500000000711e+01,5.906250000000003553e+00,9.671875000000005329e+00,1.721875000000001066e+01,2.231250000000001421e+01,2.142187500000001421e+01,2.728125000000001421e+01,2.540625000000001421e+01,1.762500000000001066e+01,1.195312500000000711e+01,-1.312500000000000000e+00,-7.671875000000003553e+00,-8.828125000000005329e+00,-1.131250000000000711e+01,-6.625000000000003553e+00,-5.640625000000003553e+00,-3.312500000000001776e+00,1.671875000000001554e+00,3.796875000000002665e+00,8.921875000000007105e+00,9.187500000000007105e+00,5.765625000000003553e+00,2.156250000000001332e+00,-4.328125000000003553e+00,-7.171875000000005329e+00,-6.203125000000004441e+00,-4.281250000000002665e+00,-2.062500000000001332e+00,-1.765625000000000888e+00,-2.843750000000001776e+00,-3.812500000000002665e+00,-3.281250000000002220e-01,6.593750000000004441e+00,1.445312500000001066e+01,2.081250000000001421e+01,2.020312500000001066e+01,1.465625000000000711e+01,5.296875000000002665e+00,-2.093750000000000888e+00,-5.640625000000003553e+00,-5.343750000000003553e+00,-2.515625000000001776e+00,-1.828125000000001776e+00,-4.687500000000006661e-01,-2.796875000000002665e+00,-2.765625000000002665e+00,-8.750000000000002220e-01,-1.203125000000000444e+00,2.031250000000003886e-01,-4.812500000000002665e+00,-1.578125000000001066e+01,-2.884375000000001776e+01,-4.134375000000002842e+01,-4.992187500000004263e+01,-4.889062500000003553e+01,-4.190625000000002842e+01,-3.556250000000002132e+01,-2.537500000000001421e+01,-1.589062500000000888e+01,-5.843750000000003553e+00,8.375000000000005329e+00,2.093750000000001421e+01,2.635937500000001776e+01,2.704687500000002132e+01,2.523437500000001421e+01,2.093750000000001066e+01,2.257812500000001421e+01,2.642187500000001421e+01,2.687500000000002132e+01,2.598437500000002132e+01,2.060937500000001421e+01,1.289062500000000711e+01,6.953125000000003553e+00,2.875000000000001776e+00,7.812500000000004441e-01,3.281250000000002220e-01,3.125000000000002220e-01,2.968750000000002220e-01,2.812500000000001665e-01,1.093750000000000694e-01,0.000000000000000000e+00,-1.093750000000000833e-01,-1.406250000000001110e-01,-9.375000000000008327e-02,-9.375000000000008327e-02,-4.687500000000004163e-02,-9.375000000000008327e-02,-1.387778780781445676e-17,1.093750000000000833e-01,1.718750000000001110e-01,2.812500000000001665e-01,1.562500000000000833e-01,4.687500000000002776e-02,-4.687500000000003469e-02,-9.375000000000006939e-02,3.125000000000001388e-02,1.406250000000000833e-01,3.593750000000002220e-01,1.171875000000000888e+00,2.468750000000001776e+00,4.640625000000003553e+00,9.625000000000005329e+00,1.487500000000000888e+01,2.067187500000001421e+01,2.631250000000002132e+01,2.257812500000001776e+01,1.464062500000001066e+01,1.640625000000000888e+00,-1.682812500000001066e+01,-2.498437500000002132e+01,-2.989062500000002132e+01,-2.890625000000001776e+01,-1.896875000000001421e+01,-1.298437500000000711e+01,-2.375000000000000444e+00,9.078125000000007105e+00,1.520312500000001066e+01,2.206250000000001421e+01,2.057812500000001421e+01,1.189062500000000711e+01,5.468750000000003553e+00,-4.109375000000001776e+00,-8.843750000000003553e+00,-6.250000000000003553e+00,-6.593750000000004441e+00,-1.703125000000001332e+00,1.437500000000000888e+00,4.218750000000002220e-01,1.421875000000001110e+00,-3.703125000000002220e+00,-6.390625000000003553e+00,-6.343750000000003553e+00,-5.171875000000003553e+00,4.234375000000001776e+00,8.921875000000005329e+00,9.250000000000005329e+00,5.453125000000002665e+00,-6.765625000000004441e+00,-1.303125000000000888e+01,-1.370312500000001066e+01,-8.437500000000007105e+00,1.671875000000000666e+00,6.343750000000003553e+00,6.796875000000005329e+00,2.890625000000002220e+00,-3.640625000000002220e+00,-6.890625000000004441e+00,-7.671875000000005329e+00,-7.203125000000005329e+00,-4.156250000000002665e+00,-5.000000000000001110e-01,1.078125000000000888e+00,1.359375000000000888e+00,6.406250000000005551e-01,-4.843750000000002665e+00,-7.484375000000004441e+00,-7.093750000000004441e+00,-8.437500000000005329e+00,-1.906250000000001776e+00,1.000000000000000222e+00,5.468750000000004441e-01,4.687500000000002665e+00,8.593750000000004441e-01,1.468750000000000888e+00,6.578125000000003553e+00,4.875000000000002665e+00,7.906250000000005329e+00,6.609375000000004441e+00,-1.000000000000000888e+00,-1.156250000000001110e+00,-3.203125000000002665e+00,-4.265625000000003553e+00,1.343750000000000888e+00,1.125000000000000888e+00,2.156250000000001776e+00,6.078125000000004441e+00,2.734375000000002220e+00,1.781250000000001332e+00,1.250000000000000000e-01,-4.328125000000003553e+00,9.375000000000000000e-02,4.578125000000003553e+00,7.265625000000005329e+00,9.484375000000007105e+00,1.671875000000001332e+00,-8.375000000000005329e+00,-1.475000000000001066e+01,-1.790625000000001421e+01,-1.356250000000001066e+01,-4.000000000000001776e+00,4.671875000000003553e+00,9.296875000000007105e+00,1.143750000000000711e+01,9.609375000000007105e+00,3.593750000000002220e+00,9.531250000000004441e-01,2.187500000000001110e-01,-2.765625000000001776e+00,-4.843750000000000000e-01,-1.296875000000000000e+00,-5.750000000000003553e+00,-5.062500000000003553e+00,-5.406250000000003553e+00,-5.468750000000008882e-01,5.796875000000004441e+00,8.828125000000007105e+00,8.640625000000007105e+00,5.000000000000013323e-01,-6.343750000000003553e+00,-1.021875000000000711e+01,-1.109375000000000711e+01,-3.281250000000001776e+00,2.953125000000001776e+00,5.812500000000003553e+00,8.875000000000005329e+00,4.703125000000002665e+00,2.062500000000001332e+00,2.828125000000001776e+00,8.906250000000006661e-01,3.750000000000002665e+00,4.296875000000002665e+00,-2.187499999999998890e-01,-1.593750000000000666e+00,-6.265625000000003553e+00,-7.875000000000003553e+00,-5.546875000000003553e+00,-5.281250000000003553e+00,-1.515625000000000888e+00,1.875000000000000000e-01,3.343750000000002220e+00,6.984375000000005329e+00,7.984375000000005329e+00,8.296875000000005329e+00,5.437500000000003553e+00,2.953125000000001776e+00,-1.562500000000000000e-02,5.625000000000002220e-01,-9.218750000000008882e-01,-3.328125000000002665e+00,-3.109375000000002665e+00,-7.781250000000004441e+00,-5.718750000000002665e+00,-2.109375000000001332e+00,-2.109375000000001332e+00,1.312500000000000888e+00,2.343750000000002220e-01,-6.875000000000005551e-01,3.031250000000001776e+00,5.375000000000002665e+00,7.875000000000003553e+00,7.406250000000003553e+00,2.718750000000001332e+00,-4.218750000000003886e-01,-3.468750000000002220e+00,-5.296875000000003553e+00,-3.328125000000002220e+00,-4.625000000000003553e+00,-4.609375000000003553e+00,4.531250000000002220e-01,-6.406250000000006661e-01,3.593750000000001332e+00,6.640625000000003553e+00,1.406250000000000000e-01,2.015625000000000888e+00,-2.312500000000000888e+00,-7.375000000000004441e+00,-4.375000000000003553e+00,-7.546875000000005329e+00,-6.671875000000004441e+00,-2.906250000000001776e+00,-1.796875000000001110e+00,1.515625000000001110e+00,4.812500000000003553e+00,7.468750000000005329e+00,8.468750000000005329e+00,8.046875000000005329e+00,4.906250000000003553e+00,-3.265625000000001776e+00,-9.125000000000005329e+00,-1.126562500000000711e+01,-9.687500000000007105e+00,-7.656250000000013323e-01,9.078125000000005329e+00,1.275000000000000888e+01,1.235937500000000888e+01,5.406250000000003553e+00,-7.562500000000006217e+00,-1.467187500000001066e+01,-1.928125000000001421e+01,-1.564062500000001066e+01,-3.125000000000001776e+00,8.781250000000007105e+00,2.226562500000001421e+01,2.342187500000001421e+01,1.542187500000000888e+01,2.687500000000000888e+00,-1.421875000000001066e+01,-1.857812500000001421e+01,-1.418750000000001066e+01,-6.625000000000005329e+00,3.281250000000002220e+00,5.265625000000003553e+00,3.296875000000002220e+00,3.031250000000002220e+00,2.421875000000001776e+00,8.921875000000005329e+00,8.906250000000005329e+00,4.093750000000001776e+00,6.250000000000000000e-01,-1.387500000000000888e+01,-1.490625000000001066e+01,-1.045312500000000711e+01,-8.625000000000007105e+00,4.156250000000001776e+00,5.046875000000002665e+00,3.421875000000002665e+00,4.843750000000003553e+00,-7.031250000000003331e-01,1.093750000000000444e+00,1.062500000000000222e+00,-2.921875000000001776e+00,-4.203125000000002665e+00,-8.468750000000005329e+00,-7.968750000000004441e+00,-2.296875000000001776e+00,6.781250000000005329e+00,1.553125000000001066e+01,1.873437500000001421e+01,1.828125000000001421e+01,1.106250000000000711e+01,4.703125000000003553e+00,3.078125000000001776e+00,2.046875000000000444e+00,3.531250000000001776e+00,5.343750000000003553e+00,2.062500000000000888e+00,-3.468750000000001776e+00,-1.015625000000000711e+01,-2.215625000000001421e+01,-3.198437500000002132e+01,-3.929687500000002132e+01,-4.056250000000002132e+01,-3.109375000000001776e+01,-1.625000000000001066e+01,2.359375000000001776e+00,1.629687500000001066e+01,2.320312500000001421e+01,2.167187500000001421e+01,1.332812500000000888e+01,1.234375000000000444e+00,-1.384375000000000888e+01,-2.328125000000001421e+01,-2.739062500000001776e+01,-2.096875000000001421e+01,-2.859375000000001776e+00,1.534375000000000711e+01,3.018750000000001421e+01,3.525000000000002132e+01,2.709375000000001421e+01,1.321875000000000711e+01,1.000000000000000888e+00,-7.984375000000007105e+00,-1.081250000000000711e+01,-6.046875000000003553e+00,-2.281250000000001776e+00,2.265625000000001776e+00,7.750000000000005329e+00,5.750000000000003553e+00,3.375000000000002665e+00,5.312500000000004441e-01,-2.843750000000001776e+00,7.031250000000004441e-01,6.156250000000003553e+00,1.281250000000000711e+01,1.693750000000001066e+01,1.792187500000001066e+01,1.668750000000001066e+01,1.162500000000000888e+01,6.625000000000005329e+00,-1.203125000000000888e+00,-6.718750000000005329e+00,-1.037500000000000711e+01,-1.278125000000000888e+01,-1.331250000000000888e+01,-1.892187500000001421e+01,-2.235937500000001421e+01,-2.212500000000001421e+01,-1.492187500000001066e+01,4.312500000000001776e+00,2.576562500000001421e+01,4.546875000000002842e+01,5.393750000000004263e+01,4.748437500000002842e+01,3.210937500000001421e+01,9.515625000000003553e+00,-5.328125000000003553e+00,-1.350000000000000888e+01,-1.539062500000001066e+01,-1.045312500000000711e+01,-1.110937500000000888e+01,-8.750000000000007105e+00,-7.359375000000004441e+00,-6.359375000000003553e+00,-9.375000000000004441e-01,-3.390625000000002665e+00,-6.109375000000005329e+00,-1.271875000000000888e+01,-2.207812500000001421e+01,-2.187500000000001421e+01,-2.334375000000001421e+01,-1.793750000000001421e+01,-1.090625000000000711e+01,-1.070312500000000711e+01,-6.812500000000003553e+00,-7.375000000000003553e+00,-4.484375000000001776e+00,1.859375000000001776e+00,8.718750000000005329e+00,1.537500000000001066e+01,1.382812500000000711e+01,1.154687500000000533e+01,1.859375000000000000e+00,-5.890625000000003553e+00,-6.687500000000003553e+00,-1.004687500000000711e+01,-4.640625000000002665e+00,-3.765625000000001776e+00,-6.375000000000003553e+00,-7.500000000000003553e+00,-1.415625000000000711e+01,-1.396875000000001066e+01,-1.282812500000001066e+01,-7.875000000000006217e+00,7.031249999999994449e-01,6.437500000000003553e+00,1.431250000000000711e+01,3.067187500000001421e+01,5.692187500000002842e+01,9.259375000000005684e+01,1.361875000000000853e+02,1.415312500000000853e+02,1.091562500000000568e+02,4.307812500000001421e+01
-1.093750000000000711e+02,-1.506875000000000568e+02,-4.050000000000001421e+01,1.625000000000000888e+00,-1.112500000000000533e+01,-8.812500000000005329e+00,4.500000000000001776e+00,1.106250000000000711e+01,9.375000000000017764e-01,-6.812500000000001776e+00,-1.250000000000000444e+00,6.249999999999911182e-02,-2.625000000000001776e+00,-2.499999999999991118e-01,-1.562500000000000222e+00,-4.187500000000002665e+00,-3.750000000000011102e-01,5.937500000000002665e+00,9.187500000000005329e+00,2.250000000000001776e+00,-6.062500000000001776e+00,-3.125000000000001332e+00,3.000000000000000888e+00,3.562500000000000888e+00,4.250000000000001776e+00,6.562500000000003553e+00,1.250000000000004441e-01,-6.312500000000002665e+00,-3.812500000000001776e+00,1.125000000000000222e+00,8.187500000000003553e+00,3.125000000000001776e+00,-1.443750000000000533e+01,-1.593750000000000533e+01,-3.750000000000000000e-01,1.418750000000000533e+01,1.581250000000000533e+01,-3.125000000000017764e-01,-1.512500000000000711e+01,-7.875000000000003553e+00,9.750000000000003553e+00,9.875000000000003553e+00,-4.000000000000000888e+00,-5.937500000000002665e+00,3.062500000000000888e+00,1.206250000000000533e+01,8.437500000000003553e+00,-7.437500000000003553e+00,-5.562500000000002665e+00,1.875000000000000888e+00,-7.312500000000003553e+00,-5.437500000000002665e+00,1.231250000000000355e+01,1.593750000000000533e+01,-3.375000000000001776e+00,-1.212500000000000533e+01,2.750000000000001776e+00,2.187500000000001776e+00,-7.062500000000003553e+00,2.062500000000001332e+00,4.312500000000001776e+00,3.125000000000002220e-01,4.125000000000002665e+00,-5.187500000000001776e+00,-1.475000000000000711e+01,-2.500000000000008882e-01,1.437500000000000711e+01,5.062500000000001776e+00,-7.375000000000003553e+00,7.500000000000008882e-01,4.312500000000001776e+00,-8.875000000000003553e+00,-7.750000000000003553e+00,6.125000000000001776e+00,8.812500000000003553e+00,3.687500000000002220e+00,-3.687500000000001332e+00,-8.250000000000003553e+00,2.625000000000001776e+00,1.137500000000000533e+01,1.437500000000000000e+00,-8.875000000000003553e+00,-7.875000000000002665e+00,2.312500000000000888e+00,5.312500000000001776e+00,-6.125000000000003553e+00,-5.375000000000002665e+00,9.812500000000003553e+00,1.075000000000000355e+01,-3.312500000000001776e+00,-5.750000000000002665e+00,3.437500000000001776e+00,3.750000000000000000e-01,-3.062500000000001776e+00,8.125000000000002220e-01,-7.250000000000003553e+00,-9.687500000000003553e+00,3.812500000000000888e+00,9.937500000000003553e+00,3.687500000000001776e+00,-5.625000000000002665e+00,-4.875000000000002665e+00,5.000000000000005551e-01,-5.625000000000000000e-01,7.125000000000002665e+00,1.043750000000000533e+01,-3.375000000000000444e+00,-3.125000000000000444e+00,3.937500000000001776e+00,1.250000000000000666e+00,3.375000000000001776e+00,-2.812500000000001776e+00,-9.937500000000005329e+00,4.250000000000001776e+00,1.100000000000000533e+01,7.312500000000003553e+00,1.037500000000000355e+01,-2.937500000000000888e+00,-1.693750000000000711e+01,-2.812500000000001776e+00,4.187500000000001776e+00,-2.437500000000000888e+00,4.437500000000003553e+00,3.500000000000002220e+00,-6.250000000000003553e+00,1.687500000000000888e+00,1.312500000000000888e+00,-1.481250000000000711e+01,-6.125000000000003553e+00,1.137500000000000533e+01,3.750000000000000000e-01,-7.375000000000003553e+00,8.000000000000003553e+00,1.068750000000000355e+01,-4.187500000000001776e+00,-1.062500000000000355e+01,-3.250000000000000888e+00,5.437500000000002665e+00,2.625000000000000888e+00,-6.250000000000003553e+00,-4.375000000000002665e+00,2.220446049250313081e-16,-6.375000000000001776e+00,-3.750000000000000888e+00,1.012500000000000355e+01,1.143750000000000533e+01,-5.000000000000000000e-01,-1.218750000000000533e+01,-7.937500000000003553e+00,1.137500000000000533e+01,1.468750000000000711e+01,-6.812500000000003553e+00,-1.743750000000000711e+01,-1.625000000000001776e+00,1.081250000000000355e+01,4.375000000000001776e+00,1.187500000000000888e+00,3.812500000000001776e+00,-7.312500000000002665e+00,-1.312500000000000533e+01,1.375000000000000000e+00,7.937500000000002665e+00,5.437500000000002665e+00,6.625000000000003553e+00,-4.187500000000001776e+00,-1.475000000000000711e+01,6.250000000000000000e-01,1.631250000000000711e+01,2.187500000000000000e+00,-1.537500000000000711e+01,-4.750000000000001776e+00,1.281250000000000533e+01,1.137500000000000533e+01,-5.625000000000004441e-01,-1.087500000000000533e+01,-1.437500000000000711e+01,-4.562500000000001776e+00,1.275000000000000533e+01,1.375000000000000533e+01,-6.250000000000001776e+00,-1.393750000000000533e+01,8.750000000000000000e-01,9.312500000000003553e+00,5.062500000000002665e+00,-1.250000000000000222e+00,-3.750000000000001776e+00,-3.125000000000001332e+00,-5.250000000000002665e+00,1.187500000000000000e+00,1.293750000000000533e+01,7.437500000000003553e+00,-7.937500000000003553e+00,-9.187500000000003553e+00,4.062500000000002665e+00,5.312500000000003553e+00,-8.812500000000003553e+00,-3.812500000000001776e+00,1.337500000000000533e+01,3.125000000000000000e+00,-1.312500000000000711e+01,-8.125000000000000000e-01,1.075000000000000533e+01,9.375000000000000000e-01,-9.562500000000005329e+00,-7.750000000000004441e+00,5.187500000000002665e+00,9.187500000000003553e+00,1.875000000000000888e+00,-5.000000000000002220e-01,-4.687500000000001776e+00,-2.375000000000000888e+00,5.937500000000002665e+00,-3.562500000000001776e+00,-1.343750000000000711e+01,1.187500000000000888e+00,1.475000000000000711e+01,5.000000000000000000e-01,-8.812500000000003553e+00,4.937500000000002665e+00,4.562500000000002665e+00,-5.625000000000001776e+00,-4.250000000000001776e+00,-2.500000000000000000e-01,8.125000000000003553e+00,5.125000000000002665e+00,-1.187500000000000355e+01,-3.687500000000000888e+00,1.431250000000000711e+01,5.625000000000000000e-01,-1.262500000000000533e+01,2.312500000000001776e+00,7.812500000000003553e+00,-2.062500000000000444e+00,-4.812500000000001776e+00,-3.750000000000001776e+00,2.375000000000000888e+00,9.687500000000003553e+00,7.312500000000003553e+00,-2.125000000000000888e+00,-5.187500000000002665e+00,-8.125000000000004441e-01,-5.062500000000002665e+00,-4.312500000000001776e+00,6.500000000000003553e+00,3.812500000000001776e+00,-1.125000000000000666e+00,1.937500000000000888e+00,-1.625000000000000888e+00,-8.375000000000003553e+00,-1.750000000000000888e+00,1.206250000000000533e+01,5.937500000000002665e+00,-1.168750000000000355e+01,-8.875000000000003553e+00,6.937500000000003553e+00,8.062500000000003553e+00,-6.437500000000003553e+00,-1.437500000000000711e+01,-4.500000000000001776e+00,1.168750000000000355e+01,1.393750000000000533e+01,-2.000000000000001776e+00,-9.375000000000003553e+00,2.812500000000000888e+00,7.125000000000002665e+00,-2.125000000000000888e+00,-9.437500000000003553e+00,-6.000000000000001776e+00,1.037500000000000355e+01,1.181250000000000355e+01,-9.187500000000003553e+00,-1.168750000000000355e+01,2.562500000000000888e+00,-1.875000000000000000e-01,-2.187500000000000888e+00,8.500000000000003553e+00,2.625000000000001776e+00,-6.937500000000003553e+00,-4.375000000000000000e-01,1.062500000000000888e+00,2.312500000000001332e+00,8.062500000000003553e+00,1.000000000000000000e+00,-1.043750000000000533e+01,-1.068750000000000533e+01,-2.500000000000000000e-01,6.375000000000002665e+00,5.250000000000001776e+00,5.937500000000002665e+00,-1.187500000000000000e+00,-8.500000000000003553e+00,2.187500000000000888e+00,1.068750000000000533e+01,8.875000000000005329e+00,5.062500000000002665e+00,-3.250000000000002665e+00,-7.750000000000004441e+00,-3.125000000000001776e+00,7.187500000000003553e+00,1.343750000000000711e+01,1.062500000000000355e+01,7.437500000000003553e+00,-3.000000000000000000e+00,-1.975000000000001066e+01,-1.468750000000000711e+01,6.500000000000003553e+00,7.625000000000003553e+00,-8.812500000000003553e+00,-1.437500000000000711e+01,-1.375000000000000888e+00,1.387500000000000533e+01,1.168750000000000355e+01,-4.375000000000002665e+00,-8.937500000000003553e+00,2.937500000000000888e+00,7.437500000000002665e+00,1.750000000000000888e+00,3.750000000000001110e-01,4.250000000000001776e+00,6.875000000000003553e+00,-1.187500000000000000e+00,-1.337500000000000533e+01,-7.312500000000003553e+00,7.250000000000002665e+00,1.125000000000000888e+00,-6.750000000000003553e+00,6.750000000000001776e+00,1.031250000000000355e+01,-7.312500000000003553e+00,-1.450000000000000533e+01,-6.437500000000001776e+00,-7.500000000000004441e-01,6.250000000000002776e-02,1.875000000000000833e-01,6.250000000000002776e-02,-3.750000000000002220e-01,-4.375000000000002220e-01,1.250000000000000555e-01,4.375000000000002220e-01,6.250000000000005551e-02,-2.500000000000001110e-01,-6.250000000000002776e-02,1.250000000000000555e-01,1.250000000000000555e-01,1.250000000000000555e-01,0.000000000000000000e+00,-1.250000000000000555e-01,-6.250000000000002776e-02,0.000000000000000000e+00,6.250000000000002776e-02,1.250000000000000555e-01,-1.250000000000000833e-01,-3.750000000000002220e-01,6.250000000000000000e-02,5.000000000000002220e-01,6.250000000000000000e-02,-3.125000000000001665e-01,-6.250000000000002776e-02,-1.250000000000000833e-01,-2.500000000000001110e-01,3.125000000000002220e-01,5.000000000000002220e-01,-1.875000000000001110e-01,-3.125000000000001665e-01,3.125000000000001665e-01,2.500000000000001110e-01,-4.375000000000002220e-01,-5.000000000000002220e-01,1.875000000000001110e-01,5.625000000000002220e-01,6.250000000000000000e-02,-3.750000000000002220e-01,-1.250000000000000833e-01,1.250000000000000555e-01,1.250000000000000555e-01,1.250000000000000555e-01,-5.875000000000001776e+00,-1.393750000000000533e+01,-4.125000000000001776e+00,7.250000000000003553e+00,2.125000000000000888e+00,5.125000000000002665e+00,6.375000000000003553e+00,-1.318750000000000533e+01,-2.825000000000001421e+01,-2.125000000000001066e+01,8.812500000000003553e+00,3.712500000000001421e+01,2.162500000000000711e+01,-6.937500000000003553e+00,-2.875000000000001776e+00,-3.062500000000001776e+00,-1.106250000000000533e+01,5.000000000000001776e+00,1.087500000000000355e+01,-9.125000000000003553e+00,-1.906250000000000711e+01,-7.750000000000001776e+00,1.181250000000000355e+01,2.537500000000001066e+01,1.300000000000000711e+01,-1.375000000000000711e+01,-1.212500000000000711e+01,2.437500000000001332e+00,-4.812500000000001776e+00,-9.812500000000005329e+00,-3.375000000000001332e+00,3.875000000000001776e+00,1.262500000000000533e+01,8.312500000000003553e+00,-1.500000000000000666e+00,-4.125000000000000888e+00,-6.500000000000002665e+00,-2.625000000000001776e+00,8.750000000000001110e-01,-1.875000000000000555e-01,8.500000000000003553e+00,1.237500000000000533e+01,2.500000000000000000e-01,-5.875000000000002665e+00,-4.750000000000001776e+00,-3.375000000000000888e+00,8.625000000000003553e+00,1.481250000000000533e+01,-4.687500000000003553e+00,-2.412500000000001066e+01,-1.037500000000000355e+01,1.787500000000001066e+01,1.712500000000000711e+01,1.249999999999995559e-01,-4.312500000000001776e+00,-2.375000000000000888e+00,2.875000000000001776e+00,-1.062500000000000000e+00,-9.500000000000003553e+00,-5.625000000000000000e-01,4.250000000000000888e+00,-1.375000000000001110e+00,-2.062500000000000888e+00,-2.312500000000000888e+00,6.937500000000002665e+00,1.662500000000000711e+01,6.250000000000000000e-01,-1.456250000000000711e+01,-5.000000000000000000e-01,9.437500000000003553e+00,-2.812500000000001776e+00,-5.562500000000002665e+00,8.125000000000004441e-01,1.125000000000000444e+00,5.125000000000001776e+00,1.875000000000000444e+00,-6.000000000000003553e+00,2.500000000000000000e-01,2.437500000000001332e+00,-1.062500000000000444e+00,-1.187500000000000666e+00,-7.937500000000004441e+00,-2.937500000000001776e+00,1.393750000000000533e+01,9.062500000000003553e+00,-4.250000000000001776e+00,5.000000000000004441e-01,2.875000000000001332e+00,-6.250000000000001776e+00,-2.937500000000000444e+00,8.187500000000003553e+00,3.312500000000000444e+00,-1.143750000000000533e+01,-1.250000000000000533e+01,2.000000000000000888e+00,1.168750000000000711e+01,2.937500000000001776e+00,-9.625000000000005329e+00,-2.562500000000001776e+00,6.125000000000002665e+00,-8.125000000000008882e-01,5.000000000000000000e-01,4.687500000000001776e+00,-2.812500000000001332e+00,-4.375000000000001776e+00,-4.687500000000001776e+00,-1.031250000000000533e+01,-1.250000000000008882e-01,2.050000000000001066e+01,1.675000000000000711e+01,-9.250000000000003553e+00,-1.843750000000000711e+01,-6.250000000000000000e-02,1.606250000000000711e+01,3.375000000000000888e+00,-1.412500000000000711e+01,-3.187500000000001776e+00,7.625000000000002665e+00,-8.750000000000004441e-01,4.375000000000004441e-01,5.687500000000002665e+00,-2.812500000000000888e+00,1.687500000000001776e+00,2.268750000000001066e+01,1.431250000000000533e+01,-1.656250000000000711e+01,-1.137500000000000533e+01,9.562500000000005329e+00,3.062500000000001776e+00,1.625000000000000888e+00,8.625000000000003553e+00,1.874999999999991118e-01,-1.875000000000000000e-01,-6.249999999999911182e-02,-1.112500000000000711e+01,-2.875000000000002665e+00,4.562500000000001776e+00,-7.500000000000003553e+00,3.124999999999991118e-01,2.100000000000001066e+01,1.481250000000000888e+01,-5.312500000000001776e+00,-1.068750000000000711e+01,-2.625000000000002665e+00,-5.875000000000003553e+00,-2.350000000000001066e+01,-1.375000000000000711e+01,1.593750000000000711e+01,1.200000000000000711e+01,-1.000000000000000355e+01,-1.131250000000000355e+01,-2.750000000000000888e+00,6.250000000000002776e-02,0.000000000000000000e+00,0.000000000000000000e+00,0.000000000000000000e+00,0.000000000000000000e+00,0.000000000000000000e+00,-6.250000000000002776e-02,-1.250000000000000555e-01,6.250000000000002776e-02,1.875000000000000833e-01,-6.812500000000003553e+00,-1.362500000000000711e+01,3.250000000000001776e+00,1.550000000000000711e+01,1.312500000000000888e+00,4.625000000000001776e+00,2.312500000000000000e+00,-3.181250000000001776e+01,-1.800000000000001066e+01,3.231250000000001421e+01,2.681250000000001421e+01,-1.781250000000001066e+01,-3.562500000000001421e+01,1.068750000000000711e+01,5.206250000000002842e+01,-5.375000000000000000e+00,-5.181250000000002132e+01,-1.031250000000000178e+01,6.562500000000002665e+00,-6.750000000000003553e+00,7.062500000000003553e+00,1.118750000000000533e+01,-6.250000000000008882e-01,-4.375000000000000000e-01,9.312500000000005329e+00,1.062500000000000533e+01,5.625000000000000000e-01,1.137500000000000533e+01,2.300000000000001066e+01,-9.562500000000007105e+00,-3.037500000000001421e+01,-1.562500000000000000e+00,1.975000000000000711e+01,2.250000000000000000e+00,-2.000000000000001066e+01,-8.062500000000005329e+00,1.475000000000000533e+01,8.062500000000003553e+00,-1.018750000000000355e+01,-4.562500000000001776e+00,1.918750000000000711e+01,1.506250000000000711e+01,-1.893750000000000711e+01,-2.031250000000000711e+01,9.687500000000003553e+00,9.687500000000003553e+00,-9.000000000000003553e+00,-1.250000000000000888e+00,9.625000000000003553e+00,-4.062500000000001776e+00,-1.256250000000000533e+01,-1.750000000000000888e+00,7.437500000000002665e+00,1.143750000000000533e+01,1.481250000000000711e+01,8.625000000000003553e+00,-5.437500000000003553e+00,-8.812500000000003553e+00,-3.500000000000000888e+00,-1.875000000000000444e+00,1.125000000000000666e+00,6.062500000000001776e+00,8.749999999999995559e-01,-7.750000000000003553e+00,-8.750000000000000000e-01,3.625000000000001776e+00,-4.625000000000001776e+00,-1.562500000000000444e+00,8.062500000000003553e+00,5.937500000000001776e+00,-6.687500000000003553e+00,-2.031250000000001066e+01,-2.150000000000001066e+01,-1.487500000000000711e+01,-1.687500000000000711e+01,-6.187500000000000888e+00,1.550000000000000711e+01,-6.250000000000007105e+00,-3.568750000000002132e+01,-3.125000000000000000e-01,3.725000000000002132e+01,1.481250000000000711e+01,-3.375000000000002665e+00,7.312500000000003553e+00,1.000000000000000888e+00,-5.187500000000002665e+00,1.112500000000000533e+01,1.887500000000000711e+01,9.500000000000003553e+00,1.875000000000000888e+00,3.125000000000001110e-01,1.875000000000000833e-01,1.875000000000000833e-01,1.250000000000000555e-01,-1.875000000000001110e-01,-1.875000000000001110e-01,3.750000000000002220e-01,5.000000000000002220e-01,-1.250000000000000555e-01,-3.125000000000001110e-01,0.000000000000000000e+00,0.000000000000000000e+00,-1.250000000000000555e-01,6.250000000000002776e-02,1.875000000000000833e-01,-6.250000000000002776e-02,-2.500000000000001110e-01,-1.875000000000000833e-01,1.875000000000000833e-01,5.000000000000002220e-01,1.250000000000000555e-01,-2.500000000000001110e-01,-1.250000000000000555e-01,-6.250000000000002776e-02,-1.250000000000000555e-01,1.250000000000000833e-01,3.750000000000002220e-01,0.000000000000000000e+00,-2.500000000000001110e-01,3.125000000000001110e-01,8.125000000000004441e-01,3.000000000000000888e+00,6.750000000000002665e+00,4.562500000000002665e+00,7.250000000000003553e+00,2.200000000000001066e+01,1.018750000000000711e+01,-2.243750000000000711e+01,-2.175000000000001066e+01,-4.937500000000002665e+00,-3.312500000000001332e+00,-5.500000000000001776e+00,-4.187500000000001776e+00,-1.875000000000004441e-01,-2.187500000000000888e+00,6.250000000000044409e-02,1.693750000000000711e+01,1.831250000000001066e+01,1.750000000000000888e+00,-6.562500000000003553e+00,-7.437500000000003553e+00,-1.375000000000000888e+00,1.249999999999999778e+00,-6.562500000000002665e+00,-7.500000000000000000e-01,7.062500000000002665e+00,-1.500000000000000888e+00,-3.187500000000000888e+00,6.125000000000003553e+00,3.750000000000001776e+00,-1.206250000000000711e+01,-1.187500000000000533e+01,3.437500000000000888e+00,5.125000000000001776e+00,1.025000000000000355e+01,1.825000000000000711e+01,-2.562500000000000000e+00,-2.431250000000001066e+01,-1.593750000000000711e+01,9.375000000000008882e-01,7.625000000000003553e+00,1.187500000000000533e+01,1.031250000000000355e+01,-7.875000000000004441e+00,-1.400000000000000711e+01,6.187500000000003553e+00,6.750000000000004441e+00,-1.437500000000000711e+01,-6.437500000000003553e+00,1.243750000000000533e+01,2.500000000000000000e-01,-9.187500000000003553e+00,8.000000000000003553e+00,1.143750000000000355e+01,-1.018750000000000533e+01,-2.056250000000000711e+01,7.500000000000017764e-01,1.856250000000000711e+01,-4.062500000000003553e+00,-1.581250000000000711e+01,1.075000000000000711e+01,1.506250000000000711e+01,-7.437500000000003553e+00,-1.687500000000000711e+01,-5.000000000000000000e-01,2.525000000000001066e+01,1.356250000000000533e+01,-1.787500000000000711e+01,-1.275000000000000711e+01,4.062500000000001776e+00,5.500000000000002665e+00,2.875000000000001332e+00,-3.875000000000001332e+00,-2.437500000000000888e+00,2.875000000000001332e+00,-5.000000000000002220e-01,7.000000000000002665e+00,9.687500000000003553e+00,-1.093750000000000711e+01,-1.793750000000000711e+01,1.250000000000001776e+00,1.856250000000000711e+01,1.243750000000000533e+01,-4.500000000000002665e+00,-2.187500000000001332e+00,-2.250000000000001332e+00,-2.200000000000001066e+01,-1.362500000000000533e+01,1.662500000000000711e+01,8.437500000000005329e+00,-9.812500000000003553e+00,7.250000000000000888e+00,1.368750000000000355e+01,-4.187500000000001776e+00,-3.187500000000001332e+00,-1.125000000000000444e+00,-8.312500000000003553e+00,6.562500000000003553e+00,1.125000000000000533e+01,-9.125000000000003553e+00,-7.125000000000001776e+00,3.875000000000001776e+00,-7.750000000000002665e+00,-8.875000000000003553e+00,1.681250000000000711e+01,2.056250000000000711e+01,-5.687500000000001776e+00,-1.218750000000000533e+01,-4.687500000000002665e+00,-8.437500000000003553e+00,-4.625000000000001776e+00,8.125000000000003553e+00,1.168750000000000533e+01,1.937500000000000888e+00,-7.687500000000003553e+00,1.250000000000000888e+00,7.062500000000003553e+00,-5.187500000000003553e+00,-5.437500000000003553e+00,5.625000000000001776e+00,9.750000000000003553e+00,5.250000000000002665e+00,-1.193750000000000711e+01,-1.806250000000001066e+01,3.062500000000001776e+00,1.706250000000000711e+01,7.500000000000000000e-01,-1.800000000000000711e+01,-5.562500000000003553e+00,1.550000000000000711e+01,1.137500000000000533e+01,-3.437500000000001332e+00,-4.812500000000001776e+00,3.625000000000001776e+00,4.437500000000001776e+00,-4.687500000000002665e+00,-7.062500000000003553e+00,7.062500000000002665e+00,9.437500000000003553e+00,-8.937500000000003553e+00,-1.200000000000000533e+01,-4.812500000000001776e+00,2.750000000000001776e+00,1.818750000000001066e+01,7.437500000000004441e+00,-2.362500000000001066e+01,-1.612500000000000711e+01,1.881250000000000711e+01,2.181250000000000711e+01,-4.187500000000001776e+00,-1.087500000000000355e+01,1.687500000000000888e+00,1.187500000000000888e+00,-3.625000000000001332e+00,2.500000000000000000e-01,6.250000000000001110e-01,-3.125000000000000000e-01,-4.500000000000001776e+00,-7.437500000000003553e+00,8.562500000000003553e+00,1.100000000000000533e+01,-4.312500000000002665e+00,-9.375000000000008882e-01,-2.375000000000000888e+00,-5.625000000000002665e+00,6.187500000000003553e+00,-3.750000000000000000e-01,-1.106250000000000533e+01,-1.500000000000000000e+00,3.437500000000001776e+00,1.500000000000000444e+00,3.562500000000001332e+00,-1.500000000000000888e+00,-4.000000000000001776e+00,9.437500000000005329e+00,1.118750000000000711e+01,-3.375000000000001776e+00,-4.562500000000002665e+00,-6.437500000000002665e+00,-1.681250000000000711e+01,-3.312500000000000888e+00,1.737500000000000711e+01,1.087500000000000533e+01,-3.125000000000005551e-01,2.437500000000000888e+00,5.125000000000001776e+00,-4.312500000000002665e+00,-2.187500000000001066e+01,-1.593750000000000711e+01,1.037500000000000355e+01,1.031250000000000355e+01,-7.562500000000003553e+00,6.625000000000003553e+00,3.787500000000002132e+01,1.481250000000001066e+01,-3.668750000000001421e+01,-3.062500000000001421e+01,1.062500000000000000e+00,7.562500000000003553e+00,1.506250000000000888e+01,1.331250000000000711e+01,-1.450000000000000711e+01,-1.743750000000000711e+01,1.318750000000000711e+01,1.131250000000000533e+01,-1.387500000000000711e+01,1.068750000000000178e+01,2.900000000000001066e+01,-1.850000000000001066e+01,-3.537500000000001421e+01,-1.562500000000000000e+00,1.231250000000000533e+01,7.687500000000002665e+00,1.250000000000000222e+00,1.250000000000002220e-01,-8.750000000000004441e-01,-5.250000000000002665e+00,2.312500000000001332e+00,4.750000000000002665e+00,-1.937500000000001332e+00,1.500000000000000888e+00,5.000000000000008882e-01,-9.375000000000003553e+00,-1.043750000000000533e+01,-2.062500000000000888e+00,1.031250000000000355e+01,2.187500000000001066e+01,1.212500000000000711e+01,-1.200000000000000355e+01,-7.000000000000000888e+00,9.312500000000005329e+00,-2.437500000000000888e+00,-6.437500000000003553e+00,1.175000000000000355e+01,8.312500000000003553e+00,-8.312500000000003553e+00,-5.750000000000002665e+00,8.750000000000006661e-01,-2.187500000000001332e+00,-1.206250000000000533e+01,-2.418750000000001066e+01,-2.412500000000001066e+01,-3.375000000000000000e+00,1.650000000000000711e+01,1.087500000000000533e+01,1.750000000000000444e+00,1.068750000000000355e+01,1.200000000000000533e+01,-5.125000000000001776e+00,-7.562500000000003553e+00,2.937500000000001332e+00,-1.193750000000000533e+01,-2.968750000000001421e+01,-1.200000000000000711e+01,1.781250000000000711e+01,2.831250000000001421e+01,1.637500000000000711e+01,2.625000000000001332e+00,4.812500000000001776e+00,3.125000000000000000e-01,-1.806250000000000711e+01,-9.875000000000005329e+00,1.293750000000000533e+01,2.812500000000000000e+00,-1.093750000000000533e+01,8.750000000000008882e-01,9.375000000000003553e+00,9.687500000000003553e+00,3.500000000000001776e+00,-1.437500000000000711e+01,-1.643750000000001066e+01,6.562500000000000888e+00,2.031250000000000711e+01,9.000000000000005329e+00,-3.187500000000001776e+00,-2.937500000000001332e+00,4.375000000000001776e+00,1.362500000000000533e+01,8.500000000000003553e+00,-1.268750000000000533e+01,-2.131250000000000711e+01,-1.750000000000000000e+00,1.512500000000000711e+01,4.687500000000001776e+00,-1.250000000000000533e+01,-2.225000000000000711e+01,-1.725000000000000711e+01,4.875000000000001776e+00,1.537500000000000711e+01,8.500000000000003553e+00,1.718750000000000711e+01,3.831250000000001421e+01,2.356250000000000711e+01,-1.962500000000000711e+01,-2.587500000000001066e+01,-3.125000000000017764e-01,6.437500000000001776e+00,-4.687500000000001776e+00,-3.250000000000001332e+00,6.812500000000001776e+00,-7.250000000000001776e+00,-2.006250000000000711e+01,4.187500000000001776e+00,2.343750000000000711e+01,3.875000000000000000e+00,-2.137500000000001066e+01,-1.212500000000000711e+01,4.750000000000001776e+00,-8.687500000000003553e+00,-1.531250000000000711e+01,-5.000000000000000000e-01,7.312500000000003553e+00,5.375000000000002665e+00,-6.750000000000002665e+00,-1.525000000000000711e+01,-3.187500000000001776e+00,1.218750000000000533e+01,9.812500000000003553e+00,3.812500000000001332e+00,7.000000000000003553e+00,2.125000000000001776e+00,-5.875000000000002665e+00,-9.562500000000005329e+00,-8.375000000000003553e+00,5.500000000000002665e+00,7.375000000000003553e+00,-3.687500000000001776e+00,-2.937500000000001776e+00,-6.875000000000001110e-01,-8.187500000000003553e+00,-1.306250000000000533e+01,-7.500000000000008882e-01,9.000000000000003553e+00,6.249999999999991118e-01,-2.500000000000001776e+00,6.187500000000002665e+00,1.175000000000000711e+01,8.437500000000003553e+00,2.312500000000000888e+00,5.006250000000002842e+01,1.489375000000000853e+02,9.412500000000004263e+01
-2.045000000000000568e+02,-5.500000000000000888e+00,1.150000000000000178e+01,2.250000000000000888e+00,-1.350000000000000355e+01,6.500000000000000888e+00,-1.000000000000000355e+01,1.750000000000000355e+01,-4.500000000000000888e+00,-9.250000000000001776e+00,7.750000000000001776e+00,-2.250000000000000444e+00,-1.000000000000000000e+00,-4.000000000000000888e+00,1.275000000000000355e+01,-2.175000000000000355e+01,2.125000000000000355e+01,-1.825000000000000355e+01,1.825000000000000355e+01,-3.000000000000000888e+00,-9.000000000000001776e+00,8.250000000000001776e+00,-9.500000000000001776e+00,1.500000000000000355e+01,-1.500000000000000355e+01,1.400000000000000355e+01,5.000000000000000000e-01,-1.475000000000000355e+01,1.550000000000000355e+01,-1.475000000000000355e+01,9.250000000000001776e+00,8.750000000000001776e+00,-1.425000000000000355e+01,-5.250000000000000000e+00,4.500000000000000000e+00,-2.000000000000000000e+00,1.475000000000000355e+01,-3.000000000000000888e+00,-9.750000000000003553e+00,-1.250000000000000000e+00,2.500000000000000000e-01,1.700000000000000355e+01,-1.575000000000000355e+01,7.500000000000008882e-01,7.250000000000001776e+00,-1.125000000000000178e+01,2.650000000000000711e+01,-2.000000000000000355e+01,-7.500000000000000888e+00,2.550000000000000711e+01,-2.575000000000000711e+01,7.500000000000000888e+00,7.500000000000004441e-01,7.750000000000001776e+00,9.500000000000003553e+00,-3.125000000000000711e+01,2.275000000000000711e+01,2.250000000000000000e+00,-1.900000000000000355e+01,1.150000000000000178e+01,8.000000000000001776e+00,-1.900000000000000355e+01,1.825000000000000355e+01,-1.250000000000000000e+00,-2.000000000000000711e+01,1.275000000000000355e+01,-3.250000000000000888e+00,1.675000000000000355e+01,-2.100000000000000711e+01,4.000000000000000888e+00,1.675000000000000355e+01,-2.075000000000000711e+01,4.750000000000000888e+00,-1.000000000000000000e+00,1.075000000000000355e+01,-1.075000000000000355e+01,1.300000000000000355e+01,-1.475000000000000355e+01,-1.500000000000000000e+00,2.025000000000000711e+01,-1.550000000000000355e+01,6.750000000000001776e+00,-7.750000000000001776e+00,-3.250000000000000888e+00,1.650000000000000355e+01,-1.300000000000000355e+01,-5.000000000000000888e+00,1.075000000000000178e+01,1.000000000000000444e+00,3.750000000000000888e+00,-1.600000000000000355e+01,1.350000000000000355e+01,3.000000000000000888e+00,-1.900000000000000355e+01,2.150000000000000355e+01,-9.750000000000001776e+00,-1.375000000000000355e+01,1.750000000000000355e+01,-8.750000000000001776e+00,1.000000000000000178e+01,-4.000000000000000888e+00,-1.175000000000000178e+01,1.725000000000000355e+01,-1.200000000000000355e+01,-2.500000000000000888e+00,2.250000000000000711e+01,-1.575000000000000355e+01,-8.250000000000001776e+00,2.650000000000000711e+01,-2.850000000000000711e+01,1.950000000000000355e+01,2.500000000000000000e-01,-1.700000000000000355e+01,5.750000000000001776e+00,1.875000000000000355e+01,-2.475000000000000711e+01,2.450000000000000711e+01,-1.000000000000000000e+00,-2.125000000000000711e+01,6.000000000000001776e+00,1.525000000000000355e+01,-2.225000000000000711e+01,1.150000000000000355e+01,1.075000000000000355e+01,-2.050000000000000355e+01,7.750000000000001776e+00,1.250000000000000355e+01,-1.850000000000000355e+01,-6.250000000000000888e+00,1.900000000000000355e+01,-1.500000000000000000e+00,-1.900000000000000355e+01,1.675000000000000355e+01,4.500000000000000888e+00,-9.000000000000001776e+00,3.750000000000000888e+00,-1.250000000000000355e+01,1.650000000000000355e+01,-1.000000000000000178e+01,9.000000000000001776e+00,-1.900000000000000355e+01,2.050000000000000355e+01,-1.150000000000000178e+01,-1.000000000000000355e+01,2.050000000000000711e+01,-1.150000000000000355e+01,1.500000000000000355e+01,-1.725000000000000355e+01,2.500000000000000888e+00,-3.750000000000000888e+00,2.225000000000000711e+01,-1.375000000000000355e+01,-7.250000000000001776e+00,-1.000000000000000000e+00,1.050000000000000355e+01,2.500000000000000000e-01,-9.500000000000001776e+00,1.300000000000000355e+01,-1.750000000000000888e+00,-1.800000000000000355e+01,1.075000000000000355e+01,6.500000000000001776e+00,-1.125000000000000355e+01,1.275000000000000355e+01,1.500000000000000000e+00,-1.750000000000000355e+01,4.500000000000000888e+00,9.250000000000001776e+00,7.000000000000000888e+00,-1.875000000000000355e+01,2.500000000000000000e-01,1.275000000000000355e+01,-3.500000000000000444e+00,6.500000000000001776e+00,-1.075000000000000178e+01,3.000000000000000444e+00,-1.350000000000000355e+01,1.500000000000000355e+01,1.500000000000000444e+00,6.000000000000000888e+00,-2.450000000000000711e+01,1.600000000000000355e+01,1.750000000000000222e+00,-7.500000000000001776e+00,1.725000000000000355e+01,-2.675000000000000711e+01,2.675000000000000711e+01,-2.300000000000000711e+01,8.750000000000001776e+00,1.750000000000000444e+00,1.050000000000000178e+01,-1.275000000000000178e+01,2.000000000000000444e+00,-7.000000000000001776e+00,1.975000000000000711e+01,-1.600000000000000355e+01,-7.250000000000000888e+00,1.775000000000000355e+01,1.500000000000000000e+00,-1.400000000000000355e+01,-4.250000000000000888e+00,2.475000000000000711e+01,-2.225000000000000711e+01,1.450000000000000355e+01,-1.550000000000000355e+01,1.000000000000000000e+00,2.225000000000000711e+01,-2.675000000000000711e+01,2.175000000000000355e+01,-9.000000000000001776e+00,-1.175000000000000178e+01,2.200000000000000355e+01,-1.275000000000000178e+01,-1.250000000000000000e+00,-9.000000000000001776e+00,1.875000000000000355e+01,1.500000000000000000e+00,-2.225000000000000711e+01,1.600000000000000355e+01,9.500000000000001776e+00,-2.675000000000000711e+01,2.650000000000000711e+01,-2.200000000000000355e+01,9.500000000000001776e+00,1.375000000000000355e+01,-1.800000000000000355e+01,-6.000000000000000888e+00,2.000000000000000355e+01,-5.000000000000000000e-01,-1.875000000000000355e+01,6.250000000000000888e+00,1.900000000000000355e+01,-2.875000000000000711e+01,2.600000000000000711e+01,-2.200000000000000711e+01,8.750000000000001776e+00,6.750000000000000888e+00,-8.000000000000001776e+00,1.725000000000000355e+01,-2.750000000000000711e+01,2.325000000000000711e+01,-9.750000000000001776e+00,-1.100000000000000178e+01,1.675000000000000355e+01,-2.500000000000000888e+00,-1.075000000000000355e+01,1.725000000000000355e+01,-1.575000000000000355e+01,1.275000000000000355e+01,-2.125000000000000711e+01,2.075000000000000711e+01,2.250000000000000000e+00,-1.300000000000000355e+01,5.000000000000000000e-01,-5.000000000000000000e-01,1.325000000000000355e+01,-1.125000000000000178e+01,-7.500000000000000000e-01,-7.750000000000001776e+00,9.750000000000001776e+00,3.750000000000000888e+00,5.000000000000000888e+00,-1.800000000000000355e+01,9.250000000000001776e+00,9.750000000000001776e+00,-1.625000000000000355e+01,1.600000000000000355e+01,-2.325000000000000711e+01,1.450000000000000355e+01,9.750000000000001776e+00,-7.500000000000001776e+00,-1.600000000000000355e+01,1.875000000000000355e+01,-5.500000000000000888e+00,-8.750000000000001776e+00,8.250000000000001776e+00,1.400000000000000355e+01,-3.100000000000000711e+01,2.625000000000000711e+01,-1.100000000000000178e+01,-5.250000000000001776e+00,1.725000000000000355e+01,-1.050000000000000178e+01,2.750000000000000888e+00,-7.750000000000001776e+00,-2.500000000000000000e+00,1.325000000000000355e+01,-1.075000000000000355e+01,6.750000000000001776e+00,8.000000000000001776e+00,-1.900000000000000355e+01,7.000000000000000888e+00,1.325000000000000355e+01,-1.825000000000000355e+01,2.725000000000000711e+01,-2.400000000000000355e+01,1.250000000000000355e+01,-9.750000000000001776e+00,1.750000000000000444e+00,1.300000000000000355e+01,-7.250000000000002665e+00,7.500000000000002665e+00,2.250000000000000000e+00,-8.250000000000001776e+00,-1.525000000000000355e+01,1.500000000000000355e+01,3.500000000000000000e+00,-8.750000000000001776e+00,-2.500000000000000000e-01,-1.075000000000000178e+01,1.850000000000000355e+01,-5.250000000000000888e+00,8.750000000000003553e+00,-2.000000000000000711e+01,1.250000000000000355e+01,4.500000000000000888e+00,-1.000000000000000178e+01,1.275000000000000355e+01,-1.450000000000000355e+01,1.850000000000000355e+01,-1.100000000000000355e+01,5.750000000000000888e+00,-2.125000000000000355e+01,2.250000000000000711e+01,-3.750000000000001776e+00,-1.175000000000000355e+01,5.250000000000001776e+00,1.500000000000000355e+01,-1.375000000000000355e+01,-3.000000000000000888e+00,0.000000000000000000e+00,0.000000000000000000e+00,0.000000000000000000e+00,0.000000000000000000e+00,2.500000000000000555e-01,-2.500000000000000555e-01,-2.500000000000000555e-01,0.000000000000000000e+00,5.000000000000001110e-01,-2.500000000000000555e-01,0.000000000000000000e+00,-2.500000000000000555e-01,5.000000000000001110e-01,-5.000000000000001110e-01,5.000000000000001110e-01,-2.500000000000000555e-01,0.000000000000000000e+00,0.000000000000000000e+00,0.000000000000000000e+00,0.000000000000000000e+00,0.000000000000000000e+00,2.500000000000000555e-01,-5.000000000000001110e-01,0.000000000000000000e+00,5.000000000000001110e-01,0.000000000000000000e+00,-5.000000000000001110e-01,2.500000000000000555e-01,2.500000000000000555e-01,-7.500000000000002220e-01,5.000000000000001110e-01,2.500000000000000555e-01,0.000000000000000000e+00,-7.500000000000002220e-01,7.500000000000002220e-01,0.000000000000000000e+00,-2.500000000000000555e-01,-2.500000000000000555e-01,0.000000000000000000e+00,5.000000000000001110e-01,0.000000000000000000e+00,-5.000000000000001110e-01,2.500000000000000555e-01,0.000000000000000000e+00,0.000000000000000000e+00,0.000000000000000000e+00,2.500000000000000555e-01,-5.000000000000001110e-01,-2.300000000000000355e+01,3.825000000000000711e+01,-2.975000000000000711e+01,1.100000000000000355e+01,1.300000000000000355e+01,-1.675000000000000355e+01,2.500000000000000000e-01,-1.625000000000000000e+01,4.500000000000000000e+00,1.025000000000000178e+01,3.200000000000000711e+01,-4.275000000000000711e+01,2.000000000000000355e+01,1.050000000000000178e+01,-3.450000000000000711e+01,2.550000000000000355e+01,-1.250000000000000222e+00,-5.000000000000002220e-01,-1.450000000000000355e+01,4.000000000000001776e+00,-2.000000000000001776e+00,1.150000000000000355e+01,1.175000000000000178e+01,-1.050000000000000178e+01,-2.050000000000000355e+01,3.150000000000000711e+01,-2.125000000000000355e+01,-1.750000000000000000e+00,9.750000000000001776e+00,-1.425000000000000355e+01,1.325000000000000355e+01,1.075000000000000178e+01,-2.475000000000000711e+01,2.900000000000000711e+01,-2.975000000000000711e+01,1.675000000000000355e+01,-5.750000000000001776e+00,2.000000000000000888e+00,-7.250000000000000888e+00,2.250000000000000355e+01,-1.475000000000000355e+01,5.000000000000000000e-01,4.750000000000000888e+00,-9.000000000000001776e+00,1.250000000000000000e+00,1.600000000000000355e+01,-5.750000000000000888e+00,-9.750000000000003553e+00,-1.050000000000000178e+01,1.100000000000000355e+01,2.225000000000000355e+01,-3.175000000000000711e+01,2.850000000000000711e+01,-2.300000000000000711e+01,8.500000000000001776e+00,1.225000000000000178e+01,-2.500000000000000711e+01,1.125000000000000355e+01,9.500000000000001776e+00,-2.000000000000000711e+01,2.000000000000000711e+01,-1.475000000000000355e+01,1.250000000000000000e+00,1.425000000000000355e+01,2.250000000000000000e+00,-1.825000000000000355e+01,3.750000000000000888e+00,1.300000000000000355e+01,-5.750000000000001776e+00,-1.400000000000000178e+01,2.350000000000000711e+01,-2.225000000000000711e+01,1.300000000000000355e+01,6.000000000000000888e+00,-1.600000000000000355e+01,5.750000000000001776e+00,1.200000000000000178e+01,-2.350000000000000711e+01,2.475000000000000711e+01,-1.600000000000000355e+01,-7.250000000000000888e+00,1.775000000000000355e+01,0.000000000000000000e+00,-5.750000000000001776e+00,-4.500000000000000888e+00,1.775000000000000355e+01,-1.900000000000000355e+01,4.750000000000000888e+00,3.500000000000000888e+00,4.000000000000000888e+00,-4.250000000000000888e+00,-1.250000000000000355e+01,1.025000000000000178e+01,-3.000000000000000888e+00,1.275000000000000178e+01,-1.475000000000000355e+01,-4.000000000000000888e+00,1.800000000000000355e+01,-1.200000000000000178e+01,-4.750000000000001776e+00,1.975000000000000711e+01,-1.850000000000000355e+01,5.250000000000000888e+00,4.500000000000000888e+00,-1.275000000000000355e+01,2.750000000000000000e+00,1.000000000000000888e+00,2.550000000000000355e+01,-2.425000000000000355e+01,4.250000000000000888e+00,-1.150000000000000178e+01,1.825000000000000355e+01,3.000000000000000000e+00,-1.550000000000000355e+01,-4.000000000000000888e+00,2.225000000000000711e+01,-1.875000000000000355e+01,3.500000000000000444e+00,1.000000000000000178e+01,-6.500000000000001776e+00,-6.500000000000000888e+00,1.025000000000000178e+01,2.075000000000000711e+01,-2.125000000000000711e+01,-1.675000000000000355e+01,3.500000000000000711e+01,-2.075000000000000355e+01,-5.000000000000000000e-01,1.550000000000000355e+01,-4.500000000000000000e+00,-1.775000000000000355e+01,3.725000000000000711e+01,-4.075000000000000711e+01,1.475000000000000355e+01,9.750000000000001776e+00,-1.325000000000000355e+01,-5.500000000000001776e+00,1.775000000000000355e+01,6.500000000000000000e+00,-1.325000000000000178e+01,7.750000000000001776e+00,-1.650000000000000355e+01,2.325000000000000355e+01,-2.225000000000000355e+01,-1.575000000000000355e+01,2.600000000000000711e+01,1.250000000000000000e+00,-1.200000000000000178e+01,2.500000000000000555e-01,0.000000000000000000e+00,0.000000000000000000e+00,0.000000000000000000e+00,0.000000000000000000e+00,0.000000000000000000e+00,0.000000000000000000e+00,0.000000000000000000e+00,0.000000000000000000e+00,0.000000000000000000e+00,-2.500000000000000555e-01,5.000000000000001110e-01,-2.500000000000000555e-01,-2.500000000000000555e-01,-2.650000000000000711e+01,5.350000000000001421e+01,-4.075000000000001421e+01,1.025000000000000355e+01,2.125000000000000355e+01,-1.850000000000000355e+01,-4.450000000000000711e+01,6.650000000000001421e+01,-1.825000000000000355e+01,-2.500000000000000000e-01,-3.750000000000000888e+00,-4.825000000000001421e+01,9.225000000000002842e+01,-2.150000000000000355e+01,-6.250000000000001421e+01,3.675000000000000711e+01,1.450000000000000355e+01,-4.825000000000000711e+01,4.775000000000000711e+01,-2.325000000000000711e+01,1.325000000000000355e+01,-1.150000000000000355e+01,9.250000000000003553e+00,5.000000000000000000e-01,1.250000000000000178e+01,-3.600000000000000711e+01,6.000000000000001421e+01,-2.900000000000000711e+01,-2.050000000000000355e+01,1.375000000000000355e+01,2.500000000000000888e+00,1.225000000000000355e+01,-1.950000000000000711e+01,-1.025000000000000178e+01,2.650000000000000711e+01,-1.100000000000000178e+01,4.500000000000000888e+00,-1.550000000000000355e+01,1.175000000000000355e+01,2.075000000000000355e+01,-1.925000000000000355e+01,-1.875000000000000355e+01,2.000000000000000355e+01,7.500000000000001776e+00,-1.700000000000000355e+01,5.000000000000000000e-01,1.400000000000000355e+01,-3.500000000000000888e+00,-1.650000000000000355e+01,1.425000000000000355e+01,-8.250000000000001776e+00,1.000000000000000355e+01,-1.250000000000000444e+00,9.500000000000001776e+00,-3.000000000000000000e+00,-1.550000000000000355e+01,2.150000000000000711e+01,-2.575000000000000711e+01,2.500000000000000711e+01,-2.350000000000000711e+01,3.000000000000000711e+01,-2.900000000000000711e+01,8.500000000000001776e+00,1.250000000000000355e+01,-1.850000000000000711e+01,8.500000000000001776e+00,0.000000000000000000e+00,4.250000000000001776e+00,-2.500000000000000000e-01,-9.250000000000001776e+00,-5.250000000000001776e+00,-8.000000000000001776e+00,1.475000000000000355e+01,-4.025000000000000711e+01,4.225000000000000711e+01,-3.250000000000000888e+00,-3.225000000000000711e+01,-5.250000000000000000e+00,4.250000000000000711e+01,-7.500000000000001776e+00,-2.275000000000000711e+01,3.050000000000000711e+01,-1.150000000000000178e+01,-9.250000000000001776e+00,1.075000000000000178e+01,7.250000000000001776e+00,-5.000000000000001110e-01,2.500000000000000555e-01,2.500000000000000555e-01,-2.500000000000000555e-01,2.500000000000000555e-01,0.000000000000000000e+00,0.000000000000000000e+00,-2.500000000000000555e-01,0.000000000000000000e+00,7.500000000000002220e-01,-5.000000000000001110e-01,-2.500000000000000555e-01,5.000000000000001110e-01,-5.000000000000001110e-01,5.000000000000001110e-01,-7.500000000000002220e-01,1.000000000000000222e+00,-7.500000000000002220e-01,2.500000000000000555e-01,0.000000000000000000e+00,-5.000000000000001110e-01,1.000000000000000222e+00,-5.000000000000001110e-01,0.000000000000000000e+00,0.000000000000000000e+00,0.000000000000000000e+00,0.000000000000000000e+00,-2.500000000000000555e-01,5.000000000000001110e-01,0.000000000000000000e+00,-5.000000000000001110e-01,2.500000000000000555e-01,5.000000000000001110e-01,-2.500000000000000555e-01,7.500000000000002220e-01,8.250000000000001776e+00,-1.000000000000000178e+01,6.000000000000000888e+00,3.125000000000000711e+01,-4.125000000000000711e+01,4.250000000000000888e+00,9.750000000000001776e+00,-1.775000000000000355e+01,1.700000000000000355e+01,-1.800000000000000355e+01,9.250000000000001776e+00,4.000000000000000888e+00,-1.725000000000000355e+01,1.725000000000000355e+01,9.500000000000003553e+00,-8.750000000000003553e+00,-5.000000000000000000e-01,6.250000000000000888e+00,-2.275000000000000711e+01,3.450000000000000711e+01,-3.150000000000000711e+01,8.750000000000001776e+00,1.250000000000000178e+01,-1.400000000000000178e+01,5.750000000000001776e+00,-3.750000000000000888e+00,1.125000000000000178e+01,-7.000000000000000888e+00,-1.525000000000000355e+01,1.350000000000000178e+01,6.750000000000001776e+00,-2.625000000000000711e+01,4.625000000000001421e+01,-2.700000000000000711e+01,1.750000000000000444e+00,-1.400000000000000355e+01,1.000000000000000178e+01,2.500000000000000555e-01,-3.000000000000000888e+00,1.500000000000000355e+01,-5.500000000000001776e+00,-1.500000000000000355e+01,4.500000000000000888e+00,2.300000000000000355e+01,-2.875000000000000711e+01,1.000000000000000000e+00,1.450000000000000355e+01,2.250000000000000888e+00,-2.150000000000000711e+01,1.450000000000000355e+01,1.075000000000000178e+01,-1.425000000000000178e+01,1.750000000000000222e+00,-1.975000000000000355e+01,3.250000000000000711e+01,-1.250000000000001776e+00,-3.850000000000000711e+01,3.500000000000000711e+01,2.500000000000000000e-01,-1.275000000000000355e+01,8.250000000000001776e+00,-2.225000000000000355e+01,2.275000000000000355e+01,2.025000000000000355e+01,-3.575000000000000711e+01,7.000000000000002665e+00,1.125000000000000355e+01,-1.525000000000000355e+01,1.750000000000000355e+01,-8.500000000000001776e+00,-9.750000000000001776e+00,1.975000000000000355e+01,-1.375000000000000355e+01,-4.500000000000000888e+00,2.925000000000000711e+01,-2.675000000000000355e+01,2.000000000000000000e+00,-3.750000000000000888e+00,9.000000000000001776e+00,1.025000000000000178e+01,-7.750000000000000888e+00,-1.300000000000000355e+01,3.050000000000000711e+01,-3.200000000000000711e+01,-4.250000000000001776e+00,1.200000000000000355e+01,2.050000000000000355e+01,-3.850000000000000711e+01,2.100000000000000355e+01,1.375000000000000355e+01,-1.850000000000000355e+01,7.500000000000000000e-01,1.525000000000000355e+01,-1.800000000000000355e+01,-8.500000000000001776e+00,4.700000000000001421e+01,-5.400000000000001421e+01,3.100000000000000711e+01,-1.600000000000000355e+01,1.850000000000000355e+01,-3.250000000000000711e+01,2.100000000000000355e+01,1.750000000000000355e+01,-1.725000000000000355e+01,-5.250000000000000888e+00,1.075000000000000178e+01,-8.750000000000001776e+00,-1.000000000000000355e+01,2.100000000000000711e+01,-1.825000000000000355e+01,2.825000000000000711e+01,-3.075000000000000711e+01,1.325000000000000355e+01,6.000000000000001776e+00,-3.750000000000001332e+00,-1.500000000000000355e+01,2.450000000000000711e+01,-2.075000000000000711e+01,2.225000000000000711e+01,-8.500000000000003553e+00,-2.000000000000000355e+01,1.500000000000000355e+01,-5.000000000000001110e-01,1.275000000000000355e+01,-1.975000000000000711e+01,-7.500000000000001776e+00,2.600000000000000711e+01,-1.500000000000000355e+01,1.575000000000000355e+01,-2.400000000000000711e+01,2.175000000000000711e+01,-1.025000000000000178e+01,5.250000000000000888e+00,-4.750000000000000888e+00,-1.200000000000000355e+01,3.750000000000001421e+01,-3.600000000000000711e+01,9.500000000000001776e+00,4.250000000000000888e+00,-1.550000000000000355e+01,1.525000000000000355e+01,1.650000000000000355e+01,-2.700000000000000711e+01,-6.750000000000001776e+00,1.325000000000000355e+01,1.450000000000000355e+01,-8.250000000000003553e+00,-1.300000000000000355e+01,1.350000000000000355e+01,-1.000000000000000000e+00,-1.000000000000000178e+01,9.750000000000001776e+00,-3.000000000000000444e+00,-4.500000000000001776e+00,9.500000000000003553e+00,-1.000000000000000355e+01,-1.400000000000000355e+01,5.275000000000001421e+01,-6.225000000000001421e+01,4.250000000000001421e+01,-1.075000000000000355e+01,-1.950000000000000355e+01,2.525000000000000711e+01,-6.000000000000000888e+00,-1.400000000000000355e+01,9.000000000000001776e+00,2.500000000000000444e+00,-8.000000000000001776e+00,8.750000000000001776e+00,0.000000000000000000e+00,-8.750000000000001776e+00,2.000000000000000888e+00,1.975000000000000355e+01,-1.825000000000000355e+01,0.000000000000000000e+00,1.500000000000000355e+01,-2.500000000000000711e+01,2.500000000000001776e+00,1.275000000000000178e+01,5.750000000000001776e+00,-1.500000000000000355e+01,1.550000000000000355e+01,-9.000000000000001776e+00,7.000000000000001776e+00,-5.000000000000000000e-01,-3.675000000000000711e+01,4.350000000000001421e+01,-2.225000000000000711e+01,1.700000000000000355e+01,-3.050000000000000711e+01,3.525000000000000711e+01,2.275000000000000355e+01,-4.600000000000000711e+01,-3.750000000000001776e+00,1.800000000000000355e+01,-1.075000000000000355e+01,2.500000000000000000e-01,2.550000000000000711e+01,-1.825000000000000355e+01,-1.700000000000000355e+01,1.725000000000000355e+01,1.075000000000000178e+01,-7.500000000000000888e+00,-4.125000000000000711e+01,9.425000000000002842e+01,-6.750000000000001421e+01,-7.000000000000001776e+00,2.325000000000000355e+01,-1.675000000000000355e+01,1.675000000000000355e+01,-3.250000000000000444e+00,-1.300000000000000178e+01,2.625000000000000711e+01,-3.025000000000000711e+01,1.525000000000000355e+01,7.500000000000001776e+00,-1.750000000000000355e+01,1.325000000000000355e+01,-1.000000000000000000e+00,-7.000000000000001776e+00,5.000000000000000000e-01,-6.750000000000000888e+00,1.125000000000000178e+01,-7.750000000000001776e+00,3.125000000000000711e+01,-2.925000000000000711e+01,-2.250000000000000888e+00,1.925000000000000711e+01,-5.750000000000001776e+00,-1.700000000000000355e+01,1.800000000000000355e+01,8.000000000000001776e+00,-1.925000000000000355e+01,7.250000000000001776e+00,3.250000000000000888e+00,-1.050000000000000355e+01,1.625000000000000355e+01,-3.100000000000000711e+01,1.700000000000000355e+01,-3.325000000000000711e+01,4.225000000000000711e+01,-2.000000000000000711e+01,8.500000000000003553e+00,-6.250000000000000888e+00,1.875000000000000355e+01,-8.750000000000001776e+00,-1.300000000000000355e+01,1.525000000000000355e+01,3.000000000000000444e+00,-3.100000000000000711e+01,1.025000000000000355e+01,-1.000000000000000000e+00,1.550000000000000355e+01,5.250000000000000888e+00,-7.000000000000001776e+00,1.000000000000000444e+00,1.200000000000000178e+01,-1.200000000000000178e+01,-1.975000000000000355e+01,2.975000000000000711e+01,-4.000000000000000888e+00,-1.975000000000000355e+01,1.500000000000000355e+01,1.000000000000000222e+00,-7.500000000000001776e+00,2.125000000000000711e+01,-2.025000000000000711e+01,-3.500000000000000000e+00,5.000000000000000000e-01,1.300000000000000355e+01,5.500000000000000888e+00,-1.725000000000000355e+01,1.950000000000000355e+01,-2.225000000000000355e+01,2.375000000000000711e+01,-4.750000000000001776e+00,5.000000000000000000e-01,-1.225000000000000355e+01,-9.500000000000003553e+00,2.900000000000000711e+01,-1.750000000000000355e+01,6.750000000000001776e+00,-9.750000000000001776e+00,-1.050000000000000355e+01,2.000000000000000000e+00,1.825000000000000355e+01,-1.375000000000000355e+01,9.500000000000001776e+00,3.500000000000000888e+00,3.450000000000000711e+01,-3.000000000000000711e+01,-1.625000000000000355e+01,2.500000000000000711e+01,-2.050000000000000355e+01,2.575000000000000355e+01,-3.800000000000000711e+01,3.575000000000000711e+01,-1.050000000000000178e+01,-1.900000000000000355e+01,5.000000000000000888e+00,2.000000000000000355e+01,-6.750000000000001776e+00,-2.500000000000000000e-01,-2.800000000000000711e+01,3.500000000000000711e+01,-1.275000000000000355e+01,-2.775000000000000711e+01,4.075000000000001421e+01,-4.175000000000001421e+01,4.425000000000001421e+01,-3.250000000000000711e+01,1.225000000000000355e+01,-1.625000000000000355e+01,1.625000000000000355e+01,3.250000000000000888e+00,-9.000000000000001776e+00,7.000000000000001776e+00,1.200000000000000355e+01,-2.925000000000000711e+01,3.450000000000000711e+01,-4.100000000000000711e+01,2.375000000000000355e+01,8.750000000000001776e+00,-2.600000000000000711e+01,2.700000000000000711e+01,-2.550000000000000711e+01,2.350000000000000711e+01,-2.575000000000000711e+01,4.250000000000000000e+00,1.675000000000000355e+01,-1.600000000000000355e+01,8.250000000000003553e+00,-5.750000000000000888e+00,1.075000000000000178e+01,-7.500000000000002220e-01,2.500000000000000555e-01,0.000000000000000000e+00,0.000000000000000000e+00,2.000000000000000568e+02
