1.250637500000000202e+01,-6.024875000000013081e+00,-1.743112500000001930e+01,-2.307175000000002285e+01,-2.477487500000002640e+01,-2.546237500000002996e+01,-2.638425000000002996e+01,-2.861862500000002996e+01,-3.347800000000002996e+01,-4.357175000000003706e+01,-5.879050000000005127e+01,-7.663425000000006548e+01,-9.444675000000006548e+01,-1.100561250000000939e+02,-1.217905000000000939e+02,-1.287436250000000939e+02,-1.316030000000000939e+02,-1.312748750000000939e+02,-1.297123750000000939e+02,-1.277905000000000939e+02,-1.288842500000000939e+02,-1.357123750000000939e+02,-1.491967500000000939e+02,-1.706342500000001223e+02,-1.986342500000001792e+02,-2.313373750000001792e+02,-2.648998750000001792e+02,-2.973998750000001792e+02,-3.238530000000001792e+02,-3.359780000000001792e+02,-3.321186250000001792e+02,-3.101655000000001792e+02,-2.695717500000001792e+02,-2.116498750000001223e+02,-1.428686250000000939e+02,-6.802487500000005127e+01,7.318874999999989583e+00,7.208450000000003399e+01,1.235532500000000766e+02,1.595220000000000766e+02,1.769595000000001050e+02,1.761157500000001050e+02,1.635688750000000766e+02,1.430845000000000766e+02,1.174282500000000766e+02,9.170950000000004820e+01,6.845950000000003399e+01,4.838137500000001978e+01,3.302200000000001268e+01,2.230325000000000557e+01,1.283449999999999847e+01,3.818874999999993580e+00,-4.446750000000012193e+00,-1.127487500000001575e+01,-1.877487500000002285e+01,-2.685300000000002640e+01,-3.349362500000002996e+01,-3.930612500000003706e+01,-4.224362500000003706e+01,-4.214987500000003706e+01,-3.954050000000003706e+01,-3.614987500000002996e+01,-3.000925000000002996e+01,-2.066550000000002285e+01,-1.094675000000001575e+01,-4.936250000000086402e-01,8.756374999999996689e+00,1.645950000000000202e+01,2.261575000000000557e+01,2.766262500000001268e+01,3.075637500000001268e+01,3.060012500000001268e+01,2.858450000000001268e+01,2.592825000000001268e+01,2.300637500000000557e+01,1.892825000000000202e+01,1.442825000000000024e+01,1.058449999999999847e+01,6.037624999999994913e+00,3.146999999999993136e+00,1.318874999999992248e+00,-6.967500000000090843e-01,-2.478000000000010417e+00,-2.837375000000010417e+00,-3.149875000000010417e+00,-4.462375000000011305e+00,-4.821750000000012193e+00,-5.696750000000012193e+00,-6.931125000000013969e+00,-8.337375000000013969e+00,-1.016550000000001575e+01,-1.272800000000001752e+01,-1.508737500000001930e+01,-1.625925000000001930e+01,-1.675925000000001930e+01,-1.789987500000001930e+01,-1.882175000000001930e+01,-1.982175000000001930e+01,-2.088425000000001930e+01,-2.071237500000001930e+01,-2.058737500000001930e+01,-2.100925000000001930e+01,-2.208737500000002285e+01,-2.238425000000002285e+01,-2.208737500000002285e+01,-2.197800000000002285e+01,-2.082175000000001930e+01,-2.110300000000001930e+01,-2.086862500000001930e+01,-2.044675000000001930e+01,-2.083737500000001930e+01,-2.146237500000002285e+01,-2.280612500000002285e+01,-2.307175000000002640e+01,-2.472800000000002996e+01,-2.586862500000002996e+01,-2.825925000000002996e+01,-3.125925000000002996e+01,-3.299362500000002996e+01,-3.483737500000002996e+01,-3.729050000000002996e+01,-4.033737500000002996e+01,-4.268112500000003706e+01,-4.455612500000003706e+01,-4.511862500000003706e+01,-4.477487500000003706e+01,-4.532175000000003706e+01,-4.502487500000003706e+01,-4.399362500000002996e+01,-4.336862500000002996e+01,-4.255612500000002996e+01,-4.263425000000002996e+01,-4.325925000000002996e+01,-4.496237500000003706e+01,-4.599362500000003706e+01,-4.733737500000004417e+01,-4.855612500000005127e+01,-4.894675000000005127e+01,-4.883737500000005127e+01,-4.821237500000005127e+01,-4.707175000000004417e+01,-4.521237500000003706e+01,-4.325925000000002996e+01,-4.149362500000002996e+01,-3.958737500000002996e+01,-3.819675000000002996e+01,-3.714987500000002996e+01,-3.546237500000002996e+01,-3.361862500000002996e+01,-3.089987500000002996e+01,-2.841550000000002996e+01,-2.611862500000002996e+01,-2.404050000000002996e+01,-2.152487500000002285e+01,-2.000925000000001930e+01,-1.905612500000001930e+01,-1.857175000000001930e+01,-1.943112500000001930e+01,-2.085300000000002285e+01,-2.172800000000002285e+01,-2.174362500000002285e+01,-2.247800000000002285e+01,-2.180612500000002285e+01,-2.075925000000002285e+01,-2.030612500000002285e+01,-1.921237500000001930e+01,-1.846237500000001930e+01,-1.905612500000001930e+01,-2.163425000000002285e+01,-2.449362500000002640e+01,-2.882175000000002996e+01,-3.402487500000002996e+01,-3.857175000000002996e+01,-4.257175000000002996e+01,-4.443112500000003706e+01,-4.444675000000003706e+01,-4.152487500000002996e+01,-3.608737500000002996e+01,-2.866550000000002996e+01,-1.991550000000002285e+01,-1.005612500000001575e+01,-1.103000000000009306e+00,7.646999999999996689e+00,1.577200000000000202e+01,2.208450000000000557e+01,2.697512500000001268e+01,3.092825000000001268e+01,3.399075000000001268e+01,3.586575000000001268e+01,3.745950000000001268e+01,3.745950000000001268e+01,3.706887500000001268e+01,3.556887500000001268e+01,3.283450000000001268e+01,2.877200000000001268e+01,2.345950000000000557e+01,1.608450000000000202e+01,8.381374999999994913e+00,-2.181125000000010861e+00,-1.530612500000001752e+01,-2.968112500000002285e+01,-4.677487500000003706e+01,-6.571237500000005127e+01,-8.604050000000006548e+01,-1.071342500000000797e+02,-1.308686250000000939e+02,-1.530405000000000939e+02,-1.748998750000001223e+02,-1.970561250000001792e+02,-2.170248750000001792e+02,-2.358998750000001792e+02,-2.540717500000001792e+02,-2.703061250000001792e+02,-2.844623750000001792e+02,-2.982592500000001792e+02,-3.110092500000001792e+02,-3.209311250000001792e+02,-3.300873750000001792e+02,-3.374311250000001792e+02,-3.422748750000001792e+02,-3.466655000000001792e+02,-3.498686250000001792e+02,-3.508061250000001792e+02,-3.492905000000001792e+02,-3.475561250000001792e+02,-3.439780000000001792e+02,-3.395717500000001792e+02,-3.353061250000001792e+02,-3.290561250000001792e+02,-3.212436250000001792e+02,-3.133530000000001792e+02,-3.052280000000001792e+02,-2.970405000000001792e+02,-2.901655000000001792e+02,-2.837905000000001792e+02,-2.780405000000001792e+02,-2.742280000000001792e+02,-2.721030000000001792e+02,-2.708217500000001792e+02,-2.716655000000001792e+02,-2.723217500000001792e+02,-2.727748750000001792e+02,-2.721030000000001792e+02,-2.694311250000001792e+02,-2.649311250000001792e+02,-2.583061250000001792e+02,-2.511811250000001792e+02,-2.414311250000001792e+02,-2.317748750000001792e+02,-2.206655000000001792e+02,-2.112436250000001792e+02,-2.033530000000001792e+02,-1.972280000000001792e+02,-1.918373750000001507e+02,-1.856498750000001223e+02,-1.798373750000000939e+02,-1.726967500000000939e+02,-1.652123750000000939e+02,-1.549467500000000939e+02,-1.432436250000000939e+02,-1.283998750000000939e+02,-1.138217500000000939e+02,-9.916550000000009391e+01,-8.489987500000006548e+01,-7.183737500000005127e+01,-5.999362500000005127e+01,-5.016550000000005127e+01,-4.038425000000003706e+01,-3.279050000000002996e+01,-2.450925000000002640e+01,-1.710300000000001930e+01,-1.083737500000001575e+01,-3.853000000000012193e+00,2.646999999999992692e+00,9.396999999999998465e+00,1.441262500000000202e+01,1.914700000000000557e+01,2.272512500000000557e+01,2.605325000000000912e+01,3.024075000000001268e+01,3.345950000000001268e+01,3.685012500000001268e+01,3.967825000000001268e+01,4.344387500000001978e+01,4.689700000000002689e+01,4.927200000000003399e+01,5.194387500000003399e+01,5.383450000000003399e+01,5.567825000000003399e+01,5.745950000000003399e+01,5.955325000000003399e+01,6.144387500000003399e+01,6.383450000000003399e+01,6.777200000000003399e+01,7.158450000000003399e+01,7.605325000000003399e+01,8.006887500000003399e+01,8.422512500000003399e+01,8.767825000000003399e+01,8.935012500000003399e+01,8.927200000000003399e+01,8.744387500000003399e+01,8.392825000000003399e+01,7.799075000000003399e+01,7.089700000000003399e+01,6.183450000000003399e+01,5.195950000000002689e+01,4.244387500000001978e+01,3.416262500000001268e+01,2.655325000000000557e+01,1.956887500000000202e+01,1.466262500000000202e+01,1.078762499999999847e+01,9.115749999999996689e+00,9.037624999999996689e+00,1.064699999999999847e+01,1.249075000000000024e+01,1.458450000000000202e+01,1.817825000000000557e+01,2.186575000000000557e+01,2.585012500000000912e+01,2.866262500000001268e+01,3.114700000000001268e+01,3.238137500000001268e+01,3.383450000000001268e+01,3.586575000000001268e+01,3.685012500000001268e+01,3.678762500000001268e+01,3.630325000000001268e+01,3.508450000000001268e+01,3.238137500000001268e+01,2.902200000000001268e+01,2.288137500000000557e+01,1.466262499999999847e+01,4.584499999999992248e+00,-6.540500000000013969e+00,-1.813425000000002285e+01,-2.988425000000002996e+01,-4.186862500000003706e+01,-5.471237500000005127e+01,-6.663425000000005127e+01,-7.961862500000006548e+01,-9.208737500000009391e+01,-1.043842500000000939e+02,-1.185092500000000939e+02,-1.325248750000000939e+02,-1.473061250000000939e+02,-1.620873750000000939e+02,-1.767436250000001223e+02,-1.907592500000001792e+02,-2.059780000000001792e+02,-2.216811250000001792e+02,-2.376655000000001792e+02,-2.562123750000001792e+02,-2.756186250000001792e+02,-2.958842500000001792e+02,-3.180248750000001792e+02,-3.403842500000001792e+02,-3.619311250000001792e+02,-3.837280000000002929e+02,-4.032592500000002929e+02,-4.190092500000002929e+02,-4.316498750000002929e+02,-4.415561250000003497e+02,-4.483530000000003497e+02,-4.530248750000003497e+02,-4.558686250000003497e+02,-4.565092500000003497e+02,-4.565248750000003497e+02,-4.565248750000003497e+02,-4.565405000000003497e+02,-4.565717500000003497e+02,-4.566030000000003497e+02,-4.566655000000003497e+02,-4.567280000000003497e+02,-4.567905000000003497e+02,-4.568373750000003497e+02,-4.568686250000003497e+02,-4.569155000000003497e+02,-4.569467500000003497e+02,-4.569623750000003497e+02,-4.569623750000003497e+02,-4.569623750000003497e+02,-4.569623750000003497e+02,-4.569623750000003497e+02,-4.569623750000003497e+02,-4.569467500000003497e+02,-4.569311250000003497e+02,-4.568842500000003497e+02,-4.551811250000003497e+02,-4.519623750000003497e+02,-4.459623750000003497e+02,-4.372280000000003497e+02,-4.250561250000002929e+02,-4.094936250000002929e+02,-3.891811250000002929e+02,-3.634780000000001792e+02,-3.358373750000001792e+02,-3.049467500000001792e+02,-2.734936250000001792e+02,-2.416342500000001792e+02,-2.098842500000001792e+02,-1.783373750000001223e+02,-1.490405000000000939e+02,-1.232123750000000939e+02,-9.788425000000006548e+01,-7.547800000000006548e+01,-5.375925000000004417e+01,-3.222800000000002996e+01,-1.241550000000001397e+01,6.553249999999996689e+00,2.525637500000000557e+01,4.445950000000001978e+01,6.153762500000003399e+01,7.867825000000004820e+01,9.453762500000006241e+01,1.083345000000000766e+02,1.222095000000000766e+02,1.352095000000000766e+02,1.473657500000000766e+02,1.582251250000000766e+02,1.693501250000000766e+02,1.796001250000001050e+02,1.895220000000001619e+02,1.993501250000001619e+02,2.080845000000001619e+02,2.155532500000001619e+02,2.220688750000001619e+02,2.277563750000001619e+02,2.323970000000001619e+02,2.364751250000001619e+02,2.397095000000001619e+02,2.424751250000001619e+02,2.455063750000001619e+02,2.489751250000001619e+02,2.516626250000001619e+02,2.543188750000001619e+02,2.574907500000001619e+02,2.606938750000001619e+02,2.643501250000001619e+02,2.684751250000001619e+02,2.723188750000001619e+02,2.762407500000001619e+02,2.823032500000001619e+02,2.894907500000001619e+02,2.974751250000001619e+02,3.063657500000001619e+02,3.157563750000001619e+02,3.260845000000001619e+02,3.376938750000001619e+02,3.506938750000001619e+02,3.625532500000001619e+02,3.737876250000001619e+02,3.843188750000002756e+02,3.944907500000002756e+02,4.048813750000002756e+02,4.142095000000002756e+02,4.213813750000003324e+02,4.267563750000003324e+02,4.319438750000003324e+02,4.366782500000003324e+02,4.417407500000003324e+02,4.456313750000003324e+02,4.481626250000003324e+02,4.499751250000003324e+02,4.531313750000003324e+02,4.563813750000003324e+02,4.594126250000003324e+02,4.621313750000003324e+02,4.636626250000003324e+02,4.648188750000003324e+02,4.658501250000003324e+02,4.676313750000003324e+02,4.681470000000003324e+02,4.677720000000003324e+02,4.671626250000003324e+02,4.668032500000003324e+02,4.653970000000003324e+02,4.641938750000003324e+02,4.627095000000003324e+02,4.598970000000003324e+02,4.563501250000003324e+02,4.527251250000003324e+02,4.480688750000003324e+02,4.421782500000003324e+02,4.371626250000003324e+02,4.314438750000003324e+02,4.250532500000003324e+02,4.182251250000003324e+02,4.109438750000002756e+02,4.029595000000002756e+02,3.953970000000002756e+02,3.874282500000002756e+02,3.779907500000002187e+02,3.682251250000001619e+02,3.573813750000001619e+02,3.450688750000001619e+02,3.325376250000001619e+02,3.186626250000001619e+02,3.026001250000001619e+02,2.852095000000001619e+02,2.676626250000001619e+02,2.498813750000001619e+02,2.327407500000001619e+02,2.164438750000001619e+02,1.995845000000001619e+02,1.838032500000001050e+02,1.691157500000000766e+02,1.551782500000000766e+02,1.405688750000000766e+02,1.256001250000000766e+02,1.097876250000000766e+02,9.386575000000006241e+01,7.875637500000004820e+01,6.358450000000003399e+01,4.792825000000001978e+01,3.206887500000001268e+01,1.652200000000000202e+01,9.907499999999913598e-01,-1.389987500000001575e+01,-2.924362500000002285e+01,-4.518112500000003706e+01,-6.166550000000005127e+01,-7.811862500000006548e+01,-9.399362500000007969e+01,-1.081967500000000939e+02,-1.226655000000000939e+02,-1.371030000000000939e+02,-1.500717500000000939e+02,-1.622748750000000939e+02,-1.725717500000000939e+02,-1.799780000000001223e+02,-1.856967500000001223e+02,-1.908217500000001507e+02,-1.927748750000001792e+02,-1.924623750000001792e+02,-1.911186250000001792e+02,-1.879467500000001223e+02,-1.843217500000001223e+02,-1.815561250000000939e+02,-1.780092500000000939e+02,-1.744623750000000939e+02,-1.722436250000000939e+02,-1.698686250000000939e+02,-1.675405000000000939e+02,-1.652748750000000939e+02,-1.631186250000000939e+02,-1.602905000000000939e+02,-1.581342500000000939e+02,-1.558530000000000939e+02,-1.519780000000000939e+02,-1.485717500000000939e+02,-1.438373750000000939e+02,-1.395092500000000939e+02,-1.343373750000000939e+02,-1.289936250000000939e+02,-1.233217500000000939e+02,-1.161811250000000939e+02,-1.095717500000000939e+02,-1.027436250000000939e+02,-9.666550000000009391e+01,-9.005612500000006548e+01,-8.402487500000005127e+01,-7.786862500000005127e+01,-7.108737500000005127e+01,-6.622800000000005127e+01,-6.163425000000005127e+01,-5.635300000000005127e+01,-5.211862500000005127e+01,-4.744675000000005127e+01,-4.255612500000003706e+01,-3.832175000000002996e+01,-3.486862500000002996e+01,-2.997800000000002996e+01,-2.543112500000002640e+01,-2.138425000000002285e+01,-1.580612500000001930e+01,-1.150925000000001575e+01,-7.134250000000012193e+00,-2.399875000000009528e+00,2.240749999999993136e+00,5.834499999999994913e+00,1.070949999999999847e+01,1.547512500000000202e+01,1.922512500000000557e+01,2.439700000000000912e+01,2.953762500000001268e+01,3.455325000000001268e+01,3.989700000000001978e+01,4.627200000000002689e+01,5.083450000000003399e+01,5.511575000000003399e+01,5.902200000000003399e+01,6.103762500000003399e+01,6.311575000000003399e+01,6.535012500000003399e+01,6.647512500000003399e+01,6.655325000000003399e+01,6.747512500000003399e+01,6.739700000000003399e+01,6.822512500000003399e+01,6.989700000000003399e+01,7.022512500000003399e+01,7.044387500000003399e+01,7.174075000000003399e+01,7.222512500000003399e+01,7.256887500000003399e+01,7.381887500000003399e+01,7.416262500000003399e+01,7.508450000000003399e+01,7.705325000000003399e+01,7.863137500000003399e+01,7.974075000000003399e+01,8.263137500000003399e+01,8.547512500000003399e+01,8.870950000000003399e+01,9.183450000000004820e+01,9.397512500000004820e+01,9.641262500000007662e+01,9.899075000000007662e+01,1.012563750000000766e+02,1.022876250000000766e+02,1.025376250000000766e+02,1.021313750000000766e+02,1.019595000000000766e+02,1.019438750000000766e+02,1.011157500000000766e+02,9.927200000000007662e+01,9.824075000000007662e+01,9.720950000000007662e+01,9.724075000000007662e+01,9.763137500000007662e+01,9.831887500000007662e+01,9.831887500000007662e+01,9.797512500000007662e+01,9.886575000000007662e+01,9.850637500000007662e+01,9.756887500000007662e+01,9.516262500000006241e+01,9.156887500000004820e+01,8.742825000000004820e+01,8.472512500000003399e+01,8.194387500000003399e+01,7.764700000000003399e+01,7.378762500000003399e+01,7.044387500000003399e+01,6.811575000000003399e+01,6.650637500000003399e+01,6.527200000000003399e+01,6.245950000000003399e+01,6.067825000000003399e+01,6.070950000000003399e+01,6.094387500000003399e+01,6.227200000000003399e+01,6.353762500000003399e+01,6.474075000000003399e+01,6.561575000000003399e+01,6.733450000000003399e+01,6.752200000000003399e+01,6.660012500000003399e+01,6.483450000000003399e+01,6.186575000000003399e+01,5.810012500000003399e+01,5.511575000000003399e+01,5.177200000000003399e+01,4.856887500000003399e+01,4.678762500000001978e+01,4.467825000000001268e+01,4.394387500000001268e+01,4.245950000000001268e+01,4.195950000000001268e+01,3.969387500000001268e+01,3.767825000000001268e+01,3.500637500000001268e+01,3.094387500000001268e+01,2.752200000000001268e+01,2.206887500000000912e+01,1.744387500000000557e+01,1.250637500000000024e+01,8.975124999999998465e+00,4.896999999999994913e+00,7.719999999999920259e-01,-1.790500000000009750e+00,-4.681125000000011305e+00,-6.118625000000012193e+00,-6.821750000000013081e+00,-8.446750000000013969e+00,-1.072800000000001575e+01,-1.144675000000001575e+01,-1.180612500000001752e+01,-1.285300000000001930e+01,-1.393112500000001930e+01,-1.436862500000001930e+01,-1.614987500000001930e+01,-1.699362500000001930e+01,-1.694675000000001930e+01,-1.793112500000001930e+01,-1.936862500000001930e+01,-2.189987500000002285e+01,-2.380612500000002640e+01,-2.697800000000002996e+01,-2.991550000000002996e+01,-3.314987500000002996e+01,-3.741550000000002996e+01,-4.244675000000003706e+01,-4.683737500000003706e+01,-5.032175000000005127e+01,-5.504050000000005127e+01,-5.896237500000005127e+01,-6.221237500000005127e+01,-6.482175000000005127e+01,-6.769675000000005127e+01,-6.914987500000005127e+01,-7.110300000000005127e+01,-7.246237500000005127e+01,-7.291550000000005127e+01,-7.513425000000005127e+01,-7.774362500000005127e+01,-8.089987500000005127e+01,-8.361862500000005127e+01,-8.819675000000006548e+01,-9.258737500000006548e+01,-9.882175000000009391e+01,-1.058217500000000939e+02,-1.108686250000000939e+02,-1.162748750000000939e+02,-1.226186250000000939e+02,-1.283998750000000939e+02,-1.320248750000000939e+02,-1.353998750000000939e+02,-1.374155000000000939e+02,-1.382280000000000939e+02,-1.401186250000000939e+02,-1.419155000000000939e+02,-1.421498750000000939e+02,-1.426967500000000939e+02,-1.449311250000000939e+02,-1.480405000000000939e+02,-1.503998750000000939e+02,-1.539623750000000939e+02,-1.573686250000000939e+02,-1.593530000000000939e+02,-1.622436250000000939e+02,-1.657436250000000939e+02,-1.673842500000000939e+02,-1.671342500000000939e+02,-1.667280000000000939e+02,-1.641186250000000939e+02,-1.600092500000000939e+02,-1.566498750000000939e+02,-1.513842500000000939e+02,-1.444623750000000939e+02,-1.374936250000000939e+02,-1.309936250000000939e+02,-1.249467500000000939e+02,-1.199311250000000939e+02,-1.147748750000000939e+02,-1.095248750000000939e+02,-1.051498750000000939e+02,-1.015561250000000939e+02,-9.825925000000009391e+01,-9.488425000000006548e+01,-9.204050000000006548e+01,-8.922800000000005127e+01,-8.711862500000005127e+01,-8.463425000000005127e+01,-8.227487500000005127e+01,-7.904050000000005127e+01,-7.708737500000005127e+01,-7.550925000000005127e+01,-7.347800000000005127e+01,-7.158737500000005127e+01,-6.988425000000005127e+01,-6.794675000000005127e+01,-6.629050000000005127e+01,-6.618112500000005127e+01,-6.435300000000005127e+01,-6.325925000000005127e+01,-6.185300000000005127e+01,-6.060300000000005127e+01,-5.863425000000005127e+01,-5.654050000000005127e+01,-5.375925000000005127e+01,-4.814987500000004417e+01,-4.330612500000003706e+01,-3.650925000000002996e+01,-2.836862500000002996e+01,-1.880612500000002285e+01,-9.603000000000015746e+00,-1.087375000000009528e+00,6.240749999999995801e+00,1.106887499999999847e+01,1.541262500000000202e+01,1.831887500000000202e+01,1.760012500000000202e+01,1.463137500000000202e+01,8.787624999999998465e+00,1.600124999999992470e+00,-5.712375000000011305e+00,-1.454050000000001575e+01,-2.339987500000002285e+01,-3.443112500000002996e+01,-4.435300000000003706e+01,-5.454050000000005127e+01,-6.338425000000005127e+01,-7.254050000000005127e+01,-8.208737500000005127e+01,-9.033737500000006548e+01,-9.850925000000009391e+01,-1.043217500000000939e+02,-1.087592500000000939e+02,-1.115561250000000939e+02,-1.126655000000000939e+02,-1.106498750000000939e+02,-1.072280000000000939e+02,-1.023998750000000939e+02,-9.639987500000009391e+01,-8.919675000000006548e+01,-8.150925000000005127e+01,-7.355612500000005127e+01,-6.525925000000005127e+01,-5.746237500000005127e+01,-4.796237500000004417e+01,-3.788425000000003706e+01,-2.886862500000002996e+01,-2.014987500000002285e+01,-1.283737500000001575e+01,-5.149875000000012193e+00,3.334499999999993580e+00,1.049074999999999847e+01,1.531887500000000202e+01,1.881887500000000202e+01,2.405325000000000557e+01,2.864700000000001268e+01,3.399075000000001268e+01,3.841262500000001268e+01,4.130325000000001978e+01,4.438137500000002689e+01,4.778762500000003399e+01,5.161575000000003399e+01,5.336575000000003399e+01,5.513137500000003399e+01,5.622512500000003399e+01,5.614700000000003399e+01,5.569387500000003399e+01,5.574075000000003399e+01,5.603762500000003399e+01,5.536575000000003399e+01,5.441262500000003399e+01,5.188137500000003399e+01,4.933450000000003399e+01,4.752200000000002689e+01,4.420950000000001978e+01,3.983450000000001268e+01,3.385012500000001268e+01,2.739700000000000912e+01,2.241262500000000557e+01,1.850637500000000202e+01,1.553762500000000202e+01,1.267825000000000024e+01,1.300637500000000024e+01,1.413137500000000202e+01,1.820950000000000202e+01,2.405325000000000557e+01,2.992825000000001268e+01,3.753762500000001978e+01,4.424075000000002689e+01,5.233450000000003399e+01,5.949075000000003399e+01,6.666262500000003399e+01,7.170950000000003399e+01,7.678762500000003399e+01,8.103762500000003399e+01,8.302200000000003399e+01,8.605325000000003399e+01,8.861575000000003399e+01,8.994387500000003399e+01,9.231887500000004820e+01,9.606887500000004820e+01,9.788137500000007662e+01,9.977200000000007662e+01,1.025688750000000766e+02,1.034751250000000766e+02,1.025688750000000766e+02,1.026470000000000766e+02,1.010845000000000766e+02,9.781887500000007662e+01,9.517825000000006241e+01,9.161575000000004820e+01,8.705325000000003399e+01,8.419387500000003399e+01,8.175637500000003399e+01,7.869387500000003399e+01,7.483450000000003399e+01,7.185012500000003399e+01,7.020950000000003399e+01,6.928762500000003399e+01,7.027200000000003399e+01,7.031887500000003399e+01,7.230325000000003399e+01,7.416262500000003399e+01,7.863137500000003399e+01,8.324075000000003399e+01,8.630325000000003399e+01,9.083450000000004820e+01,9.488137500000004820e+01,9.936575000000007662e+01,1.031938750000000766e+02,1.081157500000000766e+02,1.108501250000000766e+02,1.129438750000000766e+02,1.164751250000000766e+02,1.195532500000000766e+02,1.218970000000000766e+02,1.238970000000000766e+02,1.251313750000000766e+02,1.250845000000000766e+02,1.266938750000000766e+02,1.298657500000000766e+02,1.318188750000000766e+02,1.327563750000000766e+02,1.334126250000000766e+02,1.347720000000000766e+02,1.359595000000000766e+02,1.393970000000000766e+02,1.421938750000000766e+02,1.445376250000000766e+02,1.486626250000000766e+02,1.528032500000000766e+02,1.583188750000000766e+02,1.640220000000000766e+02,1.711470000000000766e+02,1.760845000000000766e+02,1.815376250000001050e+02,1.858501250000001050e+02,1.892407500000001050e+02,1.943501250000001619e+02,2.000376250000001619e+02,2.059126250000001619e+02,2.113813750000001619e+02,2.180063750000001619e+02,2.238813750000001619e+02,2.313813750000001619e+02,2.396001250000001619e+02,2.462407500000001619e+02,2.503032500000001619e+02,2.523345000000001619e+02,2.520376250000001619e+02,2.500376250000001619e+02,2.467876250000001619e+02,2.416157500000001619e+02,2.334751250000001619e+02,2.241470000000001619e+02,2.153188750000001619e+02,2.081313750000001619e+02,2.018813750000001619e+02,1.971626250000001619e+02,1.947720000000001619e+02,1.920845000000001050e+02,1.916157500000001050e+02,1.937407500000001619e+02,1.959438750000001619e+02,1.970688750000001619e+02,2.000063750000001619e+02,2.023813750000001619e+02,2.028813750000001619e+02,2.038657500000001619e+02,2.018813750000001619e+02,1.966470000000001619e+02,1.898657500000001619e+02,1.829751250000001050e+02,1.735220000000001050e+02,1.625220000000000766e+02,1.523345000000000766e+02,1.428501250000000766e+02,1.366157500000000766e+02,1.334282500000000766e+02,1.333970000000000766e+02,1.340532500000000766e+02,1.370220000000000766e+02,1.429751250000000766e+02,1.482407500000000766e+02,1.530688750000000766e+02,1.587407500000000766e+02,1.632095000000000766e+02,1.668970000000000766e+02,1.703813750000000766e+02,1.722251250000000766e+02,1.723657500000000766e+02,1.729907500000000766e+02,1.741782500000000766e+02,1.730845000000000766e+02,1.705220000000000766e+02,1.623345000000000766e+02,1.498970000000000766e+02,1.335220000000000766e+02,1.134126250000000766e+02,9.074075000000004820e+01,6.519387500000001978e+01,3.842825000000001978e+01
-4.623437500000002842e+01,-7.326562500000004263e+01,-7.667187500000005684e+01,-5.440625000000004263e+01,-1.332812500000000711e+01,2.160937500000001421e+01,4.709375000000002842e+01,5.464062500000004263e+01,4.431250000000002842e+01,2.871875000000001421e+01,5.937500000000000888e+00,-1.240625000000001066e+01,-2.303125000000001776e+01,-3.067187500000002132e+01,-2.837500000000002132e+01,-2.573437500000001776e+01,-2.206250000000001421e+01,-1.264062500000000711e+01,-4.265625000000002665e+00,1.081250000000000533e+01,2.728125000000001421e+01,3.917187500000002132e+01,4.846875000000002842e+01,4.790625000000003553e+01,3.996875000000002842e+01,2.548437500000002132e+01,3.546875000000003553e+00,-2.270312500000001421e+01,-5.175000000000004263e+01,-8.112500000000005684e+01,-1.040468750000000711e+02,-1.165000000000000853e+02,-1.159687500000000853e+02,-9.220312500000007105e+01,-5.192187500000003553e+01,7.968750000000017764e-01,6.107812500000004263e+01,1.061250000000000711e+02,1.307187500000000853e+02,1.295000000000000853e+02,1.010625000000000568e+02,5.965625000000003553e+01,1.689062500000001066e+01,-1.581250000000001243e+01,-3.403125000000002132e+01,-3.700000000000002132e+01,-2.937500000000001776e+01,-1.960937500000001421e+01,-8.125000000000005329e+00,-6.562500000000004441e-01,2.375000000000001332e+00,4.890625000000002665e+00,3.343750000000001776e+00,2.484375000000001776e+00,6.093750000000006661e-01,-4.062500000000002665e+00,-6.984375000000005329e+00,-9.859375000000007105e+00,-1.173437500000000711e+01,-1.214062500000000888e+01,-1.237500000000001066e+01,-1.395312500000001066e+01,-1.284375000000000888e+01,-8.437500000000005329e+00,-2.906250000000001776e+00,5.265625000000003553e+00,1.089062500000000711e+01,1.337500000000001066e+01,1.321875000000000888e+01,1.092187500000000711e+01,7.828125000000005329e+00,4.671875000000002665e+00,4.062500000000002665e+00,2.781250000000001776e+00,3.203125000000002665e+00,3.093750000000002665e+00,-1.218750000000000444e+00,-2.875000000000001332e+00,-5.015625000000003553e+00,-6.750000000000004441e+00,-2.671875000000001776e+00,-1.093750000000000888e+00,-1.625000000000001110e+00,6.093750000000004441e-01,-2.078125000000001776e+00,-2.453125000000002665e+00,2.093750000000001332e+00,2.406250000000001776e+00,6.140625000000003553e+00,6.109375000000003553e+00,4.375000000000001110e-01,-1.250000000000001332e+00,-5.828125000000003553e+00,-5.718750000000003553e+00,-1.718750000000001110e+00,-1.765625000000001110e+00,1.093750000000000666e+00,9.687500000000006661e-01,5.312500000000000000e-01,2.421875000000001332e+00,1.671875000000001110e+00,1.406250000000000888e+00,-2.265625000000001332e+00,-4.218750000000002665e+00,-4.703125000000003553e+00,-4.000000000000002665e+00,1.531250000000000888e+00,3.062500000000001776e+00,5.015625000000003553e+00,4.093750000000002665e+00,4.843750000000003331e-01,-2.656250000000000000e-01,-2.171875000000001332e+00,-3.125000000000000000e-02,1.375000000000000888e+00,1.515625000000001110e+00,2.843750000000002220e+00,1.531250000000000888e+00,1.140625000000000888e+00,1.796875000000001332e+00,6.250000000000000000e-02,-2.140625000000001332e+00,-2.234375000000001332e+00,-4.359375000000003553e+00,-4.171875000000003553e+00,-1.890625000000001332e+00,-3.718750000000002665e+00,-2.328125000000001776e+00,-6.718750000000004441e-01,7.812500000000000000e-02,4.265625000000002665e+00,6.156250000000003553e+00,5.906250000000003553e+00,4.734375000000003553e+00,1.390625000000001110e+00,-2.890625000000001332e+00,-5.109375000000003553e+00,-7.156250000000004441e+00,-7.640625000000005329e+00,-4.203125000000002665e+00,-2.468750000000001332e+00,1.859375000000001554e+00,5.468750000000003553e+00,3.703125000000001776e+00,4.046875000000001776e+00,1.562499999999995559e-01,-3.828125000000002665e+00,-2.515625000000001776e+00,-4.109375000000002665e+00,-2.453125000000001332e+00,-4.375000000000002220e-01,-1.984375000000001332e+00,5.625000000000002220e-01,2.671875000000001776e+00,5.031250000000003553e+00,8.765625000000005329e+00,7.093750000000004441e+00,4.390625000000003553e+00,-3.750000000000000000e-01,-5.812500000000003553e+00,-6.109375000000003553e+00,-6.312500000000003553e+00,-4.171875000000003553e+00,-7.812500000000006661e-01,5.156250000000002220e-01,1.921875000000001110e+00,4.421875000000003553e+00,6.640625000000004441e+00,7.843750000000004441e+00,1.101562500000000711e+01,9.031250000000005329e+00,4.171875000000002665e+00,-5.937500000000000000e-01,-1.115625000000000711e+01,-1.723437500000001066e+01,-1.953125000000001421e+01,-2.064062500000001421e+01,-1.326562500000000711e+01,-5.937500000000003553e+00,-6.249999999999955591e-02,7.453125000000005329e+00,9.187500000000007105e+00,8.562500000000005329e+00,8.500000000000005329e+00,5.062500000000003553e+00,1.796875000000001332e+00,1.843750000000001332e+00,5.312500000000005551e-01,7.812500000000009992e-01,4.812500000000003553e+00,4.500000000000003553e+00,5.578125000000003553e+00,7.453125000000005329e+00,3.687500000000002665e+00,4.375000000000002665e+00,5.000000000000003553e+00,3.500000000000002665e+00,7.640625000000005329e+00,9.015625000000007105e+00,9.578125000000005329e+00,1.182812500000000711e+01,1.173437500000000711e+01,1.017187500000000711e+01,7.812500000000006217e+00,4.531250000000003553e+00,-2.171875000000002220e+00,-5.562500000000005329e+00,-7.078125000000005329e+00,-8.421875000000005329e+00,-5.328125000000003553e+00,-3.515625000000001776e+00,-3.343750000000001332e+00,-4.359375000000001776e+00,-5.890625000000003553e+00,-7.906250000000004441e+00,-8.468750000000005329e+00,-5.484375000000003553e+00,-4.703125000000003553e+00,-3.859375000000002665e+00,-5.390625000000003553e+00,-9.562500000000007105e+00,-1.054687500000000711e+01,-1.017187500000000711e+01,-5.000000000000002665e+00,-2.343749999999998335e-01,1.250000000000004718e-01,-4.062499999999998335e-01,-5.609375000000003553e+00,-9.359375000000007105e+00,-6.546875000000005329e+00,-4.000000000000003553e+00,1.249999999999997780e-01,5.437500000000003553e+00,4.625000000000003553e+00,5.062500000000003553e+00,8.250000000000005329e+00,7.687500000000005329e+00,1.031250000000000711e+01,1.046875000000000711e+01,4.187500000000003553e+00,9.375000000000022204e-02,-6.515625000000003553e+00,-1.175000000000000711e+01,-1.248437500000000888e+01,-1.335937500000001066e+01,-1.242187500000000888e+01,-9.171875000000007105e+00,-4.984375000000003553e+00,8.593750000000006661e-01,8.187500000000005329e+00,1.107812500000000711e+01,1.237500000000000711e+01,1.025000000000000711e+01,4.859375000000003553e+00,1.359375000000000666e+00,-5.203125000000002665e+00,-1.134375000000000711e+01,-1.570312500000001066e+01,-1.890625000000001066e+01,-1.504687500000000711e+01,-7.328125000000005329e+00,1.781249999999999556e+00,1.137500000000000711e+01,1.354687500000000711e+01,1.373437500000000711e+01,9.703125000000007105e+00,2.937500000000002665e+00,1.781250000000001776e+00,-2.625000000000001332e+00,-2.843750000000001332e+00,-1.312500000000000444e+00,-2.140625000000001332e+00,1.625000000000000888e+00,4.312500000000002665e+00,6.250000000000003553e+00,6.796875000000003553e+00,5.312500000000002665e+00,1.296875000000000222e+00,-1.343750000000001332e+00,-2.031250000000001332e+00,-3.562500000000002665e+00,-9.531250000000004441e-01,-5.312500000000000000e-01,-1.093750000000000000e-01,2.687500000000001776e+00,2.312500000000001776e+00,3.765625000000002220e+00,5.062500000000003553e+00,2.843750000000001776e+00,5.625000000000003331e-01,-2.343750000000001332e+00,-7.234375000000005329e+00,-7.750000000000005329e+00,-5.562500000000003553e+00,-3.500000000000002665e+00,2.406250000000001776e+00,4.578125000000003553e+00,4.421875000000002665e+00,5.281250000000002665e+00,3.734375000000002220e+00,5.625000000000003553e+00,9.953125000000005329e+00,1.278125000000000711e+01,1.478125000000001066e+01,1.175000000000000711e+01,4.500000000000003553e+00,-2.625000000000001776e+00,-9.109375000000007105e+00,-1.076562500000000711e+01,-9.281250000000007105e+00,-7.109375000000005329e+00,-4.328125000000002665e+00,-3.578125000000002665e+00,-3.781250000000002665e+00,-5.015625000000003553e+00,-6.000000000000004441e+00,-7.156250000000005329e+00,-6.062500000000003553e+00,-2.531250000000001776e+00,1.093750000000000888e+00,6.234375000000005329e+00,7.296875000000005329e+00,6.250000000000004441e+00,4.515625000000003553e+00,6.250000000000000000e-02,-1.656250000000001110e+00,-2.703125000000001776e+00,-4.015625000000002665e+00,-8.437500000000004441e-01,4.000000000000002665e+00,9.328125000000007105e+00,1.568750000000001066e+01,1.751562500000001066e+01,1.329687500000000711e+01,7.375000000000003553e+00,4.374999999999995559e-01,-6.593750000000005329e+00,-6.468750000000005329e+00,-5.421875000000003553e+00,-3.953125000000002665e+00,3.156250000000002665e+00,4.828125000000003553e+00,7.234375000000004441e+00,8.968750000000007105e+00,3.656250000000003109e+00,-1.562499999999955591e-02,-4.046875000000002665e+00,-5.953125000000003553e+00,-4.109375000000002665e+00,5.312500000000000000e-01,4.312500000000002665e+00,4.828125000000002665e+00,7.250000000000003553e+00,6.171875000000004441e+00,6.390625000000005329e+00,1.090625000000000711e+01,9.046875000000007105e+00,5.843750000000003553e+00,-4.218750000000026645e-01,-1.300000000000001066e+01,-2.046875000000001421e+01,-2.340625000000001776e+01,-2.214062500000001421e+01,-1.492187500000000711e+01,-8.250000000000003553e+00,-3.640625000000001776e+00,-7.968750000000004441e-01,-3.125000000000004163e-02,4.687500000000002776e-02,1.718750000000001110e-01,1.875000000000001110e-01,9.375000000000008327e-02,6.250000000000005551e-02,-6.250000000000004163e-02,-6.250000000000004163e-02,-6.938893903907228378e-18,-1.562500000000001735e-02,1.562500000000001041e-02,-6.250000000000002776e-02,-1.562500000000000833e-01,-1.406250000000000833e-01,-7.812500000000004163e-02,4.687500000000004163e-02,1.718750000000001110e-01,1.718750000000001110e-01,4.687500000000002776e-02,-9.375000000000006939e-02,-2.343750000000001665e-01,-2.812500000000002220e-01,-1.796875000000001332e+00,-4.828125000000003553e+00,-1.064062500000000711e+01,-1.918750000000001066e+01,-2.479687500000001421e+01,-2.773437500000002132e+01,-2.429687500000001776e+01,-1.543750000000001066e+01,-7.703125000000005329e+00,-1.781250000000001776e+00,3.281250000000001665e-01,1.968750000000000888e+00,3.468750000000001776e+00,9.234375000000003553e+00,1.487500000000000711e+01,1.492187500000000888e+01,1.471875000000001066e+01,7.062500000000006217e+00,-9.062499999999993339e-01,-4.375000000000002665e+00,-6.375000000000004441e+00,-2.531250000000002665e+00,3.203125000000001332e+00,8.125000000000005329e+00,9.546875000000007105e+00,7.906250000000005329e+00,4.234375000000003553e+00,9.375000000000004441e-01,5.625000000000007772e-01,2.312500000000001776e+00,4.781250000000003553e+00,3.984375000000002665e+00,2.859375000000001776e+00,-3.906250000000004441e-01,-3.125000000000002220e+00,-1.406249999999995559e-01,2.125000000000001776e+00,6.906250000000005329e+00,1.107812500000000711e+01,9.015625000000005329e+00,7.312500000000005329e+00,1.609375000000000888e+00,-4.125000000000002665e+00,-4.203125000000002665e+00,-5.546875000000003553e+00,-1.703125000000000444e+00,2.859375000000002220e+00,2.265625000000001776e+00,4.906250000000003553e+00,2.578125000000001776e+00,-2.328125000000000888e+00,-2.640625000000001776e+00,-7.109375000000003553e+00,-7.281250000000003553e+00,-3.468750000000002220e+00,-3.843750000000002220e+00,-1.015625000000000666e+00,-2.593750000000000888e+00,-6.234375000000003553e+00,-5.250000000000003553e+00,-5.921875000000003553e+00,-1.734375000000001332e+00,2.593750000000001776e+00,3.234375000000001776e+00,6.453125000000003553e+00,6.593750000000003553e+00,5.515625000000003553e+00,6.062500000000003553e+00,2.578125000000001332e+00,7.812499999999994449e-02,1.640625000000000888e+00,2.593750000000001776e+00,5.093750000000003553e+00,6.640625000000004441e+00,2.046875000000001776e+00,-2.078125000000000888e+00,-3.796875000000001776e+00,-5.234375000000002665e+00,-7.656250000000000000e-01,2.703125000000001776e+00,3.359375000000001776e+00,6.140625000000003553e+00,4.296875000000003553e+00,3.328125000000001776e+00,3.125000000000001776e+00,-1.562500000000000888e+00,-2.703125000000001776e+00,-3.031250000000001776e+00,-2.375000000000001332e+00,3.515625000000002665e+00,6.875000000000005329e+00,8.812500000000005329e+00,7.921875000000005329e+00,2.421875000000001332e+00,-8.593750000000006661e-01,-3.781250000000002665e+00,-3.328125000000001776e+00,1.453125000000000666e+00,3.218750000000001776e+00,4.984375000000003553e+00,5.765625000000003553e+00,1.875000000000001554e+00,1.062500000000000666e+00,6.562500000000002220e-01,-1.468750000000000444e+00,1.046875000000000888e+00,3.015625000000002220e+00,5.265625000000003553e+00,9.671875000000005329e+00,1.085937500000000533e+01,9.671875000000005329e+00,6.312500000000003553e+00,1.546875000000000888e+00,-3.546875000000001332e+00,-7.281250000000003553e+00,-8.984375000000003553e+00,-9.562500000000005329e+00,-6.468750000000003553e+00,-1.343750000000001332e+00,4.156250000000002665e+00,8.515625000000005329e+00,8.609375000000005329e+00,5.671875000000003553e+00,7.187500000000006661e-01,-4.671875000000002665e+00,-6.937500000000003553e+00,-7.468750000000005329e+00,-5.109375000000003553e+00,1.250000000000000222e+00,5.843750000000003553e+00,9.234375000000003553e+00,9.015625000000003553e+00,1.640625000000000888e+00,-4.687500000000003553e+00,-8.609375000000005329e+00,-9.484375000000005329e+00,-3.218750000000001776e+00,1.875000000000001776e+00,2.750000000000001776e+00,1.281250000000000666e+00,-4.140625000000003553e+00,-1.015625000000000711e+01,-1.300000000000001066e+01,-1.353125000000001066e+01,-1.403125000000001066e+01,-1.126562500000000711e+01,-7.140625000000005329e+00,-4.421875000000003553e+00,7.812500000000002220e-01,4.031250000000002665e+00,3.890625000000002665e+00,3.843750000000002665e+00,1.859375000000001332e+00,-4.218750000000002776e-01,-1.421875000000000888e+00,-6.250000000000004441e-01,-2.031250000000001665e-01,-2.343750000000001665e-01,1.062500000000000666e+00,-1.531250000000000888e+00,-1.687500000000000888e+00,-1.125000000000000888e+00,-2.843750000000002220e+00,-1.203125000000000888e+00,-3.343750000000002665e+00,-4.015625000000003553e+00,-3.234375000000001776e+00,-2.281250000000001332e+00,1.390625000000001110e+00,2.031250000000001776e+00,2.640625000000001776e+00,-3.749999999999997780e-01,-2.234375000000001332e+00,-8.281250000000002220e-01,-6.718749999999998890e-01,4.109375000000002665e+00,5.375000000000003553e+00,2.781250000000001776e+00,2.062500000000000888e+00,-1.234375000000000888e+00,-3.468750000000002665e+00,-1.421875000000000888e+00,3.124999999999988898e-02,7.812500000000013878e-02,2.875000000000001776e+00,2.015625000000000888e+00,-1.031250000000000444e+00,-7.343750000000006661e-01,-3.281250000000002665e+00,-3.781250000000003109e+00,-1.562500000000044409e-02,2.406250000000001332e+00,4.812500000000003553e+00,6.000000000000004441e+00,2.171875000000001332e+00,-3.015625000000001776e+00,-7.562500000000005329e+00,-9.203125000000007105e+00,-5.531250000000003553e+00,-6.250000000000044409e-02,7.000000000000004441e+00,9.937500000000007105e+00,7.406250000000005329e+00,4.687500000000003553e+00,6.718750000000006661e-01,-1.656250000000000888e+00,1.046875000000000888e+00,2.359375000000001776e+00,9.062500000000006661e-01,1.296875000000000888e+00,-1.312500000000000666e+00,-3.703125000000002220e+00,-3.125000000000000000e-01,6.718750000000005551e-01,5.781250000000003331e-01,3.281250000000001776e+00,7.343750000000000000e-01,-2.234375000000001776e+00,-1.718750000000002220e-01,-1.765625000000000888e+00,-1.687500000000000888e+00,1.656250000000001110e+00,-1.671875000000001110e+00,-2.906250000000002220e+00,-2.046875000000001776e+00,-5.015625000000003553e+00,-1.750000000000001776e+00,1.062500000000000444e+00,1.984375000000000888e+00,5.859375000000003553e+00,4.968750000000003553e+00,3.453125000000002220e+00,1.109375000000000888e+00,-1.890625000000000888e+00,-1.046875000000000666e+00,7.500000000000008882e-01,4.453125000000003553e+00,5.468750000000003553e+00,3.125000000000002665e+00,-5.312500000000002220e-01,-5.625000000000003553e+00,-6.593750000000004441e+00,-6.421875000000004441e+00,-3.484375000000002665e+00,9.531250000000007772e-01,3.109375000000001776e+00,6.843750000000003553e+00,7.390625000000003553e+00,5.578125000000003553e+00,3.921875000000002665e+00,1.265625000000000666e+00,-3.125000000000001388e-02,-1.562500000000001388e-02,-5.468750000000004441e-01,-2.750000000000001776e+00,-4.765625000000003553e+00,-4.109375000000002665e+00,-2.218750000000001332e+00,1.453125000000000888e+00,4.437500000000002665e+00,1.937500000000001332e+00,-1.406250000000000666e+00,-5.500000000000003553e+00,-8.296875000000005329e+00,-7.562500000000005329e+00,-5.265625000000003553e+00,-2.812500000000004441e-01,3.156250000000002220e+00,7.937500000000007105e+00,1.081250000000000888e+01,8.234375000000007105e+00,7.437500000000005329e+00,2.218750000000001776e+00,-2.953125000000002220e+00,-2.843750000000001776e+00,-5.750000000000003553e+00,-4.546875000000002665e+00,-3.015625000000001776e+00,-3.593750000000001776e+00,-1.171875000000000666e+00,-3.125000000000001110e-01,2.500000000000001332e+00,4.578125000000002665e+00,6.531250000000003553e+00,6.515625000000003553e+00,4.203125000000001776e+00,1.625000000000000444e+00,-2.546875000000002220e+00,-2.609375000000001776e+00,-3.484375000000001776e+00,-1.453125000000000444e+00,1.250000000000004441e-01,-2.187500000000001332e+00,-1.375000000000001110e+00,-3.609375000000002665e+00,-3.859375000000002665e+00,-2.093750000000000888e+00,-1.406250000000000666e+00,1.062500000000000666e+00,1.906250000000001332e+00,3.765625000000002220e+00,1.937500000000001332e+00,-1.359375000000000444e+00,-2.359375000000001332e+00,-6.078125000000003553e+00,-2.734375000000001776e+00,1.468750000000000888e+00,3.453125000000002220e+00,7.265625000000005329e+00,4.296875000000002665e+00,2.265625000000001776e+00,9.375000000000007772e-01,-1.125000000000000666e+00,4.843750000000002220e-01,7.500000000000003331e-01,1.093750000000000666e+00,1.359375000000000888e+00,6.562500000000004441e-01,2.500000000000003331e-01,-2.078125000000001332e+00,-3.140625000000001776e+00,-4.468750000000003553e+00,-6.218750000000004441e+00,-3.265625000000002220e+00,-1.562500000000000888e+00,1.421875000000001110e+00,4.750000000000003553e+00,4.406250000000002665e+00,4.015625000000001776e+00,2.421875000000001332e+00,2.203125000000001332e+00,1.531250000000001110e+00,1.734375000000001332e+00,3.218750000000001776e+00,2.343750000000001332e+00,2.140625000000001332e+00,1.359375000000000444e+00,-2.984375000000001776e+00,-6.515625000000005329e+00,-7.328125000000005329e+00,-9.015625000000005329e+00,-6.250000000000004441e+00,-2.062500000000001332e+00,-5.468750000000003331e-01,4.062500000000002665e+00,5.421875000000003553e+00,5.281250000000003553e+00,5.140625000000003553e+00,5.000000000000004441e-01,-1.078125000000000666e+00,-1.703125000000001332e+00,-2.109375000000001776e+00,1.250000000000000555e-01,3.281250000000002220e-01,-1.359375000000000666e+00,-3.343750000000001776e+00,-4.281250000000002665e+00,-6.937500000000003553e+00,-8.984375000000005329e+00,-8.593750000000005329e+00,-9.828125000000007105e+00,-6.281250000000003553e+00,1.296875000000000888e+00,5.390625000000003553e+00,8.765625000000005329e+00,8.406250000000003553e+00,1.515625000000000666e+00,-2.390625000000001332e+00,-3.515625000000001776e+00,-3.890625000000002220e+00,1.828125000000000888e+00,5.593750000000003553e+00,5.093750000000002665e+00,6.062500000000003553e+00,8.750000000000008882e-01,-3.421875000000001776e+00,-2.281250000000001332e+00,-4.890625000000003553e+00,-1.437500000000001332e+00,2.359375000000001332e+00,5.937500000000004441e-01,4.687500000000002665e+00,4.734375000000002665e+00,1.531250000000001332e+00,2.656250000000002220e+00,-2.875000000000002220e+00,-5.984375000000004441e+00,-3.750000000000002665e+00,-3.031250000000002665e+00,3.812500000000001776e+00,7.062500000000003553e+00,5.781250000000003553e+00,1.375000000000001332e+00,-8.406250000000005329e+00,-1.501562500000001066e+01,-1.742187500000001066e+01,-1.303125000000000711e+01,-4.296875000000002665e+00,6.078125000000003553e+00,1.068750000000000711e+01,9.296875000000005329e+00,7.781250000000005329e+00,2.328125000000001776e+00,4.734375000000002665e+00,1.045312500000000711e+01,1.198437500000000711e+01,1.557812500000001066e+01,1.148437500000000711e+01,5.921875000000003553e+00,2.921875000000002220e+00,-7.500000000000013323e-01,-2.140625000000002220e+00,-2.984375000000001776e+00,-2.500000000000001776e+00,-3.250000000000001776e+00,5.937500000000008882e-01,2.125000000000001776e+00,1.171875000000001554e+00,3.046875000000002220e+00,-3.906250000000002220e+00,-7.593750000000005329e+00,-1.090625000000000711e+01,-1.742187500000001066e+01,-1.375000000000000711e+01,-1.239062500000000711e+01,-7.562500000000005329e+00,1.421875000000001554e+00,9.843750000000013323e-01,4.593750000000003553e+00,1.843750000000000888e+00,-5.109375000000003553e+00,-3.093750000000002665e+00,-7.078125000000005329e+00,-3.953125000000003109e+00,1.968750000000000888e+00,-4.687500000000001388e-02,3.984375000000003109e+00,4.484375000000003553e+00,4.109375000000003553e+00,7.375000000000005329e+00,5.781250000000003553e+00,1.953125000000000888e+00,-1.421875000000001554e+00,-3.218750000000002220e+00,-3.062500000000002220e+00,1.093750000000000222e+00,3.109375000000001776e+00,2.531250000000001776e+00,2.765625000000001776e+00,7.343750000000006661e-01,1.593750000000001110e+00,3.343750000000002220e+00,2.515625000000001776e+00,2.796875000000001776e+00,2.375000000000001776e+00,5.156250000000003331e-01,2.343750000000001776e+00,2.296875000000001776e+00,-1.031250000000000444e+00,-7.656250000000001110e-01,-2.734375000000001332e+00,-8.750000000000000000e-01,6.750000000000003553e+00,9.937500000000007105e+00,1.131250000000000711e+01,8.234375000000005329e+00,-1.875000000000000000e-01,-7.515625000000004441e+00,-1.060937500000000711e+01,-1.276562500000000888e+01,-1.178125000000000711e+01,-7.296875000000005329e+00,-7.046875000000005329e+00,-3.687500000000002665e+00,-2.343750000000000888e+00,-4.218750000000001776e+00,-3.078125000000001776e+00,-3.218750000000001776e+00,-4.375000000000004441e-01,3.093750000000001776e+00,7.484375000000004441e+00,8.687500000000005329e+00,7.046875000000005329e+00,6.046875000000003553e+00,8.750000000000006661e-01,-1.031250000000000444e+00,-1.031250000000000666e+00,-2.546875000000001776e+00,-2.171875000000001776e+00,-2.296875000000001776e+00,-2.421875000000001776e+00,-1.875000000000001554e+00,2.515625000000001776e+00,8.234375000000007105e+00,1.045312500000000711e+01,1.325000000000000888e+01,8.875000000000007105e+00,-1.109375000000001332e+00,-6.406250000000005329e+00,-1.071875000000000711e+01,-7.718750000000006217e+00,1.953125000000001110e+00,8.390625000000005329e+00,1.007812500000000711e+01,4.750000000000002665e+00,-4.078125000000002665e+00,-1.225000000000000711e+01,-1.295312500000000711e+01,-9.437500000000005329e+00,-4.609375000000002665e+00,2.468750000000001332e+00,1.546875000000000444e+00,1.203125000000000444e+00,-1.156250000000001332e+00,-4.593750000000003553e+00,-1.937500000000000888e+00,-8.593750000000004441e-01,3.718750000000002665e+00,3.828125000000002665e+00,1.718750000000000444e+00,7.968750000000000000e-01,-3.734375000000002665e+00,5.468750000000004441e-01,4.343750000000003553e+00,4.187500000000003553e+00,6.375000000000005329e+00,-2.968750000000000000e-01,-4.500000000000003553e+00,-2.921875000000001776e+00,-4.031250000000002665e+00,2.015625000000001332e+00,2.515625000000001776e+00,-2.656250000000006661e-01,2.750000000000001332e+00,-1.187500000000000444e+00,5.000000000000008882e-01,1.390625000000001332e+00,-6.328125000000003553e+00,-8.203125000000005329e+00,-1.028125000000000711e+01,-9.859375000000007105e+00,1.874999999999986677e-01,7.812500000000004441e+00,1.018750000000000533e+01,1.123437500000000711e+01,3.609375000000002220e+00,-3.031250000000001776e+00,-5.078125000000003553e+00,-7.890625000000005329e+00,-5.640625000000003553e+00,-5.796875000000003553e+00,-5.421875000000003553e+00,-7.968750000000007772e-01,2.265625000000000888e+00,8.546875000000005329e+00,1.134375000000000711e+01,6.906250000000003553e+00,5.625000000000003553e+00,4.484375000000002665e+00,7.171875000000004441e+00,1.692187500000001066e+01,1.815625000000001421e+01,1.348437500000001066e+01,4.000000000000003553e+00,-1.279687500000000711e+01,-1.917187500000001421e+01,-1.842187500000001066e+01,-1.407812500000000711e+01,-2.250000000000001332e+00,2.750000000000001776e+00,2.031250000000001332e+00,5.937500000000001110e-01,-4.421875000000003553e+00,-7.359375000000005329e+00,-4.296875000000002665e+00,8.281250000000009992e-01,5.328125000000003553e+00,1.015625000000000711e+01,1.307812500000000888e+01,1.212500000000000711e+01,1.371875000000000711e+01,1.473437500000001066e+01,8.375000000000005329e+00,3.312500000000001776e+00,-8.250000000000005329e+00,-2.039062500000001421e+01,-2.128125000000001421e+01,-2.378125000000001421e+01,-1.581250000000001066e+01,-5.281250000000003553e+00,-3.125000000000001332e+00,5.609375000000003553e+00,6.093750000000003553e+00,3.140625000000002665e+00,6.218750000000004441e+00,1.875000000000001110e+00,-1.874999999999997780e-01,7.031250000000006661e-01,-1.078125000000000444e+00,1.718750000000001332e+00,6.843750000000003553e+00,8.968750000000005329e+00,8.562500000000005329e+00,5.687500000000003553e+00,3.250000000000002665e+00,9.437500000000007105e+00,2.437500000000001421e+01,4.217187500000002842e+01,4.759375000000002842e+01,3.257812500000002132e+01,-1.781250000000001776e+00
-4.650000000000001421e+01,-6.893750000000002842e+01,-3.737500000000002132e+01,-8.500000000000005329e+00,4.875000000000002665e+00,1.412500000000000711e+01,2.481250000000001066e+01,2.400000000000001066e+01,1.418750000000000355e+01,8.625000000000001776e+00,6.250000000000004441e-01,-7.937500000000001776e+00,-1.450000000000000355e+01,-1.525000000000000711e+01,-3.562500000000001776e+00,5.000000000000000000e-01,-7.562500000000003553e+00,-1.006250000000000533e+01,-4.500000000000002665e+00,3.250000000000002220e+00,3.875000000000002220e+00,1.006250000000000355e+01,2.825000000000001066e+01,2.325000000000000711e+01,-1.562500000000002665e+00,3.750000000000000000e-01,1.962500000000000711e+01,7.125000000000001776e+00,-2.612500000000001066e+01,-3.187500000000001066e+01,-2.106250000000000711e+01,-3.081250000000001066e+01,-4.293750000000001421e+01,-3.887500000000001421e+01,-3.318750000000001421e+01,-5.250000000000001776e+00,3.687500000000001421e+01,4.056250000000001421e+01,3.675000000000001421e+01,5.875000000000002132e+01,5.175000000000002132e+01,6.000000000000005329e+00,-1.893750000000000711e+01,-1.550000000000000711e+01,-1.437500000000000711e+01,-1.093750000000000533e+01,-5.062500000000001776e+00,-9.250000000000003553e+00,-5.625000000000003553e+00,1.062500000000000533e+01,1.181250000000000711e+01,-6.187500000000001776e+00,-1.137500000000000533e+01,6.312500000000001776e+00,1.168750000000000533e+01,-1.812500000000001332e+00,-6.750000000000003553e+00,-6.562500000000003553e+00,-7.000000000000002665e+00,1.812500000000000888e+00,5.187500000000001776e+00,-6.375000000000003553e+00,-1.037500000000000533e+01,-5.875000000000003553e+00,-4.375000000000002665e+00,5.250000000000001776e+00,1.462500000000000711e+01,4.187500000000001776e+00,-7.562500000000003553e+00,2.687500000000001776e+00,1.393750000000000711e+01,2.500000000000001776e+00,-1.162500000000000533e+01,-4.437500000000001776e+00,9.812500000000005329e+00,6.500000000000003553e+00,-1.437500000000000444e+00,-9.375000000000002220e-01,-7.750000000000003553e+00,-7.625000000000003553e+00,7.125000000000003553e+00,3.062500000000001776e+00,-6.125000000000001776e+00,3.750000000000001332e+00,3.500000000000000444e+00,-6.312500000000003553e+00,-4.500000000000001776e+00,5.625000000000003331e-01,6.062500000000003553e+00,7.750000000000003553e+00,3.250000000000000888e+00,-3.250000000000001776e+00,-1.031250000000000533e+01,-5.000000000000002665e+00,3.750000000000002220e+00,2.937500000000001776e+00,4.500000000000001776e+00,6.250000000000000000e-01,-9.375000000000005329e+00,-3.937500000000002665e+00,1.018750000000000355e+01,9.125000000000003553e+00,-4.125000000000000888e+00,-8.625000000000003553e+00,-4.937500000000002665e+00,5.000000000000002220e-01,4.062500000000001776e+00,3.125000000000000000e-01,8.750000000000000000e-01,5.125000000000001776e+00,2.125000000000000888e+00,-3.500000000000001776e+00,-5.000000000000001776e+00,-2.125000000000000888e+00,1.625000000000000888e+00,7.625000000000002665e+00,5.437500000000001776e+00,-9.000000000000003553e+00,-8.125000000000003553e+00,8.312500000000003553e+00,9.750000000000003553e+00,-1.500000000000000888e+00,-9.062500000000003553e+00,-8.312500000000003553e+00,5.062500000000001776e+00,9.437500000000003553e+00,-5.687500000000002665e+00,-7.625000000000003553e+00,2.187500000000001332e+00,1.062500000000000888e+00,-6.875000000000001110e-01,2.750000000000001332e+00,4.625000000000001776e+00,4.000000000000001776e+00,-3.750000000000002220e-01,-4.500000000000001776e+00,-2.062500000000000444e+00,8.750000000000005551e-01,-1.750000000000000666e+00,-6.812500000000002665e+00,-4.187500000000001776e+00,7.375000000000003553e+00,5.312500000000002665e+00,-4.437500000000001776e+00,3.062500000000001776e+00,7.312500000000003553e+00,-3.750000000000001776e+00,-1.050000000000000355e+01,-4.250000000000000888e+00,9.125000000000003553e+00,6.625000000000002665e+00,-8.375000000000003553e+00,-5.500000000000002665e+00,3.625000000000002220e+00,1.250000000000000888e+00,1.812500000000000444e+00,8.000000000000003553e+00,6.062500000000001776e+00,-4.000000000000001776e+00,-6.187500000000002665e+00,-3.125000000000001776e+00,-4.937500000000001776e+00,1.750000000000000444e+00,7.562500000000002665e+00,-4.687500000000002665e+00,-7.187500000000003553e+00,8.062500000000003553e+00,6.187500000000002665e+00,-5.937500000000002665e+00,7.500000000000008882e-01,1.006250000000000355e+01,7.625000000000001776e+00,-8.125000000000013323e-01,-8.500000000000003553e+00,-5.312500000000001776e+00,-4.250000000000001776e+00,-1.056250000000000355e+01,-7.875000000000003553e+00,-1.625000000000000444e+00,5.250000000000001776e+00,9.375000000000003553e+00,-1.312500000000000000e+00,-3.937500000000001332e+00,9.250000000000003553e+00,6.375000000000002665e+00,-5.500000000000002665e+00,-3.500000000000001332e+00,5.000000000000003331e-01,2.375000000000000888e+00,2.500000000000000888e+00,-2.687500000000000888e+00,1.875000000000000888e+00,7.250000000000002665e+00,2.499999999999995559e-01,-8.750000000000008882e-01,-4.375000000000004441e-01,-1.812500000000000888e+00,5.000000000000001776e+00,3.687500000000001332e+00,-2.500000000000002220e-01,6.375000000000002665e+00,3.062500000000001776e+00,-3.437500000000001776e+00,8.000000000000001776e+00,9.875000000000005329e+00,-7.437500000000000888e+00,-7.375000000000001776e+00,1.000000000000000222e+00,-4.250000000000002665e+00,-3.125000000000002665e+00,2.937500000000000888e+00,-6.249999999999955591e-02,-3.125000000000002220e-01,1.125000000000000222e+00,-6.062500000000001776e+00,-6.000000000000001776e+00,1.187500000000000444e+00,-2.937500000000001332e+00,-1.687500000000000444e+00,9.437500000000003553e+00,2.250000000000000888e+00,-1.606250000000000711e+01,-1.300000000000000355e+01,3.812500000000000888e+00,5.812500000000001776e+00,4.125000000000001776e+00,6.750000000000003553e+00,-4.562500000000001776e+00,-1.306250000000000711e+01,-5.187500000000002665e+00,-1.250000000000000000e-01,5.375000000000001776e+00,8.625000000000003553e+00,-2.437500000000000444e+00,-4.250000000000001776e+00,3.312500000000001332e+00,5.625000000000000000e-01,3.562500000000001776e+00,9.125000000000003553e+00,3.250000000000001332e+00,-7.500000000000005551e-01,-3.937500000000001776e+00,-7.875000000000003553e+00,-4.562500000000001776e+00,-6.875000000000003331e-01,-7.500000000000001110e-01,-3.125000000000000888e+00,-7.062500000000003553e+00,-4.562500000000002665e+00,5.250000000000002665e+00,1.093750000000000355e+01,9.000000000000003553e+00,2.500000000000000000e-01,-5.750000000000003553e+00,-9.375000000000004441e-01,4.562500000000001776e+00,4.062500000000001776e+00,-5.562500000000003553e+00,-1.712500000000000711e+01,-1.193750000000000533e+01,2.250000000000000444e+00,5.812500000000003553e+00,2.812500000000001776e+00,5.875000000000001776e+00,1.037500000000000355e+01,2.062500000000000000e+00,-4.750000000000002665e+00,-6.250000000000000000e-01,-1.812500000000000666e+00,-3.750000000000004441e-01,3.187500000000001776e+00,-1.750000000000000222e+00,-3.750000000000001776e+00,-1.687500000000001332e+00,2.625000000000001332e+00,1.081250000000000533e+01,7.562500000000003553e+00,-8.500000000000003553e+00,-9.187500000000003553e+00,4.812500000000001776e+00,5.875000000000001776e+00,-4.625000000000001776e+00,-6.625000000000002665e+00,4.687500000000002665e+00,6.187500000000003553e+00,-5.562500000000002665e+00,-1.437500000000000888e+00,7.375000000000003553e+00,0.000000000000000000e+00,-1.000000000000000888e+00,5.562500000000002665e+00,-2.437500000000000000e+00,-1.131250000000000355e+01,-5.937500000000003553e+00,3.937500000000001332e+00,6.062500000000002665e+00,-1.125000000000000222e+00,-1.250000000000000000e-01,6.562500000000003553e+00,-6.250000000000000000e-02,-5.625000000000002665e+00,3.750000000000000000e-01,4.812500000000001776e+00,8.250000000000003553e+00,1.187500000000000533e+01,4.937500000000003553e+00,-9.312500000000003553e+00,-1.156250000000000533e+01,-6.250000000000008882e-01,1.250000000000000000e+00,-4.437500000000001776e+00,-6.250000000000000000e-02,3.812500000000001332e+00,-3.062500000000001332e+00,-5.250000000000001776e+00,1.875000000000001332e+00,2.187500000000001332e+00,-5.250000000000001776e+00,-8.125000000000003553e+00,-1.937500000000000888e+00,7.937500000000003553e+00,1.056250000000000355e+01,3.375000000000001776e+00,-7.125000000000003553e+00,-5.875000000000003553e+00,7.312500000000003553e+00,4.625000000000002665e+00,-8.750000000000003553e+00,-4.437500000000002665e+00,2.437500000000000888e+00,-6.875000000000003331e-01,4.562500000000001776e+00,1.337500000000000711e+01,1.081250000000000533e+01,1.062500000000000444e+00,-8.875000000000005329e+00,-7.250000000000003553e+00,3.125000000000001776e+00,-6.875000000000000000e-01,-5.312500000000001776e+00,2.250000000000000888e+00,1.312500000000000222e+00,1.375000000000000222e+00,7.187500000000003553e+00,3.625000000000001776e+00,8.125000000000011102e-01,-2.125000000000000000e+00,-1.043750000000000533e+01,-6.375000000000002665e+00,6.750000000000002665e+00,6.187500000000001776e+00,1.375000000000001110e+00,1.937500000000001332e+00,-2.937500000000001776e+00,-4.440892098500626162e-16,6.250000000000002665e+00,-1.000000000000000888e+00,5.062500000000003553e+00,1.562500000000000711e+01,-3.750000000000002665e+00,-2.225000000000000711e+01,-1.406250000000000355e+01,-2.437500000000000888e+00,2.500000000000001110e-01,-1.250000000000000833e-01,-3.125000000000001665e-01,-6.250000000000002776e-02,6.250000000000002776e-02,0.000000000000000000e+00,1.250000000000000555e-01,1.250000000000000555e-01,0.000000000000000000e+00,6.250000000000002776e-02,0.000000000000000000e+00,-1.875000000000000833e-01,-1.875000000000000833e-01,1.250000000000000833e-01,3.750000000000002220e-01,0.000000000000000000e+00,-3.750000000000002220e-01,-1.250000000000000833e-01,6.250000000000002776e-02,-6.250000000000002776e-02,6.250000000000002776e-02,3.125000000000001665e-01,1.875000000000001110e-01,-1.875000000000001110e-01,-3.125000000000001665e-01,-6.250000000000002776e-02,0.000000000000000000e+00,-1.875000000000000833e-01,1.250000000000000555e-01,4.375000000000002220e-01,-6.625000000000003553e+00,-1.950000000000001066e+01,-1.650000000000000711e+01,-5.624999999999982236e-01,6.062500000000003553e+00,6.750000000000001776e+00,3.937500000000001776e+00,-7.812500000000004441e+00,-1.031250000000000533e+01,5.375000000000003553e+00,1.118750000000000533e+01,6.812500000000001776e+00,9.187500000000003553e+00,1.937500000000001332e+00,-7.062500000000003553e+00,-2.625000000000001776e+00,-2.437500000000001776e+00,-5.500000000000003553e+00,5.625000000000000000e-01,5.687500000000002665e+00,5.937500000000002665e+00,8.687500000000003553e+00,2.500000000000000444e+00,-1.175000000000000533e+01,-7.250000000000003553e+00,9.250000000000003553e+00,6.625000000000003553e+00,-3.187500000000000888e+00,3.312500000000000888e+00,4.812500000000001776e+00,-7.375000000000002665e+00,-9.437500000000003553e+00,1.812500000000000888e+00,1.081250000000000355e+01,4.625000000000001776e+00,-3.250000000000001776e+00,5.312500000000002665e+00,8.687500000000003553e+00,-4.562500000000002665e+00,-1.300000000000000711e+01,-4.687500000000001776e+00,8.500000000000003553e+00,3.750000000000002220e+00,-4.312500000000001776e+00,3.875000000000001776e+00,2.750000000000001776e+00,-3.250000000000001332e+00,2.937500000000001332e+00,-9.375000000000000000e-01,-9.187500000000003553e+00,-5.312500000000001776e+00,1.875000000000001332e+00,7.562500000000003553e+00,4.000000000000001776e+00,-5.250000000000001776e+00,-8.812500000000003553e+00,-6.250000000000003553e+00,2.562500000000002220e+00,6.625000000000003553e+00,3.750000000000001332e+00,7.499999999999998890e-01,-6.062500000000003553e+00,-2.125000000000000888e+00,1.325000000000000711e+01,9.562500000000005329e+00,-7.812500000000003553e+00,-1.306250000000000711e+01,-3.500000000000001776e+00,1.293750000000000711e+01,1.425000000000000711e+01,-2.937500000000001776e+00,-7.625000000000004441e+00,-2.812500000000001776e+00,-6.625000000000002665e+00,-1.625000000000000000e+00,1.043750000000000533e+01,7.000000000000003553e+00,-6.687500000000003553e+00,-7.125000000000003553e+00,9.062500000000003553e+00,9.250000000000003553e+00,-6.687500000000002665e+00,-3.437500000000001332e+00,2.000000000000000888e+00,-7.750000000000003553e+00,-3.687500000000001776e+00,1.093750000000000533e+01,8.312500000000003553e+00,-2.250000000000001332e+00,1.625000000000000444e+00,5.312500000000001776e+00,-8.375000000000003553e+00,-1.206250000000000355e+01,3.875000000000002665e+00,1.100000000000000533e+01,4.812500000000002665e+00,-3.937500000000001332e+00,-4.812500000000002665e+00,5.562500000000001776e+00,3.187500000000001776e+00,-7.500000000000002665e+00,5.000000000000000000e-01,5.625000000000001776e+00,-4.062500000000001776e+00,-1.687500000000000444e+00,9.500000000000005329e+00,9.500000000000005329e+00,2.250000000000001332e+00,-4.187500000000001776e+00,-6.812500000000003553e+00,-4.375000000000004441e-01,5.062500000000001776e+00,-3.250000000000002220e+00,-1.206250000000000533e+01,-6.250000000000002665e+00,6.937500000000002665e+00,1.218750000000000533e+01,5.312500000000002665e+00,-3.187500000000001332e+00,-3.062500000000001332e+00,1.937500000000000444e+00,-8.750000000000004441e-01,-8.437500000000003553e+00,-3.437500000000000888e+00,4.000000000000001776e+00,-1.812500000000000888e+00,1.875000000000004441e-01,1.400000000000000533e+01,1.206250000000000355e+01,-7.125000000000003553e+00,-2.000000000000000711e+01,-8.750000000000001776e+00,9.437500000000005329e+00,4.812500000000001776e+00,-6.250000000000000000e-01,9.812500000000005329e+00,9.375000000000000000e-01,-1.850000000000000711e+01,-6.750000000000001776e+00,9.750000000000003553e+00,-2.125000000000001776e+00,-1.268750000000000711e+01,-6.125000000000003553e+00,2.312500000000000888e+00,7.187500000000003553e+00,1.312500000000000000e+00,-5.312500000000002665e+00,4.187500000000002665e+00,7.875000000000003553e+00,-5.062500000000003553e+00,-6.687500000000003553e+00,2.937500000000001776e+00,1.000000000000000888e+00,-1.125000000000000444e+00,4.250000000000001776e+00,4.375000000000004441e-01,-4.937500000000001776e+00,-2.625000000000000888e+00,1.187500000000000444e+00,3.312500000000001776e+00,1.250000000000002220e-01,-2.625000000000001332e+00,-3.500000000000001776e+00,-4.125000000000001776e+00,6.250000000000000000e-02,5.562500000000002665e+00,6.125000000000002665e+00,5.625000000000000000e-01,-5.437500000000002665e+00,-8.375000000000003553e+00,-1.187500000000000000e+00,1.050000000000000355e+01,3.875000000000000888e+00,-2.875000000000001776e+00,4.562500000000001776e+00,-2.125000000000000888e+00,-9.812500000000003553e+00,3.250000000000001776e+00,5.812500000000003553e+00,-4.187500000000001776e+00,-3.750000000000004441e-01,2.937500000000001332e+00,1.437500000000000888e+00,2.812500000000001776e+00,-5.437500000000002665e+00,-7.312500000000003553e+00,4.687500000000001776e+00,1.875000000000000000e+00,-4.625000000000001776e+00,7.062500000000003553e+00,1.062500000000000355e+01,-3.437500000000001776e+00,-8.812500000000003553e+00,-4.812500000000002665e+00,-6.000000000000003553e+00,-2.312500000000001776e+00,8.750000000000003553e+00,8.000000000000003553e+00,3.500000000000001776e+00,4.312500000000001776e+00,-5.687500000000002665e+00,-1.143750000000000533e+01,2.375000000000000888e+00,8.937500000000003553e+00,4.562500000000001776e+00,1.000000000000000666e+00,-9.062500000000003553e+00,-6.750000000000002665e+00,8.687500000000003553e+00,1.875000000000001776e+00,-6.250000000000001776e+00,5.250000000000003553e+00,3.312500000000002220e+00,-3.562500000000001332e+00,8.750000000000007772e-01,-4.875000000000002665e+00,-4.125000000000002665e+00,9.062500000000003553e+00,3.562500000000001776e+00,-5.062500000000002665e+00,-3.062500000000001332e+00,-4.437500000000001776e+00,-1.875000000000000000e-01,5.125000000000001776e+00,8.125000000000004441e-01,-2.750000000000000888e+00,-4.375000000000002220e-01,7.312500000000003553e+00,8.625000000000003553e+00,-5.375000000000002665e+00,-1.506250000000000711e+01,-2.687500000000001776e+00,1.387500000000000533e+01,8.937500000000003553e+00,-3.375000000000001776e+00,-2.437500000000001332e+00,-3.125000000000001110e-01,-5.875000000000003553e+00,-6.437500000000003553e+00,2.937500000000000888e+00,4.750000000000001776e+00,-2.062500000000000444e+00,-1.437500000000000444e+00,2.625000000000001332e+00,7.125000000000002665e+00,8.437500000000003553e+00,-5.062500000000001776e+00,-1.462500000000000711e+01,8.125000000000000000e-01,1.512500000000000711e+01,5.125000000000001776e+00,-9.250000000000005329e+00,-1.231250000000000533e+01,-5.875000000000001776e+00,9.312500000000003553e+00,1.406250000000000711e+01,-1.124999999999999112e+00,-8.000000000000003553e+00,-1.437500000000000888e+00,-1.875000000000000888e+00,-4.687500000000001776e+00,-5.000000000000000000e-01,5.625000000000006661e-01,-2.000000000000000888e+00,2.500000000000000888e+00,5.437500000000002665e+00,5.687500000000002665e+00,6.750000000000003553e+00,-3.562500000000002220e+00,-7.875000000000004441e+00,2.500000000000000888e+00,1.000000000000000444e+00,-5.000000000000001776e+00,-1.000000000000000444e+00,2.187500000000000888e+00,-2.500000000000000000e-01,-3.375000000000001332e+00,-1.187500000000000444e+00,3.500000000000001776e+00,4.562500000000001776e+00,1.250000000000000444e+00,8.750000000000005551e-01,3.625000000000001332e+00,2.499999999999993339e-01,-6.562500000000002665e+00,-6.500000000000002665e+00,2.500000000000000888e+00,6.250000000000002665e+00,3.187500000000001776e+00,-1.812500000000001110e+00,-1.093750000000000533e+01,-4.000000000000001776e+00,1.243750000000000533e+01,2.875000000000000888e+00,-1.381250000000000711e+01,-1.937500000000000000e+00,1.281250000000000711e+01,2.687500000000001776e+00,-2.937500000000000888e+00,1.000000000000000666e+00,-7.250000000000003553e+00,-7.500000000000003553e+00,3.750000000000001776e+00,5.750000000000002665e+00,3.125000000000001332e+00,4.375000000000001776e+00,2.812500000000001776e+00,-9.187500000000003553e+00,-8.687500000000003553e+00,1.218750000000000533e+01,1.068750000000000533e+01,-1.312500000000000533e+01,-9.500000000000003553e+00,1.368750000000000711e+01,8.812500000000003553e+00,-1.118750000000000355e+01,-6.875000000000002665e+00,5.562500000000002665e+00,2.937500000000001332e+00,-5.062500000000001776e+00,-8.812500000000003553e+00,6.250000000000000000e-02,1.143750000000000533e+01,6.000000000000003553e+00,-4.000000000000001776e+00,-4.000000000000001776e+00,-1.312500000000000444e+00,2.437500000000000888e+00,8.375000000000003553e+00,-1.250000000000008882e-01,-1.225000000000000711e+01,2.000000000000000000e+00,1.493750000000000711e+01,-1.250000000000000000e-01,-9.062500000000003553e+00,-4.875000000000001776e+00,-7.312500000000003553e+00,4.375000000000000000e-01,1.006250000000000355e+01,-3.312500000000001776e+00,-1.112500000000000533e+01,5.250000000000001776e+00,1.418750000000000711e+01,-1.875000000000000000e-01,-6.687500000000003553e+00,3.750000000000001776e+00,-2.812500000000000888e+00,-1.100000000000000533e+01,7.750000000000003553e+00,1.268750000000000533e+01,-8.375000000000005329e+00,-8.000000000000005329e+00,5.437500000000002665e+00,-2.562500000000001776e+00,-5.125000000000002665e+00,5.125000000000002665e+00,-3.500000000000001776e+00,-1.356250000000000711e+01,-4.562500000000001776e+00,7.375000000000001776e+00,1.500000000000000533e+01,8.812500000000003553e+00,-8.312500000000003553e+00,-8.812500000000003553e+00,6.250000000000022204e-02,6.250000000000022204e-02,2.500000000000000000e-01,4.375000000000003331e-01,2.812500000000001776e+00,8.750000000000003553e+00,2.625000000000000888e+00,-6.687500000000002665e+00,-8.062500000000003553e+00,-3.312500000000001332e+00,8.500000000000003553e+00,4.250000000000001776e+00,-8.062500000000003553e+00,1.312500000000000888e+00,5.125000000000001776e+00,-1.375000000000000888e+00,4.312500000000001776e+00,2.687500000000000888e+00,-5.312500000000001776e+00,-5.875000000000002665e+00,-6.437500000000003553e+00,6.250000000000000000e-02,1.131250000000000533e+01,1.062500000000000533e+01,-1.812500000000000000e+00,-6.812500000000003553e+00,-1.312500000000001110e+00,-7.750000000000003553e+00,-1.718750000000000711e+01,-4.312500000000001776e+00,1.250000000000000533e+01,1.068750000000000533e+01,8.062500000000003553e+00,3.750000000000000888e+00,-1.287500000000000711e+01,-1.137500000000000533e+01,7.500000000000003553e+00,1.568750000000000711e+01,1.181250000000000533e+01,-1.250000000000000000e+00,-7.000000000000002665e+00,5.625000000000004441e-01,2.312500000000001332e+00,-1.875000000000000555e-01,1.687500000000000888e+00,-1.625000000000000888e+00,-7.437500000000003553e+00,-1.937500000000000888e+00,5.437500000000002665e+00,7.687500000000004441e+00,8.125000000000008882e-01,-1.006250000000000533e+01,6.875000000000000000e-01,8.187500000000003553e+00,-9.750000000000005329e+00,-1.681250000000000711e+01,-4.187500000000001776e+00,7.062500000000002665e+00,2.000000000000000444e+00,-5.062500000000001776e+00,5.875000000000002665e+00,6.687500000000003553e+00,-3.312500000000001332e+00,-3.875000000000001776e+00,-7.437500000000002665e+00,-4.062500000000000888e+00,3.687500000000001332e+00,5.437500000000001776e+00,8.937500000000003553e+00,-4.375000000000001776e+00,-1.693750000000000711e+01,4.812500000000004441e+00,2.275000000000001066e+01,7.250000000000001776e+00,-1.237500000000000533e+01,-1.631250000000000711e+01,-5.062500000000002665e+00,1.468750000000000711e+01,1.475000000000000888e+01,-7.562500000000001776e+00,-1.412500000000000533e+01,4.500000000000001776e+00,1.306250000000000533e+01,-4.937500000000001776e+00,-1.037500000000000355e+01,1.125000000000000711e+01,1.125000000000000711e+01,-1.243750000000000533e+01,-1.081250000000000533e+01,8.687500000000003553e+00,1.368750000000000533e+01,1.875000000000000000e+00,-1.512500000000000711e+01,-1.193750000000000533e+01,6.250000000000003553e+00,1.112500000000000533e+01,1.087500000000000533e+01,7.437500000000003553e+00,-7.187500000000003553e+00,-1.087500000000000533e+01,-1.125000000000000444e+00,-7.500000000000000000e-01,-2.875000000000000888e+00,-2.687500000000001776e+00,-6.312500000000003553e+00,2.500000000000000000e-01,7.062500000000003553e+00,-1.875000000000000000e-01,-5.937500000000003553e+00,-4.000000000000002665e+00,1.250000000000000000e-01,1.937500000000001332e+00,8.750000000000006661e-01,3.875000000000001776e+00,1.068750000000000533e+01,1.437500000000000888e+00,-1.262500000000000711e+01,2.000000000000000000e+00,1.093750000000000355e+01,-9.875000000000005329e+00,-8.125000000000003553e+00,1.375000000000000711e+01,2.562500000000001776e+00,-1.537500000000000711e+01,-1.312500000000000888e+00,7.312500000000003553e+00,1.750000000000001110e+00,1.037500000000000355e+01,8.812500000000003553e+00,-4.687500000000002665e+00,-1.250000000000000888e+00,-4.375000000000001776e+00,-1.806250000000000711e+01,-7.625000000000003553e+00,1.712500000000000711e+01,2.225000000000001066e+01,5.187500000000001776e+00,-1.325000000000000533e+01,-1.643750000000000711e+01,-5.312500000000003553e+00,3.187500000000001776e+00,3.062500000000001776e+00,-1.000000000000000888e+00,-1.437500000000001110e+00,7.687500000000003553e+00,3.437500000000001776e+00,-1.118750000000000533e+01,-5.875000000000002665e+00,4.250000000000002665e+00,9.375000000000002220e-01,2.000000000000000888e+00,1.143750000000000533e+01,1.250000000000000000e-01,-1.643750000000000711e+01,-3.000000000000001776e+00,6.125000000000001776e+00,2.187500000000000888e+00,1.250000000000000711e+01,8.937500000000003553e+00,-1.506250000000000711e+01,-2.025000000000001066e+01,2.687500000000001776e+00,2.043750000000001066e+01,5.500000000000002665e+00,-9.875000000000003553e+00,-6.500000000000002665e+00,-3.000000000000001332e+00,7.375000000000003553e+00,8.687500000000003553e+00,-4.187500000000001776e+00,-2.437500000000000888e+00,-5.000000000000002665e+00,-1.493750000000000711e+01,-3.187500000000000888e+00,9.812500000000005329e+00,1.100000000000000533e+01,1.200000000000000711e+01,6.250000000000000000e-02,-1.343750000000000711e+01,-7.750000000000003553e+00,2.375000000000001332e+00,4.250000000000001776e+00,1.187500000000000444e+00,-2.062500000000000888e+00,-8.812500000000003553e+00,-8.875000000000003553e+00,8.875000000000003553e+00,1.693750000000000711e+01,7.062500000000004441e+00,-1.437500000000000222e+00,-1.325000000000000711e+01,-1.293750000000000711e+01,1.156250000000000711e+01,2.400000000000001066e+01,1.406250000000000533e+01,-8.750000000000000000e-01,-1.200000000000000533e+01,-1.468750000000000711e+01,-1.543750000000000711e+01,-3.062500000000000888e+00,1.475000000000000711e+01,3.187500000000000000e+00,-6.125000000000003553e+00,8.937500000000003553e+00,7.500000000000000000e-01,-1.693750000000000711e+01,-1.687500000000000000e+00,6.812500000000003553e+00,-5.687500000000002665e+00,6.000000000000002665e+00,1.881250000000000711e+01,-2.750000000000001776e+00,-1.381250000000000711e+01,5.312500000000001776e+00,1.912500000000000711e+01,1.293750000000000533e+01,-8.312500000000001776e+00,-1.968750000000000711e+01,-1.156250000000000533e+01,-4.125000000000001776e+00,4.375000000000004441e-01,-4.000000000000001776e+00,-3.375000000000001776e+00,1.143750000000000355e+01,2.187500000000000000e+00,-6.687500000000003553e+00,8.812500000000003553e+00,6.875000000000000000e-01,-1.093750000000000533e+01,8.187500000000001776e+00,1.037500000000000355e+01,-1.406250000000000711e+01,-1.406250000000000711e+01,1.387500000000000711e+01,2.462500000000001066e+01,2.312500000000000000e+00,-1.731250000000000711e+01,-8.562500000000003553e+00,1.625000000000000444e+00,1.687500000000000888e+00,2.593750000000001066e+01,5.925000000000002842e+01,2.862500000000001421e+01
-5.475000000000001421e+01,-1.275000000000000355e+01,-4.500000000000000000e+00,-7.000000000000001776e+00,1.125000000000000178e+01,-6.250000000000001776e+00,9.500000000000003553e+00,1.800000000000000355e+01,-1.600000000000000355e+01,2.025000000000000355e+01,-9.750000000000001776e+00,-2.000000000000000000e+00,4.000000000000000000e+00,-1.700000000000000355e+01,3.750000000000000444e+00,1.200000000000000178e+01,-2.075000000000000355e+01,1.500000000000000355e+01,-1.750000000000000355e+01,1.075000000000000355e+01,4.750000000000000888e+00,-1.550000000000000355e+01,2.350000000000000711e+01,9.500000000000001776e+00,-8.750000000000001776e+00,-7.500000000000000888e+00,1.475000000000000355e+01,1.300000000000000355e+01,-2.325000000000000711e+01,-8.000000000000001776e+00,2.500000000000000555e-01,-5.000000000000001110e-01,-2.850000000000000711e+01,7.500000000000000000e-01,-2.000000000000000000e+00,-3.750000000000000711e+01,5.475000000000001421e+01,-7.750000000000000000e+00,2.000000000000000000e+00,1.925000000000000355e+01,3.425000000000000711e+01,-1.775000000000000355e+01,-6.500000000000001776e+00,2.500000000000000000e-01,-1.000000000000000000e+00,-1.575000000000000355e+01,1.700000000000000355e+01,-1.350000000000000178e+01,-4.250000000000001776e+00,8.750000000000001776e+00,5.000000000000001776e+00,5.000000000000000000e-01,-1.550000000000000355e+01,5.500000000000001776e+00,1.850000000000000355e+01,-2.025000000000000355e+01,1.025000000000000355e+01,-6.250000000000001776e+00,-1.000000000000000222e+00,-5.500000000000001776e+00,1.475000000000000355e+01,-8.500000000000001776e+00,-1.075000000000000178e+01,1.500000000000000355e+01,-1.775000000000000355e+01,9.000000000000003553e+00,3.750000000000000888e+00,8.000000000000001776e+00,-1.425000000000000355e+01,1.750000000000000888e+00,1.250000000000000355e+01,-7.500000000000000000e-01,-9.000000000000001776e+00,-1.250000000000000444e+00,3.000000000000000888e+00,1.450000000000000355e+01,-2.275000000000000711e+01,1.925000000000000355e+01,-7.250000000000001776e+00,-1.375000000000000178e+01,1.325000000000000178e+01,8.750000000000001776e+00,-2.375000000000000711e+01,1.550000000000000355e+01,7.750000000000001776e+00,-2.275000000000000711e+01,2.025000000000000711e+01,-1.625000000000000355e+01,8.750000000000001776e+00,6.500000000000001776e+00,-9.500000000000001776e+00,1.125000000000000178e+01,-9.750000000000001776e+00,-1.000000000000000178e+01,2.175000000000000355e+01,-1.925000000000000355e+01,1.125000000000000178e+01,5.250000000000001776e+00,-1.525000000000000355e+01,6.250000000000001776e+00,-3.250000000000000888e+00,1.550000000000000355e+01,-1.150000000000000178e+01,-3.750000000000000888e+00,8.750000000000001776e+00,-1.650000000000000355e+01,2.025000000000000355e+01,-1.125000000000000178e+01,-3.000000000000000444e+00,1.625000000000000355e+01,-1.875000000000000355e+01,2.125000000000000711e+01,-2.600000000000000711e+01,2.125000000000000711e+01,-1.525000000000000355e+01,7.750000000000001776e+00,8.000000000000001776e+00,-8.250000000000001776e+00,-9.000000000000001776e+00,9.750000000000001776e+00,7.500000000000001776e+00,-1.100000000000000178e+01,8.000000000000001776e+00,-1.175000000000000355e+01,-7.500000000000000000e-01,1.925000000000000711e+01,-1.325000000000000355e+01,-1.000000000000000178e+01,2.050000000000000355e+01,-1.875000000000000355e+01,1.400000000000000355e+01,-1.125000000000000355e+01,1.275000000000000355e+01,-9.750000000000003553e+00,1.200000000000000355e+01,-1.325000000000000355e+01,5.750000000000000888e+00,2.500000000000002220e-01,-2.750000000000000888e+00,3.250000000000000888e+00,-1.025000000000000178e+01,5.000000000000000888e+00,1.450000000000000355e+01,-2.075000000000000355e+01,7.500000000000001776e+00,1.375000000000000178e+01,-1.925000000000000355e+01,1.450000000000000355e+01,-2.000000000000000711e+01,1.425000000000000355e+01,7.250000000000001776e+00,-1.250000000000000355e+01,-4.000000000000000888e+00,1.425000000000000355e+01,-1.225000000000000355e+01,6.500000000000001776e+00,-5.000000000000001110e-01,5.000000000000000888e+00,1.250000000000000888e+00,-1.525000000000000355e+01,1.800000000000000355e+01,-1.525000000000000355e+01,2.500000000000000000e-01,1.400000000000000355e+01,-7.500000000000001776e+00,-9.500000000000001776e+00,8.000000000000001776e+00,1.225000000000000178e+01,-1.925000000000000355e+01,5.750000000000001776e+00,1.175000000000000178e+01,-1.375000000000000355e+01,2.100000000000000355e+01,-2.375000000000000711e+01,9.000000000000001776e+00,2.250000000000000444e+00,-1.025000000000000355e+01,-1.750000000000000000e+00,8.250000000000001776e+00,-1.525000000000000355e+01,2.225000000000000711e+01,-7.750000000000001776e+00,-1.225000000000000355e+01,1.650000000000000355e+01,5.000000000000000000e-01,-7.250000000000001776e+00,-2.250000000000000444e+00,1.200000000000000355e+01,-2.000000000000000711e+01,2.625000000000000711e+01,-2.125000000000000711e+01,5.500000000000001776e+00,9.750000000000001776e+00,-5.750000000000001776e+00,-7.250000000000001776e+00,2.000000000000000355e+01,-2.675000000000000711e+01,2.000000000000000711e+01,5.000000000000000000e-01,-1.500000000000000355e+01,1.850000000000000355e+01,-7.000000000000000888e+00,2.000000000000000888e+00,-1.275000000000000355e+01,3.475000000000000711e+01,-3.150000000000000711e+01,6.000000000000001776e+00,9.000000000000003553e+00,-1.025000000000000355e+01,-1.500000000000000444e+00,8.500000000000001776e+00,-5.500000000000000888e+00,-1.000000000000000444e+00,4.250000000000001776e+00,1.250000000000000000e+00,-1.650000000000000355e+01,1.825000000000000355e+01,-7.250000000000001776e+00,-1.100000000000000178e+01,1.925000000000000355e+01,-7.000000000000000888e+00,1.500000000000000000e+00,-2.100000000000000355e+01,1.950000000000000355e+01,-3.000000000000000888e+00,-7.250000000000001776e+00,1.325000000000000355e+01,-5.000000000000000000e-01,-1.850000000000000711e+01,1.300000000000000355e+01,-4.500000000000000888e+00,-6.250000000000000888e+00,1.800000000000000355e+01,-8.000000000000001776e+00,-1.200000000000000355e+01,2.050000000000000711e+01,-1.300000000000000355e+01,-1.750000000000000888e+00,1.725000000000000355e+01,-1.275000000000000178e+01,4.000000000000000888e+00,6.250000000000001776e+00,-1.825000000000000355e+01,1.650000000000000355e+01,-1.700000000000000355e+01,1.750000000000000355e+01,-1.850000000000000355e+01,1.750000000000000355e+01,-2.450000000000000711e+01,2.125000000000000355e+01,-7.750000000000001776e+00,5.000000000000000888e+00,9.750000000000001776e+00,-2.325000000000000711e+01,2.325000000000000711e+01,-2.050000000000000355e+01,2.200000000000000355e+01,-1.650000000000000355e+01,9.000000000000001776e+00,-2.675000000000000355e+01,2.850000000000000355e+01,-2.075000000000000355e+01,1.900000000000000355e+01,-1.550000000000000355e+01,1.375000000000000178e+01,6.250000000000001776e+00,-2.300000000000000711e+01,2.325000000000000711e+01,-1.275000000000000355e+01,-5.250000000000000888e+00,2.025000000000000355e+01,-2.325000000000000711e+01,1.800000000000000355e+01,-1.525000000000000355e+01,1.075000000000000178e+01,-7.000000000000001776e+00,1.700000000000000355e+01,-1.050000000000000178e+01,-1.250000000000000355e+01,1.800000000000000711e+01,-8.750000000000001776e+00,6.750000000000001776e+00,-1.050000000000000355e+01,0.000000000000000000e+00,1.825000000000000355e+01,-1.900000000000000355e+01,1.750000000000000888e+00,1.175000000000000355e+01,-5.500000000000001776e+00,-7.000000000000001776e+00,1.225000000000000355e+01,-7.500000000000008882e-01,-1.475000000000000355e+01,1.175000000000000178e+01,-1.300000000000000178e+01,1.750000000000000355e+01,-8.500000000000001776e+00,-6.500000000000001776e+00,1.550000000000000355e+01,-7.000000000000001776e+00,-4.250000000000000888e+00,3.250000000000000888e+00,2.500000000000000888e+00,-4.000000000000000888e+00,1.150000000000000178e+01,-2.250000000000000000e+00,1.000000000000000000e+00,-1.275000000000000355e+01,5.250000000000000888e+00,7.500000000000001776e+00,-1.400000000000000355e+01,7.750000000000001776e+00,0.000000000000000000e+00,1.750000000000000444e+00,-8.750000000000001776e+00,4.500000000000000888e+00,6.500000000000000888e+00,-1.225000000000000355e+01,9.500000000000003553e+00,-1.600000000000000355e+01,1.700000000000000355e+01,-5.500000000000001776e+00,6.250000000000001776e+00,-1.750000000000000000e+00,-1.200000000000000355e+01,1.050000000000000178e+01,7.250000000000001776e+00,-1.300000000000000355e+01,-3.000000000000000888e+00,1.550000000000000355e+01,-1.700000000000000355e+01,9.750000000000001776e+00,1.250000000000000222e+00,7.250000000000001776e+00,-5.000000000000000888e+00,5.000000000000000888e+00,-1.600000000000000355e+01,1.125000000000000355e+01,7.000000000000000888e+00,-2.400000000000000711e+01,2.225000000000000711e+01,-5.500000000000000888e+00,-1.350000000000000355e+01,2.725000000000000711e+01,-2.275000000000000355e+01,1.575000000000000355e+01,-7.500000000000000888e+00,2.500000000000000888e+00,-1.375000000000000355e+01,1.250000000000000355e+01,4.500000000000000888e+00,-1.350000000000000355e+01,1.550000000000000355e+01,-6.000000000000000888e+00,-1.175000000000000355e+01,2.275000000000000711e+01,-1.200000000000000355e+01,-1.050000000000000355e+01,3.075000000000000711e+01,-1.450000000000000533e+01,-1.000000000000000178e+01,-5.000000000000001110e-01,2.500000000000000555e-01,2.500000000000000555e-01,-2.500000000000000555e-01,0.000000000000000000e+00,-2.500000000000000555e-01,5.000000000000001110e-01,-5.000000000000001110e-01,2.500000000000000555e-01,2.500000000000000555e-01,-5.000000000000001110e-01,5.000000000000001110e-01,-2.500000000000000555e-01,0.000000000000000000e+00,0.000000000000000000e+00,-2.500000000000000555e-01,5.000000000000001110e-01,0.000000000000000000e+00,-5.000000000000001110e-01,2.500000000000000555e-01,0.000000000000000000e+00,0.000000000000000000e+00,-2.500000000000000555e-01,5.000000000000001110e-01,-2.500000000000000555e-01,2.500000000000000555e-01,-5.000000000000001110e-01,2.500000000000000555e-01,0.000000000000000000e+00,0.000000000000000000e+00,-5.000000000000001110e-01,1.000000000000000222e+00,-5.000000000000001110e-01,-2.500000000000000555e-01,-2.600000000000000711e+01,2.850000000000000711e+01,-2.250000000000000355e+01,2.100000000000000355e+01,-1.275000000000000355e+01,1.350000000000000355e+01,-2.325000000000000355e+01,1.075000000000000178e+01,1.400000000000000355e+01,-1.950000000000000355e+01,1.900000000000000355e+01,1.500000000000000444e+00,-1.925000000000000355e+01,1.925000000000000355e+01,-1.475000000000000355e+01,8.500000000000001776e+00,-1.300000000000000355e+01,1.875000000000000355e+01,-1.400000000000000355e+01,9.750000000000001776e+00,6.750000000000001776e+00,-1.350000000000000355e+01,-1.500000000000000000e+00,3.250000000000000888e+00,1.425000000000000355e+01,-2.000000000000000355e+01,9.500000000000001776e+00,9.000000000000001776e+00,-1.400000000000000355e+01,3.250000000000000888e+00,-4.000000000000000888e+00,5.750000000000001776e+00,9.250000000000001776e+00,-1.550000000000000355e+01,6.000000000000001776e+00,1.325000000000000178e+01,-1.500000000000000355e+01,6.750000000000001776e+00,-1.425000000000000178e+01,1.125000000000000178e+01,9.750000000000001776e+00,-2.225000000000000711e+01,1.475000000000000355e+01,7.000000000000001776e+00,-2.175000000000000711e+01,1.925000000000000711e+01,-2.250000000000000888e+00,-1.475000000000000355e+01,1.350000000000000355e+01,-1.250000000000000355e+01,9.000000000000001776e+00,7.250000000000001776e+00,-1.625000000000000355e+01,1.400000000000000355e+01,-1.750000000000000355e+01,8.500000000000003553e+00,6.250000000000001776e+00,-9.750000000000001776e+00,1.150000000000000355e+01,-6.000000000000001776e+00,-9.250000000000001776e+00,1.250000000000000178e+01,9.500000000000001776e+00,-1.700000000000000355e+01,8.500000000000001776e+00,-1.375000000000000355e+01,1.025000000000000355e+01,1.050000000000000178e+01,-5.250000000000000888e+00,-1.225000000000000355e+01,1.650000000000000355e+01,-1.250000000000000355e+01,-6.000000000000000888e+00,1.875000000000000355e+01,-1.200000000000000355e+01,1.375000000000000355e+01,-2.400000000000000711e+01,1.600000000000000355e+01,8.500000000000001776e+00,-1.150000000000000178e+01,-8.000000000000001776e+00,2.425000000000000711e+01,-2.525000000000000711e+01,7.000000000000000888e+00,3.500000000000000888e+00,6.000000000000001776e+00,-4.000000000000001776e+00,-7.750000000000001776e+00,1.850000000000000355e+01,-1.100000000000000355e+01,-1.075000000000000178e+01,9.250000000000001776e+00,4.750000000000000888e+00,-5.000000000000000888e+00,9.250000000000001776e+00,-1.600000000000000355e+01,8.000000000000001776e+00,1.275000000000000355e+01,-2.200000000000000711e+01,8.250000000000001776e+00,1.000000000000000178e+01,-1.225000000000000178e+01,5.000000000000002220e-01,7.000000000000000888e+00,1.250000000000000888e+00,1.250000000000000000e+00,-3.000000000000000888e+00,1.500000000000000888e+00,-1.100000000000000355e+01,1.850000000000000355e+01,-1.275000000000000355e+01,2.750000000000000444e+00,-1.050000000000000355e+01,9.750000000000003553e+00,7.500000000000000000e-01,5.500000000000000888e+00,-6.250000000000000888e+00,5.000000000000000000e-01,0.000000000000000000e+00,4.250000000000000888e+00,-5.000000000000000888e+00,-9.500000000000003553e+00,1.725000000000000355e+01,-1.000000000000000178e+01,-4.500000000000000888e+00,1.125000000000000355e+01,5.500000000000001776e+00,-5.500000000000001776e+00,-3.250000000000000888e+00,-1.575000000000000355e+01,1.900000000000000355e+01,2.000000000000000000e+00,-1.800000000000000355e+01,1.900000000000000355e+01,2.500000000000001776e+00,-1.475000000000000355e+01,-1.025000000000000178e+01,2.650000000000000711e+01,-1.500000000000000355e+01,-4.250000000000000888e+00,2.750000000000000444e+00,-2.750000000000000444e+00,2.000000000000000444e+00,1.100000000000000178e+01,-1.900000000000000355e+01,1.000000000000000178e+01,6.750000000000001776e+00,-5.250000000000001776e+00,-9.000000000000001776e+00,1.025000000000000178e+01,5.000000000000000000e-01,-1.050000000000000178e+01,1.100000000000000355e+01,2.250000000000000000e+00,-1.650000000000000355e+01,2.075000000000000355e+01,-2.375000000000000711e+01,2.375000000000000711e+01,-1.425000000000000355e+01,2.000000000000000444e+00,6.750000000000001776e+00,-1.625000000000000355e+01,1.675000000000000355e+01,-1.500000000000000355e+01,1.800000000000000355e+01,-1.050000000000000178e+01,1.750000000000000222e+00,1.250000000000000222e+00,-1.325000000000000355e+01,1.550000000000000355e+01,6.000000000000001776e+00,-2.325000000000000711e+01,2.375000000000000711e+01,-6.500000000000001776e+00,-1.125000000000000178e+01,3.750000000000000888e+00,1.550000000000000355e+01,-2.000000000000000355e+01,6.500000000000000888e+00,1.150000000000000355e+01,-2.200000000000000711e+01,2.475000000000000711e+01,-1.375000000000000178e+01,-5.750000000000001776e+00,6.750000000000001776e+00,8.500000000000001776e+00,-1.900000000000000711e+01,1.125000000000000355e+01,9.750000000000001776e+00,-1.075000000000000178e+01,1.000000000000000222e+00,-3.500000000000000888e+00,6.000000000000001776e+00,-1.550000000000000355e+01,1.500000000000000355e+01,3.250000000000000888e+00,-1.200000000000000355e+01,1.600000000000000355e+01,-6.000000000000001776e+00,-1.000000000000000178e+01,1.250000000000000000e+00,1.725000000000000355e+01,-2.100000000000000355e+01,2.125000000000000355e+01,-1.100000000000000178e+01,-1.275000000000000355e+01,1.675000000000000355e+01,5.250000000000000888e+00,-2.475000000000000711e+01,2.075000000000000355e+01,2.750000000000000888e+00,-2.075000000000000711e+01,2.150000000000000711e+01,-7.500000000000001776e+00,-1.525000000000000355e+01,2.125000000000000711e+01,-1.500000000000000000e+00,-1.675000000000000355e+01,2.050000000000000355e+01,-1.700000000000000355e+01,1.250000000000000000e+00,1.400000000000000355e+01,-1.675000000000000355e+01,1.550000000000000355e+01,-1.550000000000000355e+01,1.100000000000000178e+01,2.000000000000000444e+00,1.750000000000000888e+00,-1.300000000000000355e+01,1.000000000000000000e+00,4.750000000000001776e+00,1.450000000000000355e+01,-2.200000000000000711e+01,1.675000000000000355e+01,-1.125000000000000355e+01,8.250000000000001776e+00,-1.175000000000000355e+01,2.250000000000000888e+00,1.400000000000000355e+01,-1.900000000000000355e+01,1.375000000000000355e+01,-7.500000000000001776e+00,3.750000000000000888e+00,4.500000000000000888e+00,4.250000000000000888e+00,-1.775000000000000355e+01,3.500000000000000888e+00,1.250000000000000355e+01,-1.000000000000000000e+00,-6.750000000000001776e+00,0.000000000000000000e+00,-5.000000000000000888e+00,-1.250000000000000888e+00,1.825000000000000355e+01,-8.250000000000000000e+00,-1.025000000000000355e+01,1.425000000000000355e+01,-1.275000000000000355e+01,9.000000000000001776e+00,-1.375000000000000355e+01,1.900000000000000355e+01,-1.875000000000000355e+01,9.250000000000001776e+00,5.250000000000000888e+00,-1.050000000000000178e+01,1.400000000000000355e+01,-5.000000000000000000e-01,-1.825000000000000355e+01,1.625000000000000355e+01,1.000000000000000888e+00,-1.800000000000000355e+01,2.325000000000000711e+01,-2.525000000000000711e+01,2.850000000000000711e+01,-2.875000000000000711e+01,2.075000000000000711e+01,-1.275000000000000355e+01,8.250000000000001776e+00,3.250000000000001332e+00,-1.400000000000000355e+01,2.125000000000000711e+01,-1.875000000000000355e+01,1.475000000000000355e+01,-1.650000000000000355e+01,5.000000000000001776e+00,1.275000000000000178e+01,-1.975000000000000355e+01,2.400000000000000711e+01,-2.075000000000000711e+01,-2.000000000000000000e+00,1.250000000000000355e+01,5.000000000000000888e+00,-1.650000000000000355e+01,-5.000000000000000000e-01,1.325000000000000355e+01,3.250000000000000888e+00,-2.275000000000000711e+01,2.975000000000000711e+01,-2.050000000000000355e+01,-4.750000000000000888e+00,1.675000000000000355e+01,-1.625000000000000355e+01,1.900000000000000355e+01,-1.775000000000000355e+01,1.775000000000000355e+01,-6.750000000000000888e+00,-1.625000000000000355e+01,1.550000000000000355e+01,1.000000000000000355e+01,-1.250000000000000355e+01,-1.300000000000000355e+01,1.900000000000000711e+01,4.000000000000000000e+00,-1.075000000000000178e+01,-8.750000000000001776e+00,1.975000000000000355e+01,-1.500000000000000355e+01,9.500000000000001776e+00,-6.500000000000001776e+00,-1.100000000000000355e+01,2.475000000000000711e+01,-1.625000000000000355e+01,1.275000000000000355e+01,-1.750000000000000355e+01,1.775000000000000355e+01,-1.675000000000000355e+01,1.250000000000000355e+01,6.750000000000000888e+00,-1.925000000000000355e+01,2.750000000000000888e+00,1.600000000000000355e+01,-2.250000000000000000e+00,-1.900000000000000355e+01,2.225000000000000711e+01,-1.825000000000000711e+01,-1.750000000000000000e+00,1.725000000000000355e+01,-6.000000000000000888e+00,-1.400000000000000355e+01,1.150000000000000178e+01,2.500000000000000000e-01,1.300000000000000355e+01,-2.875000000000000711e+01,2.375000000000000711e+01,-1.500000000000000000e+00,-1.950000000000000711e+01,9.500000000000003553e+00,1.725000000000000355e+01,-1.550000000000000355e+01,-9.250000000000001776e+00,1.800000000000000355e+01,-3.750000000000000888e+00,-1.875000000000000355e+01,2.450000000000000711e+01,-9.000000000000001776e+00,-1.175000000000000178e+01,7.750000000000000888e+00,-3.250000000000000888e+00,4.250000000000001776e+00,1.275000000000000178e+01,-1.125000000000000178e+01,-1.000000000000000178e+01,1.900000000000000355e+01,-1.900000000000000355e+01,1.350000000000000355e+01,-5.750000000000001776e+00,0.000000000000000000e+00,1.250000000000000000e+00,1.575000000000000355e+01,-2.975000000000000711e+01,3.000000000000000711e+01,-3.250000000000000711e+01,2.100000000000000355e+01,7.500000000000000888e+00,-2.200000000000000355e+01,8.500000000000000000e+00,1.475000000000000355e+01,-2.425000000000000711e+01,1.700000000000000355e+01,4.500000000000000888e+00,-2.050000000000000355e+01,2.200000000000000355e+01,-2.125000000000000355e+01,7.000000000000000888e+00,6.250000000000001776e+00,-3.750000000000000888e+00,1.600000000000000355e+01,-3.100000000000000711e+01,2.950000000000000711e+01,-1.950000000000000711e+01,3.750000000000001332e+00,-1.600000000000000355e+01,2.125000000000000355e+01,-1.750000000000000222e+00,-1.025000000000000178e+01,2.525000000000000711e+01,-2.150000000000000355e+01,-7.750000000000002665e+00,1.775000000000000355e+01,-9.250000000000001776e+00,1.300000000000000355e+01,3.000000000000000000e+00,-2.350000000000000711e+01,2.825000000000000711e+01,-2.500000000000000711e+01,2.375000000000000711e+01,-2.525000000000000711e+01,2.950000000000000711e+01,-2.975000000000000711e+01,1.275000000000000178e+01,5.000000000000001776e+00,-1.475000000000000355e+01,2.950000000000000711e+01,-3.150000000000000711e+01,6.250000000000000888e+00,2.050000000000000355e+01,-2.025000000000000355e+01,-2.750000000000000888e+00,5.250000000000001776e+00,-1.125000000000000355e+01,2.800000000000000711e+01,-3.450000000000000711e+01,1.775000000000000355e+01,1.500000000000000355e+01,-3.300000000000000711e+01,3.225000000000000711e+01,-2.200000000000000711e+01,-4.000000000000001776e+00,2.225000000000000711e+01,-2.550000000000000711e+01,2.125000000000000355e+01,4.750000000000000888e+00,-3.100000000000000711e+01,1.850000000000000355e+01,4.000000000000000888e+00,1.150000000000000355e+01,-2.200000000000000711e+01,1.350000000000000355e+01,-2.150000000000000355e+01,1.625000000000000355e+01,1.175000000000000178e+01,-1.325000000000000178e+01,-2.000000000000000444e+00,-6.000000000000000888e+00,2.075000000000000355e+01,-7.750000000000000888e+00,-1.525000000000000355e+01,1.075000000000000355e+01,1.725000000000000355e+01,-1.975000000000000355e+01,-7.250000000000000888e+00,1.800000000000000355e+01,-1.000000000000000355e+01,1.550000000000000355e+01,-1.200000000000000355e+01,-1.550000000000000355e+01,2.150000000000000711e+01,-8.250000000000001776e+00,3.000000000000000888e+00,1.150000000000000355e+01,-9.000000000000003553e+00,-7.000000000000001776e+00,4.250000000000000888e+00,6.000000000000001776e+00,-1.700000000000000355e+01,1.900000000000000355e+01,-1.375000000000000355e+01,-7.750000000000002665e+00,2.925000000000000711e+01,-3.350000000000000711e+01,3.150000000000000711e+01,-3.500000000000000711e+01,3.200000000000000711e+01,-2.650000000000000711e+01,2.300000000000000711e+01,-1.825000000000000355e+01,1.250000000000000178e+01,9.500000000000001776e+00,-2.025000000000000355e+01,-2.000000000000000000e+00,2.850000000000000711e+01,-2.250000000000000355e+01,-9.000000000000003553e+00,1.950000000000000711e+01,5.000000000000000000e+00,-2.350000000000000711e+01,5.250000000000001776e+00,1.900000000000000355e+01,-2.375000000000000711e+01,1.275000000000000355e+01,1.725000000000000355e+01,-2.800000000000000711e+01,1.650000000000000355e+01,1.500000000000000000e+00,-1.525000000000000355e+01,-3.500000000000000000e+00,1.075000000000000178e+01,7.000000000000001776e+00,5.250000000000001776e+00,-1.350000000000000355e+01,4.500000000000000888e+00,-1.800000000000000355e+01,2.800000000000000711e+01,-2.975000000000000711e+01,3.125000000000000711e+01,-2.825000000000000711e+01,1.250000000000000355e+01,1.850000000000000355e+01,-3.650000000000000711e+01,2.700000000000000711e+01,-2.025000000000000711e+01,2.300000000000000711e+01,-2.500000000000000711e+01,1.975000000000000355e+01,7.250000000000002665e+00,-2.475000000000000711e+01,2.000000000000001776e+00,2.600000000000000711e+01,-3.625000000000000711e+01,3.025000000000000711e+01,-7.500000000000000000e-01,-9.500000000000001776e+00,-6.500000000000001776e+00,-4.500000000000000000e+00,1.475000000000000355e+01,1.425000000000000355e+01,-3.925000000000000711e+01,3.900000000000000711e+01,-3.175000000000000711e+01,9.750000000000003553e+00,2.275000000000000355e+01,-3.200000000000000711e+01,1.900000000000000355e+01,-1.500000000000000000e+00,-1.250000000000000355e+01,-5.000000000000001776e+00,2.225000000000000711e+01,-2.025000000000000355e+01,1.925000000000000355e+01,4.500000000000001776e+00,-2.675000000000000711e+01,2.350000000000000711e+01,-2.450000000000000711e+01,2.850000000000000711e+01,-2.475000000000000711e+01,1.950000000000000711e+01,-1.425000000000000355e+01,2.250000000000000888e+00,-1.200000000000000355e+01,3.650000000000000711e+01,-3.325000000000000711e+01,2.750000000000000711e+01,-1.625000000000000355e+01,-9.250000000000001776e+00,4.750000000000000000e+00,2.225000000000000711e+01,-1.800000000000000355e+01,2.475000000000000355e+01,-2.850000000000000711e+01,1.175000000000000355e+01,-5.000000000000000888e+00,-2.000000000000000355e+01,2.975000000000000711e+01,-3.000000000000000000e+00,-2.250000000000000711e+01,2.175000000000000711e+01,5.750000000000001776e+00,-2.475000000000000711e+01,3.000000000000001776e+00,2.400000000000000711e+01,-2.750000000000000711e+01,6.000000000000001776e+00,1.925000000000000711e+01,-3.000000000000001776e+00,-2.475000000000000711e+01,2.300000000000000711e+01,-6.000000000000001776e+00,9.250000000000001776e+00,8.250000000000001776e+00,-3.575000000000000711e+01,2.925000000000000711e+01,-2.350000000000000711e+01,7.000000000000000888e+00,1.525000000000000355e+01,-3.650000000000000711e+01,3.400000000000000711e+01,1.500000000000000000e+00,-3.350000000000000711e+01,3.425000000000000711e+01,-2.750000000000000000e+00,-2.675000000000000711e+01,2.275000000000000355e+01,2.500000000000000888e+00,-4.000000000000000888e+00,-2.175000000000000355e+01,2.200000000000000355e+01,-2.500000000000000000e-01,1.550000000000000355e+01,-2.825000000000000711e+01,8.250000000000001776e+00,5.500000000000001776e+00,-8.250000000000001776e+00,1.750000000000000444e+00,1.900000000000000355e+01,4.475000000000001421e+01
