2.374027500000001965e+02,1.827933750000001396e+02,1.343246250000001112e+02,9.354337500000008276e+01,5.930900000000005434e+01,3.363712500000004013e+01,1.479337500000003480e+01,3.277750000000027697e+00,1.840000000000258096e-01,-8.159999999999747455e-01,-3.003749999999744125e-01,8.090000000000261426e-01,2.965250000000027697e+00,6.059000000000029473e+00,1.027775000000003303e+01,1.440275000000003480e+01,1.949650000000004013e+01,2.284025000000004013e+01,2.610587500000004368e+01,2.938712500000004724e+01,3.166837500000004724e+01,3.218400000000004724e+01,3.313712500000004724e+01,3.385587500000004724e+01,3.343400000000004724e+01,3.376212500000004724e+01,3.337150000000004724e+01,3.344962500000004724e+01,3.419962500000004724e+01,3.594962500000004724e+01,3.591837500000004724e+01,3.621525000000004724e+01,3.613712500000004724e+01,3.576212500000004724e+01,3.498087500000004724e+01,3.266837500000004724e+01,2.996525000000004724e+01,2.627775000000004724e+01,2.430900000000004724e+01,2.166837500000004013e+01,1.955900000000003658e+01,1.793400000000003658e+01,1.696525000000003658e+01,1.784025000000003658e+01,1.924650000000003658e+01,2.188712500000004013e+01,2.401212500000004724e+01,2.721525000000004724e+01,3.088712500000004724e+01,3.471525000000004724e+01,3.973087500000004724e+01,4.396525000000005434e+01,4.976212500000006855e+01,5.530900000000006855e+01,6.098087500000006855e+01,6.799650000000006855e+01,7.537150000000006855e+01,8.401212500000008276e+01,9.212150000000011119e+01,1.009496250000001112e+02,1.074965000000001112e+02,1.144340000000001112e+02,1.218246250000001112e+02,1.272933750000001112e+02,1.315433750000001112e+02,1.343402500000001112e+02,1.360902500000001112e+02,1.361058750000001112e+02,1.376058750000001112e+02,1.382621250000001112e+02,1.380902500000001112e+02,1.377152500000001112e+02,1.378090000000001112e+02,1.371840000000001112e+02,1.375902500000001112e+02,1.399965000000001112e+02,1.409652500000001112e+02,1.421996250000001112e+02,1.435277500000001112e+02,1.453402500000001112e+02,1.470433750000001112e+02,1.502465000000001112e+02,1.526058750000001112e+02,1.529183750000001112e+02,1.543090000000001112e+02,1.556215000000001112e+02,1.564808750000001112e+02,1.571371250000001112e+02,1.580121250000001112e+02,1.577465000000001112e+02,1.578871250000001112e+02,1.595590000000001112e+02,1.600746250000001112e+02,1.608558750000001112e+02,1.614808750000001112e+02,1.628402500000001112e+02,1.633715000000001112e+02,1.630277500000001112e+02,1.621683750000001112e+02,1.598090000000001112e+02,1.572152500000001112e+02,1.539340000000001112e+02,1.516996250000001112e+02,1.475590000000001112e+02,1.438090000000001112e+02,1.415902500000001112e+02,1.387308750000001112e+02,1.363715000000001112e+02,1.353715000000001112e+02,1.343090000000001112e+02,1.321527500000001112e+02,1.309183750000001112e+02,1.294183750000001112e+02,1.268558750000001112e+02,1.249183750000001112e+02,1.231840000000001112e+02,1.204340000000001112e+02,1.173871250000001112e+02,1.141527500000001112e+02,1.117152500000001112e+02,1.092308750000001112e+02,1.069496250000001112e+02,1.044808750000001112e+02,1.007933750000001112e+02,9.624650000000011119e+01,9.243400000000008276e+01,8.869962500000008276e+01,8.304337500000006855e+01,7.699650000000006855e+01,7.024650000000006855e+01,6.418400000000006855e+01,5.952775000000006855e+01,5.565275000000006855e+01,5.023087500000006145e+01,4.490275000000005434e+01,4.118400000000005434e+01,3.813712500000004724e+01,3.580900000000004724e+01,3.276212500000004724e+01,2.896525000000004724e+01,2.541837500000004724e+01,2.285587500000004368e+01,2.005900000000004013e+01,1.623087500000003658e+01,1.199650000000003480e+01,7.324625000000031250e+00,2.574625000000028141e+00,-2.394124999999974523e+00,-7.925374999999977632e+00,-1.334724999999998118e+01,-1.753474999999998474e+01,-2.139412499999998829e+01,-2.497224999999999184e+01,-2.789412499999999540e+01,-3.048787499999999540e+01,-3.240974999999999540e+01,-3.401912499999999540e+01,-3.478474999999999540e+01,-3.617537499999999540e+01,-3.762849999999999540e+01,-3.934724999999999540e+01,-4.056599999999999540e+01,-4.211287499999999540e+01,-4.362849999999999540e+01,-4.401912499999999540e+01,-4.526912499999999540e+01,-4.639412500000000250e+01,-4.670662500000000250e+01,-4.617537500000000250e+01,-4.676912500000000250e+01,-4.612850000000000250e+01,-4.511287500000000250e+01,-4.515975000000000250e+01,-4.472224999999999540e+01,-4.440974999999999540e+01,-4.381599999999999540e+01,-4.392537499999999540e+01,-4.258162499999999540e+01,-4.256599999999999540e+01,-4.331599999999999540e+01,-4.325349999999999540e+01,-4.361287499999999540e+01,-4.370662499999999540e+01,-4.528475000000000250e+01,-4.662850000000000250e+01,-4.951912500000000961e+01,-5.120662500000001671e+01,-5.198787500000001671e+01,-5.411287500000001671e+01,-5.623787500000001671e+01,-5.892537500000001671e+01,-6.069100000000001671e+01,-6.247225000000001671e+01,-6.331600000000001671e+01,-6.553475000000001671e+01,-6.801912500000001671e+01,-6.969100000000001671e+01,-7.095662500000001671e+01,-7.212850000000001671e+01,-7.339412500000001671e+01,-7.405037500000001671e+01,-7.456600000000001671e+01,-7.437850000000001671e+01,-7.423787500000001671e+01,-7.309725000000001671e+01,-7.187850000000001671e+01,-7.025350000000001671e+01,-6.797225000000001671e+01,-6.656600000000001671e+01,-6.576912500000001671e+01,-6.444100000000001671e+01,-6.298787500000001671e+01,-6.317537500000001671e+01,-6.284725000000001671e+01,-6.242537500000001671e+01,-6.300350000000001671e+01,-6.287850000000001671e+01,-6.262850000000001671e+01,-6.284725000000001671e+01,-6.355037500000001671e+01,-6.362850000000001671e+01,-6.472225000000001671e+01,-6.653475000000001671e+01,-6.823787500000001671e+01,-7.044100000000001671e+01,-7.230037500000001671e+01,-7.403475000000001671e+01,-7.664412500000001671e+01,-7.878475000000001671e+01,-8.142537500000001671e+01,-8.394100000000001671e+01,-8.573787500000001671e+01,-8.755037500000001671e+01,-8.997225000000001671e+01,-9.255037500000003092e+01,-9.375350000000003092e+01,-9.617537500000004513e+01,-9.776912500000005934e+01,-9.898787500000005934e+01,-1.006910000000000593e+02,-1.024253750000000593e+02,-1.037066250000000593e+02,-1.049410000000000593e+02,-1.059410000000000593e+02,-1.060503750000000593e+02,-1.058941250000000593e+02,-1.054566250000000593e+02,-1.044722500000000593e+02,-1.034566250000000593e+02,-1.012535000000000593e+02,-9.880037500000005934e+01,-9.673787500000005934e+01,-9.342537500000003092e+01,-9.025350000000003092e+01,-8.692537500000001671e+01,-8.383162500000001671e+01,-7.928475000000001671e+01,-7.612850000000001671e+01,-7.331600000000001671e+01,-6.995662500000001671e+01,-6.842537500000001671e+01,-6.609725000000001671e+01,-6.306600000000001671e+01,-6.087850000000001671e+01,-6.019100000000001671e+01,-5.976912500000001671e+01,-5.912850000000001671e+01,-5.976912500000001671e+01,-6.081600000000001671e+01,-6.434725000000001671e+01,-7.062850000000001671e+01,-7.714412500000001671e+01,-8.562850000000003092e+01,-9.442537500000005934e+01,-1.049722500000000593e+02,-1.164410000000000593e+02,-1.282222500000000593e+02,-1.400035000000000593e+02,-1.525191250000000593e+02,-1.669253750000000593e+02,-1.807535000000000878e+02,-1.962066250000001446e+02,-2.128160000000001446e+02,-2.321753750000001446e+02,-2.534566250000001446e+02,-2.773160000000001446e+02,-3.018785000000001446e+02,-3.264097500000001446e+02,-3.523472500000001446e+02,-3.787691250000002583e+02,-4.044253750000002583e+02,-4.263785000000002583e+02,-4.461441250000002583e+02,-4.617378750000003151e+02,-4.742222500000003151e+02,-4.839722500000003151e+02,-4.906441250000003151e+02,-4.943785000000003151e+02,-4.960503750000003151e+02,-4.970816250000003151e+02,-4.970972500000003151e+02,-4.971597500000003151e+02,-4.972066250000003151e+02,-4.972535000000003151e+02,-4.973003750000003151e+02,-4.973472500000003151e+02,-4.973628750000003151e+02,-4.973785000000003151e+02,-4.974097500000003151e+02,-4.973941250000003151e+02,-4.973785000000003151e+02,-4.973628750000003151e+02,-4.973628750000003151e+02,-4.973785000000003151e+02,-4.974097500000003151e+02,-4.974566250000003151e+02,-4.974566250000003151e+02,-4.974722500000003151e+02,-4.974878750000003151e+02,-4.975035000000003151e+02,-4.975035000000003151e+02,-4.974722500000003151e+02,-4.974410000000003151e+02,-4.973785000000003151e+02,-4.973785000000003151e+02,-4.973785000000003151e+02,-4.973785000000003151e+02,-4.973785000000003151e+02,-4.973785000000003151e+02,-4.973941250000003151e+02,-4.974097500000003151e+02,-4.974410000000003151e+02,-4.974410000000003151e+02,-4.974410000000003151e+02,-4.974566250000003151e+02,-4.974566250000003151e+02,-4.974410000000003151e+02,-4.974253750000003151e+02,-4.974097500000003151e+02,-4.973941250000003151e+02,-4.973785000000003151e+02,-4.973628750000003151e+02,-4.966753750000003151e+02,-4.943785000000003151e+02,-4.903003750000003151e+02,-4.843316250000003151e+02,-4.759410000000003151e+02,-4.643628750000003151e+02,-4.492847500000002583e+02,-4.300816250000002583e+02,-4.081285000000002583e+02,-3.856128750000002583e+02,-3.622378750000001446e+02,-3.379722500000001446e+02,-3.130347500000001446e+02,-2.892066250000001446e+02,-2.670660000000001446e+02,-2.472691250000001446e+02,-2.288941250000001446e+02,-2.102378750000001446e+02,-1.920660000000001446e+02,-1.741441250000000878e+02,-1.578472500000000593e+02,-1.407691250000000593e+02,-1.228628750000000593e+02,-1.037535000000000451e+02,-8.395662500000003092e+01,-6.422225000000001671e+01,-4.401912500000000250e+01,-2.423787499999998829e+01,-2.956624999999976744e+00,1.699650000000003658e+01,3.666837500000004724e+01,5.452775000000005434e+01,7.080900000000006855e+01,8.643400000000008276e+01,1.002933750000000970e+02,1.134808750000001112e+02,1.245277500000001112e+02,1.346527500000001112e+02,1.427621250000001112e+02,1.509808750000001112e+02,1.600746250000001112e+02,1.692777500000001112e+02,1.794027500000001396e+02,1.890902500000001680e+02,1.993402500000001965e+02,2.113871250000001965e+02,2.256058750000001965e+02,2.397777500000001965e+02,2.531996250000001965e+02,2.657933750000001965e+02,2.779027500000001965e+02,2.911215000000001965e+02,3.035902500000001965e+02,3.139965000000001965e+02,3.224183750000001965e+02,3.297933750000001965e+02,3.364183750000001965e+02,3.423402500000001965e+02,3.475433750000001965e+02,3.503090000000001965e+02,3.522465000000001965e+02,3.544965000000001965e+02,3.558246250000001965e+02,3.569808750000001965e+02,3.576683750000001965e+02,3.577621250000001965e+02,3.562777500000001965e+02,3.550902500000001965e+02,3.544652500000001965e+02,3.520902500000001965e+02,3.502152500000001965e+02,3.489808750000001965e+02,3.479652500000001965e+02,3.466683750000001965e+02,3.468558750000001965e+02,3.471840000000001965e+02,3.469496250000001965e+02,3.485433750000001965e+02,3.501371250000001965e+02,3.514183750000001965e+02,3.521840000000001965e+02,3.542777500000001965e+02,3.556058750000001965e+02,3.566840000000001965e+02,3.590746250000001965e+02,3.605590000000001965e+02,3.617308750000001965e+02,3.618402500000001965e+02,3.621683750000001965e+02,3.618090000000001965e+02,3.617621250000001965e+02,3.617465000000001965e+02,3.605590000000001965e+02,3.601527500000001965e+02,3.601840000000001965e+02,3.609808750000001965e+02,3.622308750000001965e+02,3.630433750000001965e+02,3.635902500000001965e+02,3.645277500000001965e+02,3.646371250000001965e+02,3.633871250000001965e+02,3.621996250000001965e+02,3.614496250000001965e+02,3.605433750000001965e+02,3.601527500000001965e+02,3.605433750000001965e+02,3.611527500000001965e+02,3.633402500000001965e+02,3.673246250000001965e+02,3.716996250000001965e+02,3.756058750000001965e+02,3.790746250000001965e+02,3.830590000000002533e+02,3.861683750000003101e+02,3.885121250000003101e+02,3.897933750000003670e+02,3.888090000000003101e+02,3.859652500000003101e+02,3.830277500000002533e+02,3.791683750000001965e+02,3.734496250000001965e+02,3.669652500000001965e+02,3.580433750000001965e+02,3.476996250000001965e+02,3.373558750000001965e+02,3.255121250000001965e+02,3.113715000000001965e+02,2.967465000000001965e+02,2.801996250000001965e+02,2.629808750000001965e+02,2.475121250000001965e+02,2.315590000000001965e+02,2.147777500000001965e+02,2.001840000000001965e+02,1.864652500000001680e+02,1.726683750000001396e+02,1.619183750000001112e+02,1.521996250000001112e+02,1.422465000000001112e+02,1.342465000000001112e+02,1.274652500000001112e+02,1.202152500000001112e+02,1.135433750000001112e+02,1.082152500000001112e+02,1.013871250000001112e+02,9.477775000000011119e+01,8.890275000000008276e+01,8.309025000000006855e+01,7.891837500000006855e+01,7.551212500000006855e+01,7.359025000000006855e+01,7.177775000000006855e+01,7.209025000000006855e+01,7.296525000000006855e+01,7.535587500000006855e+01,7.794962500000006855e+01,7.880900000000006855e+01,7.979337500000006855e+01,8.035587500000006855e+01,8.179337500000006855e+01,8.266837500000006855e+01,8.363712500000006855e+01,8.279337500000006855e+01,8.184025000000006855e+01,8.251212500000006855e+01,8.368400000000006855e+01,8.441837500000006855e+01,8.485587500000006855e+01,8.544962500000006855e+01,8.521525000000006855e+01,8.612150000000006855e+01,8.824650000000006855e+01,8.969962500000006855e+01,8.994962500000006855e+01,9.051212500000006855e+01,9.082462500000006855e+01,9.110587500000006855e+01,9.257462500000008276e+01,9.304337500000008276e+01,9.166837500000006855e+01,8.969962500000006855e+01,8.943400000000006855e+01,8.948087500000006855e+01,8.909025000000006855e+01,8.793400000000006855e+01,8.668400000000006855e+01,8.691837500000006855e+01,8.848087500000006855e+01,9.148087500000006855e+01,9.282462500000008276e+01,9.413712500000008276e+01,9.554337500000009697e+01,9.855900000000011119e+01,1.013090000000001112e+02,1.034027500000001112e+02,1.046840000000001112e+02,1.046683750000001112e+02,1.057465000000001112e+02,1.064652500000001112e+02,1.073871250000001112e+02,1.068246250000001112e+02,1.061683750000001112e+02,1.049183750000001112e+02,1.036840000000001112e+02,1.028246250000001112e+02,1.021371250000001112e+02,1.006683750000001112e+02,9.965275000000011119e+01,9.885587500000011119e+01,9.755900000000011119e+01,9.709025000000011119e+01,9.691837500000011119e+01,9.723087500000011119e+01,9.619962500000009697e+01,9.609025000000009697e+01,9.588712500000009697e+01,9.601212500000009697e+01,9.619962500000009697e+01,9.527775000000008276e+01,9.532462500000008276e+01,9.477775000000008276e+01,9.496525000000008276e+01,9.593400000000009697e+01,9.665275000000011119e+01,9.734025000000011119e+01,9.926212500000011119e+01,1.018090000000001112e+02,1.032308750000001112e+02,1.051996250000001112e+02,1.073558750000001112e+02,1.082465000000001112e+02,1.095277500000001112e+02,1.114183750000001112e+02,1.116215000000001112e+02,1.124027500000001112e+02,1.134496250000001112e+02,1.132777500000001112e+02,1.138246250000001112e+02,1.145433750000001112e+02,1.145121250000001112e+02,1.141683750000001112e+02,1.151371250000001112e+02,1.155433750000001112e+02,1.145902500000001112e+02,1.149808750000001112e+02,1.135121250000001112e+02,1.119652500000001112e+02,1.104340000000001112e+02,1.078090000000001112e+02,1.040121250000001112e+02,9.980900000000011119e+01,9.665275000000011119e+01,9.235587500000008276e+01,8.863712500000006855e+01,8.569962500000006855e+01,8.244962500000006855e+01,7.919962500000006855e+01,7.634025000000006855e+01,7.338712500000006855e+01,7.096525000000006855e+01,6.862150000000006855e+01,6.674650000000006855e+01,6.373087500000006855e+01,6.173087500000006855e+01,6.152775000000006855e+01,6.219962500000006855e+01,6.324650000000006855e+01,6.415275000000006855e+01,6.646525000000006855e+01,6.891837500000006855e+01,7.249650000000006855e+01,7.491837500000006855e+01,7.643400000000006855e+01,7.766837500000006855e+01,7.923087500000006855e+01,7.998087500000006855e+01,8.010587500000006855e+01,8.054337500000006855e+01,8.059025000000006855e+01,8.257462500000006855e+01,8.479337500000006855e+01,8.624650000000006855e+01,8.877775000000008276e+01,9.277775000000008276e+01,9.674650000000009697e+01,1.012465000000001112e+02,1.060902500000001112e+02,1.096527500000001112e+02,1.126215000000001112e+02,1.170121250000001112e+02,1.205121250000001112e+02,1.237308750000001112e+02,1.275746250000001112e+02,1.306996250000001112e+02,1.337621250000001112e+02,1.378402500000001112e+02,1.434027500000001112e+02,1.482465000000001112e+02,1.529340000000001112e+02,1.563402500000001112e+02,1.581840000000001112e+02,1.585746250000001112e+02,1.581527500000001112e+02,1.557308750000001112e+02,1.500121250000001112e+02,1.422933750000001112e+02,1.312777500000001112e+02,1.181058750000001112e+02,1.021058750000000970e+02,8.469962500000008276e+01,6.465275000000006855e+01,4.191837500000005434e+01,1.818400000000004013e+01,-6.581624999999975856e+00,-2.965974999999998829e+01,-5.090975000000000250e+01,-6.939412500000001671e+01,-8.740975000000003092e+01,-1.035191250000000593e+02,-1.167378750000000593e+02,-1.282691250000000593e+02,-1.382691250000000593e+02,-1.495035000000000593e+02,-1.616597500000000593e+02,-1.757222500000000878e+02,-1.899410000000001446e+02,-2.063628750000001446e+02,-2.243628750000001446e+02,-2.436128750000001446e+02,-2.647847500000001446e+02,-2.855503750000001446e+02,-3.068785000000001446e+02,-3.280347500000001446e+02,-3.493472500000001446e+02,-3.689878750000001446e+02,-3.885660000000002583e+02,-4.071597500000002583e+02,-4.236910000000002583e+02,-4.393472500000002583e+02,-4.537691250000003151e+02,-4.658628750000003151e+02,-4.755503750000003151e+02,-4.834878750000003151e+02,-4.890347500000003151e+02,-4.929410000000003151e+02,-4.957222500000003151e+02,-4.971441250000003151e+02,-4.973003750000003151e+02,-4.972222500000003151e+02,-4.971441250000003151e+02,-4.970972500000003151e+02,-4.970503750000003151e+02,-4.970035000000003151e+02,-4.969566250000003151e+02,-4.969410000000003151e+02,-4.969410000000003151e+02,-4.970035000000003151e+02,-4.970660000000003151e+02,-4.970972500000003151e+02,-4.971285000000003151e+02,-4.971753750000003151e+02,-4.972222500000003151e+02,-4.972535000000003151e+02,-4.973003750000003151e+02,-4.972847500000003151e+02,-4.972535000000003151e+02,-4.972535000000003151e+02,-4.972691250000003151e+02,-4.972378750000003151e+02,-4.972066250000003151e+02,-4.971910000000003151e+02,-4.971597500000003151e+02,-4.971753750000003151e+02,-4.972066250000003151e+02,-4.972222500000003151e+02,-4.972222500000003151e+02,-4.972691250000003151e+02,-4.973160000000003151e+02,-4.973316250000003151e+02,-4.973316250000003151e+02,-4.973160000000003151e+02,-4.973316250000003151e+02,-4.973472500000003151e+02,-4.958941250000003151e+02,-4.939097500000003151e+02,-4.904878750000003151e+02,-4.854097500000003151e+02,-4.792535000000003151e+02,-4.715347500000003151e+02,-4.617535000000003151e+02,-4.484878750000003151e+02,-4.334722500000002583e+02,-4.142691250000002583e+02,-3.941753750000002583e+02,-3.724410000000002015e+02,-3.479410000000001446e+02,-3.223003750000001446e+02,-2.949722500000001446e+02,-2.690035000000001446e+02,-2.453628750000001446e+02,-2.260972500000001446e+02,-2.064878750000001446e+02,-1.880972500000001162e+02,-1.706753750000000878e+02,-1.523316250000000593e+02,-1.362378750000000593e+02,-1.207066250000000593e+02,-1.032066250000000451e+02,-8.387850000000003092e+01,-6.534725000000001671e+01,-4.695662500000000250e+01,-3.015974999999998829e+01,-1.473787499999998118e+01,2.324625000000026809e+00,2.046525000000004013e+01,3.818400000000005434e+01,5.613712500000006145e+01,7.509025000000008276e+01,9.429337500000008276e+01,1.146996250000001112e+02,1.346371250000001112e+02,1.538090000000001112e+02,1.725121250000001396e+02,1.901527500000001965e+02,2.077621250000001965e+02,2.236840000000001965e+02,2.390277500000001965e+02,2.534965000000001965e+02,2.669340000000001965e+02,2.778090000000001965e+02,2.873402500000001965e+02,2.971058750000001965e+02,3.062465000000001965e+02,3.149652500000001965e+02,3.232777500000001965e+02,3.299340000000001965e+02,3.369965000000001965e+02,3.457308750000001965e+02,3.540121250000001965e+02,3.608871250000001965e+02,3.660433750000001965e+02,3.710590000000001965e+02,3.753558750000001965e+02,3.805902500000001965e+02,3.854652500000003101e+02,3.900277500000003101e+02,3.955746250000003101e+02,4.007933750000003101e+02,4.062308750000003670e+02,4.119965000000003670e+02,4.168715000000003670e+02,4.207152500000003670e+02,4.238558750000003670e+02,4.247777500000003670e+02,4.243715000000003670e+02,4.245590000000003670e+02,4.239027500000003670e+02,4.218402500000003670e+02,4.203246250000003670e+02,4.185902500000003670e+02,4.165121250000003670e+02,4.152777500000003670e+02,4.134027500000003670e+02,4.113402500000003670e+02,4.103246250000003670e+02,4.093558750000003670e+02,4.076996250000003670e+02,4.067621250000003670e+02,4.047777500000003670e+02,4.027933750000003670e+02,4.009496250000003670e+02,3.974496250000003101e+02,3.920902500000003101e+02,3.859340000000003101e+02,3.797465000000001965e+02,3.723402500000001965e+02,3.664027500000001965e+02,3.599027500000001965e+02,3.533246250000001965e+02,3.482933750000001965e+02,3.446996250000001965e+02,3.426527500000001965e+02,3.413558750000001965e+02,3.403402500000001965e+02,3.388090000000001965e+02,3.384183750000001965e+02,3.384027500000001965e+02,3.380746250000001965e+02,3.385746250000001965e+02,3.397465000000001965e+02,3.400277500000001965e+02,3.411996250000001965e+02,3.426527500000001965e+02,3.443558750000001965e+02,3.466215000000001965e+02,3.482308750000001965e+02,3.481527500000001965e+02,3.464808750000001965e+02,3.454027500000001965e+02,3.440121250000001965e+02,3.428715000000001965e+02,3.401527500000001965e+02,3.364340000000001965e+02,3.338715000000001965e+02,3.318715000000001965e+02,3.279808750000001965e+02,3.222621250000001965e+02,3.149965000000001965e+02,3.044496250000001965e+02,2.921527500000001965e+02,2.777152500000001965e+02,2.587777500000001965e+02,2.355121250000001965e+02,2.120433750000001965e+02,1.861215000000001680e+02,1.571215000000001396e+02,1.276527500000001112e+02,9.649650000000008276e+01,6.360587500000005434e+01,3.162150000000004368e+01,8.715000000000268088e-01,-3.223787499999999540e+01,-6.448787500000001671e+01,-9.719100000000003092e+01,-1.309722500000000593e+02,-1.653941250000000878e+02,-2.002535000000001162e+02,-2.360191250000001446e+02,-2.722847500000001446e+02,-3.068003750000001446e+02,-3.405503750000001446e+02,-3.710191250000002583e+02,-3.986753750000002583e+02,-4.216910000000002583e+02,-4.401910000000002583e+02,-4.559253750000003151e+02,-4.685035000000003151e+02,-4.777847500000003151e+02,-4.843003750000003151e+02,-4.890347500000003151e+02,-4.919410000000003151e+02,-4.944097500000003151e+02,-4.964722500000003151e+02,-4.971597500000003151e+02,-4.971128750000003151e+02,-4.953941250000003151e+02,-4.936597500000003151e+02,-4.910347500000003151e+02,-4.872847500000003151e+02,-4.835347500000003151e+02,-4.796910000000003151e+02,-4.729097500000003151e+02,-4.645347500000003151e+02,-4.580816250000003151e+02,-4.503628750000003151e+02,-4.430503750000003151e+02,-4.335191250000003151e+02,-4.222378750000002583e+02,-4.106753750000002583e+02,-4.019410000000002583e+02,-3.931128750000002583e+02,-3.828003750000002583e+02,-3.699722500000001446e+02,-3.545035000000001446e+02,-3.414878750000001446e+02,-3.266441250000001446e+02,-3.065035000000001446e+02,-2.832066250000001446e+02,-2.584878750000001446e+02,-2.319097500000001446e+02,-2.068003750000001446e+02,-1.840347500000001162e+02,-1.625660000000000878e+02,-1.441753750000000593e+02,-1.315972500000000593e+02,-1.226597500000000593e+02,-1.181910000000000593e+02,-1.171441250000000593e+02,-1.193160000000000593e+02,-1.216441250000000593e+02,-1.225503750000000593e+02,-1.241285000000000593e+02,-1.250660000000000593e+02,-1.250503750000000593e+02,-1.235660000000000593e+02,-1.221128750000000593e+02,-1.200503750000000593e+02,-1.184253750000000593e+02,-1.183160000000000593e+02,-1.178941250000000593e+02,-1.181597500000000593e+02,-1.196753750000000593e+02,-1.209566250000000593e+02,-1.206753750000000593e+02,-1.200972500000000593e+02,-1.191285000000000593e+02,-1.166753750000000593e+02,-1.139722500000000593e+02,-1.118160000000000593e+02,-1.098003750000000593e+02,-1.082847500000000593e+02,-1.098316250000000593e+02,-1.124410000000000593e+02,-1.179566250000000593e+02,-1.259722500000000593e+02,-1.370503750000000593e+02,-1.487847500000000593e+02,-1.605503750000000593e+02,-1.742222500000000878e+02,-1.868003750000001446e+02,-1.999253750000001446e+02,-2.115972500000001446e+02,-2.236441250000001446e+02,-2.340503750000001446e+02,-2.444410000000001446e+02,-2.548628750000001446e+02,-2.623316250000001446e+02,-2.684410000000001446e+02,-2.695972500000001446e+02,-2.664097500000001446e+02,-2.572847500000001446e+02,-2.405191250000001446e+02,-2.134253750000001446e+02,-1.771597500000000878e+02,-1.341910000000000593e+02,-8.256600000000003092e+01,-2.780037499999999540e+01,3.059025000000004724e+01,9.299650000000008276e+01,1.551215000000001112e+02,2.121371250000001396e+02,2.648871250000001965e+02,3.137621250000001965e+02,3.553715000000001965e+02,3.926683750000003101e+02,4.245121250000003101e+02,4.488090000000003101e+02,4.668246250000003670e+02,4.810746250000003670e+02,4.913558750000003670e+02,4.979183750000003670e+02,5.024965000000003670e+02,5.049027500000003670e+02,5.056683750000003670e+02,5.059340000000003670e+02,5.061371250000003670e+02,5.062777500000003670e+02,5.063246250000003670e+02,5.063715000000003670e+02,5.064183750000003670e+02,4.992933750000003670e+02,4.851058750000003670e+02,4.628871250000003101e+02,4.335277500000003101e+02,3.958090000000003101e+02,3.506058750000002533e+02,2.981371250000001965e+02
-2.284375000000002132e+01,-6.185937500000004263e+01,-8.057812500000005684e+01,-7.185937500000004263e+01,-4.543750000000002842e+01,-2.232812500000001421e+01,-6.109375000000004441e+00,-4.656250000000003553e+00,-5.250000000000003553e+00,-8.187500000000007105e+00,-1.164062500000000711e+01,-6.625000000000003553e+00,-5.968750000000003553e+00,-2.625000000000001332e+00,3.718750000000002220e+00,1.843750000000000888e+00,3.437500000000002220e+00,3.531250000000002220e+00,-1.046875000000000444e+00,1.546875000000000888e+00,3.453125000000001776e+00,3.000000000000001776e+00,7.171875000000003553e+00,5.578125000000002665e+00,6.249999999999977796e-02,-1.765625000000001332e+00,-6.500000000000003553e+00,-7.828125000000003553e+00,-2.578125000000000888e+00,-7.812499999999955591e-02,3.515625000000002665e+00,6.906250000000005329e+00,3.921875000000002665e+00,4.296875000000002665e+00,2.953125000000001776e+00,3.281250000000001110e-01,2.843750000000001776e+00,7.812500000000008882e-01,3.125000000000004441e-01,-1.093750000000000000e-01,-5.375000000000003553e+00,-7.000000000000005329e+00,-6.906250000000005329e+00,-7.281250000000005329e+00,-2.187500000000000888e+00,9.218750000000008882e-01,-8.906250000000003331e-01,1.468750000000001332e+00,-2.203125000000001332e+00,-3.718750000000002220e+00,1.562500000000022204e-02,-3.031250000000001332e+00,-6.406250000000000000e-01,-1.250000000000000888e+00,-4.671875000000003553e+00,-2.687500000000001776e+00,-3.250000000000001776e+00,-1.890625000000001332e+00,-5.625000000000002220e-01,-5.156250000000002220e-01,6.250000000000005551e-01,3.312500000000001776e+00,7.234375000000003553e+00,1.032812500000000711e+01,1.007812500000000711e+01,5.781250000000003553e+00,1.531250000000001332e+00,-2.609375000000001776e+00,-2.796875000000001776e+00,1.109375000000000444e+00,1.968750000000000888e+00,2.093750000000001332e+00,1.375000000000000666e+00,-3.000000000000001776e+00,-2.968750000000001776e+00,-2.250000000000001332e+00,-2.906250000000001776e+00,-1.203125000000000888e+00,-2.468750000000001776e+00,-6.562500000000004441e-01,1.515625000000000888e+00,2.375000000000001332e+00,4.765625000000002665e+00,1.328125000000000444e+00,-1.312500000000000888e+00,-8.750000000000005551e-01,-1.859375000000001332e+00,1.359375000000000666e+00,4.671875000000002665e+00,2.625000000000001776e+00,1.421875000000000888e+00,-2.250000000000001776e+00,-6.390625000000004441e+00,-5.359375000000003553e+00,-3.171875000000001776e+00,2.281250000000001776e+00,6.875000000000005329e+00,9.031250000000005329e+00,7.828125000000005329e+00,4.000000000000001776e+00,2.093750000000001332e+00,-1.437500000000000888e+00,-1.328125000000000888e+00,-1.062500000000000888e+00,-3.812500000000002665e+00,-2.906250000000001776e+00,-2.671875000000001776e+00,-2.937500000000001776e+00,5.625000000000004441e-01,2.187500000000001332e+00,2.812499999999998335e-01,1.203125000000000666e+00,2.031250000000002220e-01,-1.296875000000000888e+00,2.765625000000001332e+00,2.812500000000001332e+00,2.062500000000001332e+00,2.421875000000001776e+00,-2.281250000000000888e+00,-3.093750000000001776e+00,-2.109375000000001332e+00,-2.578125000000001776e+00,7.031250000000004441e-01,2.828125000000001776e+00,3.937500000000002220e+00,6.812500000000003553e+00,6.984375000000003553e+00,4.265625000000001776e+00,5.000000000000000000e-01,-3.375000000000001776e+00,-5.937500000000003553e+00,-5.593750000000003553e+00,-2.843750000000001776e+00,-2.234375000000001332e+00,-3.437500000000004441e-01,1.750000000000000888e+00,1.359375000000000888e+00,2.250000000000001332e+00,-5.156250000000004441e-01,-4.031250000000002665e+00,-4.671875000000002665e+00,-3.734375000000001776e+00,1.937500000000001110e+00,6.828125000000003553e+00,8.687500000000005329e+00,7.796875000000003553e+00,1.421875000000000888e+00,-3.734375000000001776e+00,-6.203125000000003553e+00,-6.718750000000003553e+00,-2.156250000000000888e+00,1.015625000000000888e+00,8.437500000000009992e-01,-4.843750000000001110e-01,-4.265625000000002665e+00,-6.281250000000003553e+00,-3.484375000000002220e+00,3.125000000000022204e-02,3.421875000000002220e+00,5.750000000000003553e+00,2.406250000000001332e+00,-6.875000000000004441e-01,-2.328125000000001332e+00,-4.437500000000002665e+00,-1.984375000000001332e+00,2.656250000000001110e-01,-4.218750000000002776e-01,2.031250000000000555e-01,-9.531250000000007772e-01,-3.046875000000002220e+00,-1.375000000000001110e+00,-6.406250000000004441e-01,7.187500000000006661e-01,2.281250000000001776e+00,1.718750000000001332e+00,1.375000000000000888e+00,-7.031250000000003331e-01,-1.609375000000000888e+00,-2.187500000000001332e+00,-1.312500000000000888e+00,1.250000000000000888e+00,4.109375000000002665e+00,5.640625000000003553e+00,3.718750000000001776e+00,2.250000000000001332e+00,-1.734375000000001110e+00,-2.734375000000001776e+00,-1.390625000000000888e+00,-1.640625000000001110e+00,1.718750000000001665e-01,4.687500000000011102e-02,1.062500000000000888e+00,1.906250000000001332e+00,1.750000000000001110e+00,1.531250000000000888e+00,-2.109375000000001776e+00,-3.312500000000002665e+00,-3.109375000000002665e+00,-3.125000000000002665e+00,1.203125000000000666e+00,1.859375000000001110e+00,4.375000000000004441e-01,3.750000000000003331e-01,-4.828125000000002665e+00,-5.718750000000003553e+00,-4.062500000000003553e+00,-4.000000000000003553e+00,1.343750000000000444e+00,4.000000000000001776e+00,4.265625000000002665e+00,5.937500000000004441e+00,3.421875000000003109e+00,8.593750000000007772e-01,-1.281250000000000888e+00,-4.078125000000002665e+00,-3.187500000000001776e+00,-2.625000000000001776e+00,1.000000000000000000e+00,4.656250000000002665e+00,3.484375000000002220e+00,5.437500000000003553e+00,1.593750000000001332e+00,-1.968750000000000888e+00,3.593750000000004996e-01,-2.187500000000001332e+00,1.296875000000001332e+00,3.093750000000002220e+00,-4.843750000000003331e-01,4.687500000000003331e-01,-2.640625000000001776e+00,-1.812500000000001332e+00,1.296875000000000888e+00,1.671875000000001332e+00,3.406250000000002665e+00,-7.656250000000002220e-01,-3.187500000000001776e+00,-3.953125000000002665e+00,-4.921875000000003553e+00,1.171875000000001110e+00,4.000000000000002665e+00,3.859375000000002665e+00,4.578125000000003553e+00,-2.062500000000001776e+00,-6.500000000000003553e+00,-6.390625000000003553e+00,-7.984375000000005329e+00,-2.484375000000001332e+00,2.281250000000001776e+00,2.703125000000001776e+00,4.562500000000002665e+00,-1.406250000000000000e-01,-4.328125000000002665e+00,-6.453125000000003553e+00,-7.500000000000003553e+00,-2.453125000000001332e+00,1.203125000000000666e+00,6.093750000000003553e+00,7.312500000000003553e+00,3.312500000000001776e+00,9.531250000000002220e-01,-2.453125000000001776e+00,-3.031250000000001776e+00,-8.125000000000005551e-01,1.687500000000001332e+00,1.437500000000001110e+00,2.453125000000001332e+00,4.625000000000002665e+00,3.640625000000001776e+00,8.437500000000005329e+00,9.031250000000005329e+00,7.000000000000003553e+00,9.515625000000007105e+00,5.875000000000003553e+00,4.984375000000003553e+00,4.218750000000003553e+00,-7.500000000000003331e-01,-2.406250000000001332e+00,-3.500000000000002665e+00,-2.234375000000001776e+00,3.171875000000001776e+00,8.875000000000007105e+00,1.264062500000001066e+01,1.300000000000001066e+01,9.171875000000007105e+00,4.828125000000003553e+00,3.125000000000001776e+00,5.000000000000003553e+00,7.468750000000005329e+00,7.656250000000005329e+00,1.453125000000001776e+00,-9.515625000000007105e+00,-1.837500000000001421e+01,-2.523437500000001776e+01,-2.451562500000001776e+01,-1.871875000000001421e+01,-1.309375000000000711e+01,-6.484375000000003553e+00,-2.750000000000001776e+00,-1.015625000000000666e+00,7.812500000000005551e-02,1.562500000000001110e-01,1.562500000000001110e-01,7.812500000000005551e-02,6.938893903907228378e-18,-7.812500000000005551e-02,-1.562500000000001110e-01,-1.406250000000001110e-01,-1.250000000000000833e-01,-9.375000000000005551e-02,1.562500000000001735e-02,6.250000000000005551e-02,1.093750000000000833e-01,1.093750000000000833e-01,6.250000000000004163e-02,3.125000000000002082e-02,1.562500000000001041e-02,1.562500000000001041e-02,-3.125000000000002776e-02,-7.812500000000006939e-02,-1.875000000000001665e-01,-1.875000000000001665e-01,-9.375000000000008327e-02,0.000000000000000000e+00,1.875000000000001665e-01,1.875000000000001665e-01,1.250000000000001110e-01,6.250000000000005551e-02,-6.250000000000004163e-02,-6.250000000000004163e-02,-4.687500000000002776e-02,-3.125000000000002082e-02,0.000000000000000000e+00,0.000000000000000000e+00,0.000000000000000000e+00,1.562500000000001041e-02,1.562500000000001041e-02,0.000000000000000000e+00,-1.562500000000001041e-02,-9.375000000000005551e-02,-1.093750000000000555e-01,-6.250000000000004163e-02,-1.562500000000001041e-02,-5.156250000000003331e-01,-2.750000000000001776e+00,-6.890625000000003553e+00,-1.292187500000000711e+01,-1.887500000000001421e+01,-2.139062500000001421e+01,-2.009375000000001421e+01,-1.535937500000001243e+01,-8.812500000000007105e+00,-3.203125000000002665e+00,1.046875000000000444e+00,5.781250000000003553e+00,9.218750000000007105e+00,1.014062500000000711e+01,9.875000000000007105e+00,5.203125000000003553e+00,1.328125000000001554e+00,3.593750000000002220e-01,-6.250000000000002220e-01,1.390625000000000888e+00,1.218750000000000666e+00,-1.359375000000000666e+00,-2.828125000000001332e+00,-5.250000000000002665e+00,-6.609375000000004441e+00,-4.718750000000003553e+00,-3.359375000000002665e+00,-1.562500000000088818e-02,4.890625000000003553e+00,6.125000000000003553e+00,7.703125000000004441e+00,6.031250000000003553e+00,4.062500000000001776e+00,4.250000000000002665e+00,5.015625000000003553e+00,7.765625000000005329e+00,7.031250000000004441e+00,6.593750000000004441e+00,3.421875000000002220e+00,-1.093750000000002776e-01,4.687499999999983347e-02,-3.843750000000003109e+00,-6.031250000000003553e+00,-8.156250000000003553e+00,-1.084375000000000533e+01,-6.390625000000002665e+00,-9.218750000000002220e-01,3.843750000000002665e+00,7.046875000000004441e+00,4.328125000000001776e+00,1.781250000000000888e+00,-1.875000000000004441e-01,2.187500000000000000e-01,3.937500000000002665e+00,5.140625000000003553e+00,9.203125000000007105e+00,1.007812500000000711e+01,7.656250000000005329e+00,7.328125000000005329e+00,-6.250000000000044409e-02,-3.375000000000002665e+00,-3.062500000000002220e+00,-2.953125000000002220e+00,4.765625000000002665e+00,7.078125000000003553e+00,7.359375000000003553e+00,6.406250000000003553e+00,-9.062500000000004441e-01,-2.156250000000001332e+00,-2.718750000000001776e+00,-3.343750000000002220e+00,1.265625000000001332e+00,5.312500000000006661e-01,-2.171875000000000888e+00,-2.421875000000001776e+00,-5.937500000000003553e+00,-4.390625000000002665e+00,-2.343750000000002776e-01,1.546875000000001110e+00,4.578125000000002665e+00,2.000000000000000888e+00,-1.218750000000000888e+00,-2.859375000000001776e+00,-4.250000000000002665e+00,-1.265625000000000888e+00,2.125000000000001776e+00,3.515625000000002665e+00,4.031250000000002665e+00,4.328125000000002665e+00,2.000000000000001332e+00,1.921875000000001332e+00,1.437500000000000888e+00,-2.687500000000001776e+00,-3.218750000000001776e+00,-5.750000000000003553e+00,-6.234375000000003553e+00,-2.234375000000001776e+00,-1.093750000000003331e-01,4.593750000000002665e+00,6.718750000000003553e+00,6.421875000000003553e+00,5.984375000000003553e+00,1.359375000000000666e+00,-5.781250000000006661e-01,-4.109375000000002665e+00,-8.281250000000005329e+00,-7.046875000000004441e+00,-8.343750000000005329e+00,-5.093750000000003553e+00,1.718750000000001388e-01,-7.812500000000013878e-02,2.515625000000001776e+00,1.359375000000000888e+00,-6.250000000000003331e-01,3.890625000000003109e+00,4.859375000000003553e+00,7.390625000000005329e+00,1.106250000000000711e+01,6.968750000000003553e+00,6.156250000000003553e+00,5.203125000000002665e+00,-3.906250000000003331e-01,9.687500000000006661e-01,2.328125000000001332e+00,3.046875000000001776e+00,1.045312500000000711e+01,1.354687500000001066e+01,1.087500000000000711e+01,8.187500000000007105e+00,5.468750000000017764e-01,-6.984375000000005329e+00,-6.890625000000005329e+00,-5.187500000000003553e+00,-3.281250000000002665e+00,6.875000000000007772e-01,9.375000000000000000e-02,-4.109375000000002665e+00,-6.546875000000004441e+00,-9.203125000000007105e+00,-1.012500000000000711e+01,-7.062500000000004441e+00,-2.031250000000001332e+00,1.718750000000001332e+00,4.640625000000003553e+00,5.843750000000003553e+00,2.234375000000001332e+00,-7.812500000000002220e-01,-3.218750000000001332e+00,-5.531250000000002665e+00,-6.046875000000003553e+00,-6.328125000000005329e+00,-7.531250000000005329e+00,-8.593750000000005329e+00,-5.781250000000003553e+00,-3.281250000000002220e+00,1.203125000000000888e+00,5.234375000000003553e+00,4.062500000000003553e+00,3.515625000000002665e+00,1.890625000000001332e+00,4.531250000000003331e-01,5.156250000000003331e-01,-7.656250000000005551e-01,-2.421875000000001332e+00,-2.343750000000001332e+00,-1.078125000000000666e+00,1.812500000000001332e+00,3.765625000000002665e+00,1.265625000000000888e+00,-1.453125000000000888e+00,-4.343750000000003553e+00,-5.187500000000003553e+00,-5.625000000000006661e-01,2.671875000000001332e+00,3.671875000000001776e+00,3.921875000000002665e+00,6.718750000000004441e-01,-1.046875000000000666e+00,-8.906250000000005551e-01,-7.968750000000004441e-01,9.531250000000007772e-01,2.234375000000001332e+00,3.875000000000001776e+00,3.765625000000001776e+00,8.437500000000004441e-01,-3.062500000000002220e+00,-7.250000000000004441e+00,-7.734375000000005329e+00,-4.609375000000003553e+00,-1.421875000000000666e+00,1.734375000000001110e+00,1.921875000000001332e+00,7.031250000000006661e-01,2.375000000000001776e+00,1.437500000000001110e+00,1.843750000000001110e+00,1.125000000000000666e+00,-2.359375000000001776e+00,-5.625000000000003331e-01,5.937500000000005551e-01,3.484375000000002665e+00,6.296875000000004441e+00,3.703125000000002665e+00,1.578125000000000888e+00,-1.687500000000000888e+00,-4.078125000000002665e+00,-2.390625000000001776e+00,-1.046875000000000444e+00,2.187500000000001110e-01,1.828125000000001110e+00,1.625000000000000888e+00,-1.562499999999998890e-01,-4.687499999999977796e-02,-1.921875000000000888e+00,-4.078125000000002665e+00,-1.218750000000001110e+00,-1.828125000000001110e+00,1.609375000000001332e+00,5.171875000000003553e+00,2.406250000000001776e+00,3.234375000000001776e+00,-1.281250000000000888e+00,-5.031250000000003553e+00,-5.062500000000003553e+00,-6.531250000000003553e+00,-2.843750000000001776e+00,-6.406250000000006661e-01,2.500000000000001776e+00,4.578125000000002665e+00,1.671875000000000888e+00,2.515625000000001776e+00,-5.000000000000000000e-01,-2.343750000000000888e+00,1.140625000000001110e+00,-5.625000000000002220e-01,7.812500000000004441e-01,2.484375000000001332e+00,4.062500000000002776e-01,6.718750000000005551e-01,9.531250000000007772e-01,2.343750000000002220e-01,-9.843750000000007772e-01,1.093750000000000000e-01,-1.546875000000000666e+00,-1.968750000000000888e+00,1.640625000000001110e+00,2.046875000000001332e+00,6.718750000000004441e+00,7.937500000000005329e+00,5.687500000000003553e+00,3.671875000000002665e+00,-3.312500000000002220e+00,-4.281250000000002665e+00,-4.734375000000003553e+00,-3.515625000000002220e+00,1.859375000000001332e+00,1.046875000000000444e+00,1.484375000000000888e+00,2.812500000000000000e-01,-2.203125000000001776e+00,-5.312500000000002220e-01,-8.125000000000004441e-01,2.500000000000002220e-01,-1.093750000000000000e-01,-2.234375000000001332e+00,-3.343750000000001776e+00,-5.828125000000003553e+00,-6.750000000000004441e+00,-6.656250000000004441e+00,-4.531250000000003553e+00,1.406249999999997780e-01,3.875000000000001776e+00,7.203125000000003553e+00,7.375000000000004441e+00,3.515625000000002220e+00,1.515625000000000888e+00,-2.046875000000000888e+00,-3.921875000000001776e+00,-1.296875000000000444e+00,-1.531250000000000444e+00,-6.406250000000001110e-01,-5.468750000000003331e-01,-3.750000000000002220e+00,-5.281250000000003553e+00,-4.281250000000003553e+00,-2.250000000000001776e+00,-5.000000000000002220e-01,2.968750000000002220e+00,2.531250000000002220e+00,1.125000000000000888e+00,3.984375000000002665e+00,2.234375000000001776e+00,2.015625000000001776e+00,9.218750000000006661e-01,-5.390625000000003553e+00,-6.265625000000004441e+00,-6.593750000000004441e+00,-3.843750000000002665e+00,2.937500000000001776e+00,4.375000000000003553e+00,6.781250000000003553e+00,7.812500000000004441e+00,6.734375000000004441e+00,1.146875000000000711e+01,1.214062500000000711e+01,1.117187500000000711e+01,1.020312500000000711e+01,4.781250000000003553e+00,5.953125000000004441e+00,9.578125000000007105e+00,1.417187500000000711e+01,1.871875000000001066e+01,1.451562500000000711e+01,5.687500000000002665e+00,-4.859375000000002665e+00,-1.453125000000000711e+01,-1.834375000000001066e+01,-1.729687500000001066e+01,-1.490625000000001066e+01,-1.010937500000000711e+01,-4.828125000000003553e+00,2.031249999999997780e-01,4.703125000000003553e+00,6.875000000000004441e+00,7.093750000000005329e+00,5.468750000000003553e+00,6.312500000000003553e+00,7.234375000000005329e+00,8.421875000000005329e+00,9.296875000000007105e+00,5.843750000000004441e+00,9.843750000000006661e-01,-4.125000000000003553e+00,-7.531250000000007105e+00,-8.281250000000007105e+00,-4.953125000000003553e+00,-1.000000000000001332e+00,4.687500000000002220e-01,4.999999999999997780e-01,-4.156250000000003553e+00,-1.035937500000000711e+01,-1.382812500000001066e+01,-1.520312500000001066e+01,-1.295312500000000711e+01,-8.218750000000003553e+00,-4.437500000000001776e+00,-1.781250000000000888e+00,-4.218750000000003331e-01,-2.031250000000001388e-01,-9.375000000000006939e-02,1.562500000000001735e-02,9.375000000000006939e-02,1.093750000000000833e-01,1.250000000000001110e-01,1.406250000000001110e-01,1.250000000000000833e-01,1.250000000000000833e-01,6.250000000000004163e-02,0.000000000000000000e+00,-3.125000000000002082e-02,-6.250000000000004163e-02,-7.812500000000005551e-02,-9.375000000000006939e-02,-6.250000000000004163e-02,-1.562500000000001041e-02,3.125000000000002082e-02,6.250000000000004163e-02,-6.938893903907228378e-18,-1.093750000000000833e-01,-1.406250000000001110e-01,-1.093750000000000833e-01,-6.938893903907228378e-18,1.562500000000001110e-01,2.343750000000001665e-01,2.031250000000001388e-01,9.375000000000005551e-02,-3.125000000000004163e-02,-1.718750000000001110e-01,-1.875000000000001110e-01,-1.093750000000000833e-01,-4.687500000000004163e-02,6.250000000000004163e-02,7.812500000000005551e-02,3.125000000000002082e-02,-1.421875000000000666e+00,-3.406250000000001776e+00,-6.828125000000003553e+00,-1.190625000000000711e+01,-1.231250000000000711e+01,-1.221875000000000711e+01,-8.312500000000005329e+00,-1.203125000000001110e+00,-3.093750000000002665e+00,-7.046875000000004441e+00,-1.539062500000000888e+01,-2.481250000000001421e+01,-2.125000000000001421e+01,-8.390625000000005329e+00,7.468750000000006217e+00,2.343750000000001421e+01,2.854687500000002132e+01,1.959375000000001421e+01,1.117187500000000711e+01,4.687500000000000000e-01,-7.953125000000005329e+00,-8.359375000000005329e+00,-1.157812500000000711e+01,-1.085937500000000711e+01,-5.421875000000004441e+00,2.437500000000001776e+00,1.134375000000000888e+01,1.489062500000001066e+01,1.321875000000000888e+01,2.796875000000000888e+00,-7.890625000000006217e+00,-1.259375000000000888e+01,-1.631250000000001066e+01,-9.765625000000005329e+00,-6.562499999999993339e-01,3.890625000000002665e+00,1.123437500000000711e+01,9.109375000000007105e+00,3.250000000000002665e+00,4.218750000000011102e-01,-5.093750000000002665e+00,-3.078125000000001332e+00,3.000000000000001776e+00,6.968750000000003553e+00,1.106250000000000711e+01,1.100000000000000711e+01,6.500000000000003553e+00,3.843750000000003109e+00,2.703125000000002220e+00,9.375000000000008882e-01,9.687500000000008882e-01,-2.281250000000001776e+00,-5.687500000000003553e+00,-4.312500000000001776e+00,-2.046875000000001332e+00,5.921875000000003553e+00,1.054687500000000711e+01,9.390625000000005329e+00,8.562500000000005329e+00,-1.718750000000004441e-01,-4.156250000000002665e+00,-4.843750000000002665e+00,-8.718750000000007105e+00,-4.453125000000003553e+00,-2.734375000000002220e+00,-1.046875000000000888e+00,5.875000000000003553e+00,8.000000000000005329e+00,9.906250000000007105e+00,1.007812500000000711e+01,6.156250000000003553e+00,2.250000000000001332e+00,-1.000000000000000666e+00,-1.531250000000000888e+00,-2.468750000000001776e+00,-9.531250000000006661e-01,1.906250000000001332e+00,4.218750000000003331e-01,2.406250000000001332e+00,2.531250000000001332e+00,-1.531250000000000888e+00,-5.156250000000003331e-01,-2.984375000000002220e+00,-5.328125000000003553e+00,-1.515625000000001110e+00,-3.124999999999977796e-02,4.203125000000002665e+00,9.171875000000007105e+00,9.296875000000007105e+00,7.718750000000005329e+00,4.875000000000003553e+00,1.437500000000000888e+00,-1.281250000000000444e+00,-2.406250000000001332e+00,-4.781250000000002665e+00,-6.828125000000004441e+00,-7.796875000000005329e+00,-6.890625000000003553e+00,-4.093750000000002665e+00,-2.234375000000001332e+00,7.812500000000005551e-01,3.750000000000002220e-01,-4.687500000000000000e-02,2.281250000000001776e+00,5.468750000000003331e-01,4.843750000000001110e-01,-1.375000000000001110e+00,-6.906250000000004441e+00,-7.265625000000004441e+00,-5.656250000000003553e+00,-4.843750000000000000e-01,6.562500000000004441e+00,1.007812500000000711e+01,9.406250000000007105e+00,4.828125000000003553e+00,1.593750000000000666e+00,-1.640625000000001110e+00,-2.375000000000001776e+00,-7.187500000000006661e-01,-2.000000000000001776e+00,-8.750000000000007772e-01,1.062500000000000666e+00,2.453125000000001776e+00,7.609375000000005329e+00,1.212500000000000711e+01,1.667187500000001066e+01,1.946875000000001421e+01,1.715625000000001066e+01,1.396875000000001066e+01,7.109375000000005329e+00,2.890625000000002220e+00,5.125000000000004441e+00,5.375000000000003553e+00,8.031250000000003553e+00,1.018750000000000355e+01,3.515625000000001776e+00,-8.750000000000002220e-01,-4.250000000000001776e+00,-1.007812500000000355e+01,-6.578125000000003553e+00,-3.125000000000003331e-01,5.531250000000001776e+00,1.439062500000000533e+01,1.731250000000000711e+01,1.151562500000000533e+01,2.656250000000000888e+00,-1.045312500000000533e+01,-2.351562500000001421e+01,-2.654687500000001421e+01,-2.576562500000001421e+01,-2.000000000000001421e+01,-1.093750000000000711e+01,-8.515625000000007105e+00,-7.687500000000004441e+00,-8.343750000000003553e+00,-1.014062500000000533e+01,-8.218750000000003553e+00,-5.250000000000003553e+00,-2.781250000000001776e+00,-7.187500000000003331e-01,-3.125000000000002082e-02,-7.812500000000005551e-02,-1.734375000000001332e+00,-3.406250000000002665e+00,-5.968750000000003553e+00,-9.593750000000007105e+00,-6.593750000000003553e+00,-3.625000000000001776e+00,-3.125000000000000000e-02,6.343750000000003553e+00,1.328125000000000444e+00,-4.703125000000003553e+00,-5.703125000000003553e+00,-1.135937500000000711e+01,-6.453125000000004441e+00,2.671875000000001776e+00,1.875000000000002220e-01,6.984375000000005329e+00,7.984375000000005329e+00,-1.656250000000001110e+00,-1.000000000000000444e+00,-1.382812500000001066e+01,-2.623437500000001776e+01,-2.212500000000001421e+01,-2.204687500000001421e+01,-1.070312500000000711e+01,5.906250000000003553e+00,9.671875000000005329e+00,1.721875000000001066e+01,2.231250000000001421e+01,2.142187500000001421e+01,2.728125000000001421e+01,2.540625000000001421e+01,1.762500000000001066e+01,1.195312500000000711e+01,-1.312500000000000000e+00,-7.671875000000003553e+00,-8.828125000000005329e+00,-1.131250000000000711e+01,-6.625000000000003553e+00,-5.640625000000003553e+00,-3.312500000000001776e+00,1.671875000000001554e+00,3.796875000000002665e+00,8.921875000000007105e+00,9.187500000000007105e+00,5.765625000000003553e+00,2.156250000000001332e+00,-4.328125000000003553e+00,-7.171875000000005329e+00,-6.203125000000004441e+00,-4.281250000000002665e+00,-2.062500000000001332e+00,-1.765625000000000888e+00,-2.843750000000001776e+00,-3.812500000000002665e+00,-3.281250000000002220e-01,6.593750000000004441e+00,1.445312500000001066e+01,2.081250000000001421e+01,2.020312500000001066e+01,1.465625000000000711e+01,5.296875000000002665e+00,-2.093750000000000888e+00,-5.640625000000003553e+00,-5.343750000000003553e+00,-2.515625000000001776e+00,-1.828125000000001776e+00,-4.687500000000006661e-01,-2.796875000000002665e+00,-2.765625000000002665e+00,-8.750000000000002220e-01,-1.203125000000000444e+00,2.031250000000003886e-01,-4.812500000000002665e+00,-1.578125000000001066e+01,-2.884375000000001776e+01,-4.134375000000002842e+01,-4.992187500000004263e+01,-4.889062500000003553e+01,-4.190625000000002842e+01,-3.556250000000002132e+01,-2.537500000000001421e+01,-1.589062500000000888e+01,-5.843750000000003553e+00,8.375000000000005329e+00,2.093750000000001421e+01,2.635937500000001776e+01,2.704687500000002132e+01,2.523437500000001421e+01,2.093750000000001066e+01,2.257812500000001421e+01,2.642187500000001421e+01,2.687500000000002132e+01,2.598437500000002132e+01,2.060937500000001421e+01,1.289062500000000711e+01,6.953125000000003553e+00,2.875000000000001776e+00,7.812500000000004441e-01,3.281250000000002220e-01,3.125000000000002220e-01,2.968750000000002220e-01,2.812500000000001665e-01,1.093750000000000694e-01,0.000000000000000000e+00,-1.093750000000000833e-01,7.015625000000005329e+00,2.132812500000001421e+01,4.360937500000002842e+01,7.309375000000004263e+01,8.218750000000005684e+01,7.051562500000004263e+01,3.404687500000002132e+01
-5.000000000000002842e+01,-8.337500000000004263e+01,-3.118750000000001421e+01,-5.375000000000002665e+00,-8.562500000000003553e+00,5.250000000000001776e+00,1.362500000000000533e+01,-2.812500000000001776e+00,-1.012500000000000533e+01,-4.687500000000001776e+00,-2.500000000000002220e-01,1.375000000000000666e+00,-5.187500000000001776e+00,-4.125000000000001776e+00,2.562500000000000888e+00,3.312500000000001776e+00,8.125000000000003553e+00,1.875000000000008882e-01,-1.200000000000000533e+01,1.875000000000000888e+00,7.937500000000003553e+00,-3.625000000000001776e+00,1.000000000000000000e+00,5.375000000000001776e+00,2.062500000000000888e+00,4.562500000000001776e+00,-5.312500000000001776e+00,-1.556250000000000711e+01,-2.812500000000001776e+00,9.937500000000003553e+00,7.875000000000002665e+00,-1.312500000000000888e+00,-5.750000000000002665e+00,3.000000000000001776e+00,6.375000000000003553e+00,-6.875000000000006661e-01,-4.000000000000001776e+00,-2.750000000000000888e+00,4.687500000000001776e+00,5.750000000000001776e+00,-3.125000000000001776e+00,-3.625000000000001776e+00,-4.750000000000001776e+00,-8.750000000000003553e+00,1.500000000000000000e+00,8.500000000000003553e+00,2.687500000000001332e+00,-1.875000000000000888e+00,-6.375000000000002665e+00,-1.187500000000000000e+00,4.562500000000002665e+00,-3.375000000000000888e+00,-1.062500000000000444e+00,4.750000000000001776e+00,-2.500000000000004441e-01,-4.250000000000001776e+00,-7.062500000000003553e+00,-1.812500000000000444e+00,1.075000000000000533e+01,6.375000000000002665e+00,-1.156250000000000355e+01,-9.937500000000003553e+00,8.000000000000003553e+00,1.093750000000000355e+01,3.937500000000001332e+00,5.437500000000001776e+00,6.875000000000000000e-01,-1.268750000000000533e+01,-6.500000000000002665e+00,7.437500000000002665e+00,4.250000000000001776e+00,3.250000000000001776e+00,4.125000000000001776e+00,-7.875000000000003553e+00,-8.812500000000003553e+00,3.312500000000001332e+00,5.500000000000002665e+00,1.562500000000000666e+00,-1.750000000000000888e+00,-6.875000000000002665e+00,-6.500000000000002665e+00,7.937500000000002665e+00,1.343750000000000533e+01,-2.687500000000001776e+00,-7.187500000000003553e+00,-1.437500000000000444e+00,-5.062500000000001776e+00,2.312500000000001776e+00,1.087500000000000533e+01,-1.312500000000000888e+00,-5.250000000000002665e+00,5.250000000000001776e+00,1.875000000000000444e+00,-1.043750000000000533e+01,-8.750000000000003553e+00,4.187500000000001776e+00,8.312500000000003553e+00,4.750000000000001776e+00,4.312500000000001776e+00,1.500000000000000888e+00,-6.500000000000003553e+00,-4.687500000000001776e+00,6.937500000000003553e+00,2.562500000000001776e+00,-5.937500000000003553e+00,1.375000000000000444e+00,-1.500000000000000000e+00,-7.875000000000002665e+00,5.125000000000002665e+00,6.062500000000002665e+00,-5.375000000000002665e+00,3.187500000000001776e+00,4.937500000000002665e+00,-1.025000000000000355e+01,-5.375000000000001776e+00,1.031250000000000533e+01,9.062500000000003553e+00,-3.750000000000001776e+00,-7.312500000000003553e+00,2.187500000000000888e+00,-3.125000000000000000e-01,-7.562500000000003553e+00,5.125000000000001776e+00,9.437500000000003553e+00,-6.875000000000003553e+00,-7.687500000000003553e+00,8.125000000000003553e+00,1.350000000000000711e+01,4.312500000000002665e+00,-1.081250000000000533e+01,-1.568750000000000888e+01,6.250000000000000000e-01,1.325000000000000711e+01,2.562500000000001776e+00,-8.000000000000003553e+00,-6.625000000000002665e+00,-4.375000000000000000e-01,1.050000000000000355e+01,1.106250000000000533e+01,-6.125000000000001776e+00,-1.743750000000000711e+01,-5.562500000000001776e+00,1.106250000000000533e+01,7.500000000000003553e+00,-2.125000000000001332e+00,2.437500000000000888e+00,8.562500000000003553e+00,9.375000000000000000e-01,-1.356250000000000533e+01,-1.162500000000000355e+01,6.000000000000002665e+00,8.687500000000003553e+00,4.374999999999997780e-01,1.937500000000000666e+00,-6.875000000000004441e-01,-1.025000000000000533e+01,-6.937500000000003553e+00,4.312500000000001776e+00,7.062500000000003553e+00,2.687500000000001332e+00,1.750000000000000888e+00,2.562500000000001332e+00,-7.250000000000003553e+00,-1.037500000000000355e+01,6.812500000000002665e+00,8.312500000000003553e+00,-7.125000000000003553e+00,-1.687500000000001776e+00,6.937500000000002665e+00,-3.125000000000001776e+00,-6.687500000000003553e+00,5.625000000000004441e-01,3.000000000000001332e+00,2.750000000000001332e+00,2.000000000000000888e+00,-2.750000000000001776e+00,-3.312500000000001776e+00,4.500000000000001776e+00,2.812500000000000888e+00,-7.562500000000003553e+00,-5.187500000000002665e+00,5.062500000000001776e+00,6.375000000000002665e+00,4.625000000000001776e+00,2.687500000000001332e+00,-6.687500000000003553e+00,-8.500000000000003553e+00,1.187500000000000444e+00,6.562500000000003553e+00,4.875000000000002665e+00,-3.312500000000000888e+00,-1.006250000000000355e+01,-1.375000000000000888e+00,1.362500000000000711e+01,7.812500000000004441e+00,-1.056250000000000355e+01,-8.687500000000003553e+00,2.875000000000000888e+00,2.812500000000000888e+00,-1.000000000000000444e+00,-2.250000000000000888e+00,2.937500000000001332e+00,6.562500000000002665e+00,-1.875000000000000888e+00,-7.875000000000003553e+00,-7.250000000000003553e+00,-1.875000000000000000e-01,1.018750000000000533e+01,1.125000000000001776e+00,-8.937500000000003553e+00,5.562500000000001776e+00,1.087500000000000355e+01,-4.375000000000002665e+00,-6.312500000000003553e+00,3.562500000000001776e+00,-7.500000000000000000e-01,-7.937500000000003553e+00,1.187500000000000888e+00,6.000000000000003553e+00,1.375000000000000444e+00,3.250000000000001776e+00,6.875000000000008882e-01,-2.187500000000000888e+00,-1.062500000000000666e+00,-5.062500000000002665e+00,-1.875000000000000000e-01,6.500000000000003553e+00,4.437500000000001776e+00,1.125000000000000666e+00,-7.875000000000003553e+00,-8.687500000000003553e+00,4.750000000000003553e+00,8.937500000000003553e+00,1.250000000000000000e-01,-1.875000000000000222e+00,3.250000000000001776e+00,-5.812500000000002665e+00,-1.125000000000000533e+01,4.375000000000001776e+00,7.500000000000003553e+00,1.250000000000000278e-01,4.687500000000001776e+00,3.062500000000000888e+00,-6.000000000000002665e+00,-9.250000000000003553e+00,-4.562500000000001776e+00,5.500000000000001776e+00,2.000000000000000000e+00,-4.437500000000001776e+00,6.750000000000003553e+00,8.750000000000003553e+00,-5.625000000000003553e+00,-1.031250000000000533e+01,-3.187500000000001776e+00,4.375000000000000555e-01,1.875000000000002776e-01,3.750000000000002220e+00,4.125000000000001776e+00,5.062500000000001776e+00,5.562500000000002665e+00,-9.812500000000005329e+00,-1.531250000000000711e+01,6.687500000000003553e+00,1.500000000000000711e+01,-1.687500000000000888e+00,-6.625000000000003553e+00,-2.437500000000001332e+00,-1.062500000000000666e+00,8.687500000000003553e+00,9.125000000000003553e+00,-1.562500000000000222e+00,-4.062500000000001776e+00,-6.875000000000002220e-01,8.500000000000003553e+00,7.812500000000003553e+00,-7.000000000000003553e+00,-6.062500000000003553e+00,4.062500000000001776e+00,-1.437500000000000000e+00,-7.187500000000003553e+00,1.937500000000000444e+00,9.875000000000003553e+00,8.375000000000003553e+00,7.062500000000002665e+00,2.187499999999999556e+00,-1.225000000000000533e+01,-1.331250000000000355e+01,1.100000000000000711e+01,2.400000000000001421e+01,3.875000000000001776e+00,-1.325000000000000711e+01,-9.687500000000005329e+00,-9.312500000000005329e+00,-1.043750000000000533e+01,-4.000000000000001776e+00,-1.250000000000000555e-01,-6.250000000000002776e-02,-6.250000000000002776e-02,-1.250000000000000555e-01,6.250000000000002776e-02,2.500000000000001110e-01,6.250000000000002776e-02,-6.250000000000002776e-02,6.250000000000002776e-02,-6.250000000000002776e-02,-1.875000000000000833e-01,6.250000000000002776e-02,6.250000000000002776e-02,-1.875000000000000833e-01,-6.250000000000002776e-02,1.250000000000000555e-01,6.250000000000002776e-02,6.250000000000002776e-02,1.250000000000000555e-01,-6.250000000000002776e-02,-2.500000000000001110e-01,0.000000000000000000e+00,3.125000000000001665e-01,1.250000000000000833e-01,-2.500000000000001110e-01,-2.500000000000001110e-01,-1.250000000000000555e-01,0.000000000000000000e+00,2.500000000000001110e-01,2.500000000000001110e-01,6.250000000000002776e-02,-1.250000000000000555e-01,-2.500000000000001110e-01,0.000000000000000000e+00,2.500000000000001110e-01,0.000000000000000000e+00,-2.500000000000001110e-01,0.000000000000000000e+00,2.500000000000001110e-01,0.000000000000000000e+00,-2.500000000000001110e-01,0.000000000000000000e+00,2.500000000000001110e-01,6.250000000000002776e-02,-1.875000000000000833e-01,-2.500000000000001110e-01,-6.250000000000002776e-02,2.500000000000001110e-01,1.875000000000001110e-01,0.000000000000000000e+00,6.250000000000002776e-02,-2.625000000000000888e+00,-1.193750000000000355e+01,-1.781250000000000711e+01,-5.000000000000001776e+00,1.125000000000000355e+01,5.625000000000001776e+00,-8.000000000000003553e+00,-6.250000000000001776e+00,3.125000000000000888e+00,1.037500000000000355e+01,1.250000000000000711e+01,1.625000000000000888e+00,-1.112500000000000533e+01,-8.812500000000005329e+00,4.500000000000001776e+00,1.106250000000000711e+01,9.375000000000017764e-01,-6.812500000000001776e+00,-1.250000000000000444e+00,6.249999999999911182e-02,-2.625000000000001776e+00,-2.499999999999991118e-01,-1.562500000000000222e+00,-4.187500000000002665e+00,-3.750000000000011102e-01,5.937500000000002665e+00,9.187500000000005329e+00,2.250000000000001776e+00,-6.062500000000001776e+00,-3.125000000000001332e+00,3.000000000000000888e+00,3.562500000000000888e+00,4.250000000000001776e+00,6.562500000000003553e+00,1.250000000000004441e-01,-6.312500000000002665e+00,-3.812500000000001776e+00,1.125000000000000222e+00,8.187500000000003553e+00,3.125000000000001776e+00,-1.443750000000000533e+01,-1.593750000000000533e+01,-3.750000000000000000e-01,1.418750000000000533e+01,1.581250000000000533e+01,-3.125000000000017764e-01,-1.512500000000000711e+01,-7.875000000000003553e+00,9.750000000000003553e+00,9.875000000000003553e+00,-4.000000000000000888e+00,-5.937500000000002665e+00,3.062500000000000888e+00,1.206250000000000533e+01,8.437500000000003553e+00,-7.437500000000003553e+00,-5.562500000000002665e+00,1.875000000000000888e+00,-7.312500000000003553e+00,-5.437500000000002665e+00,1.231250000000000355e+01,1.593750000000000533e+01,-3.375000000000001776e+00,-1.212500000000000533e+01,2.750000000000001776e+00,2.187500000000001776e+00,-7.062500000000003553e+00,2.062500000000001332e+00,4.312500000000001776e+00,3.125000000000002220e-01,4.125000000000002665e+00,-5.187500000000001776e+00,-1.475000000000000711e+01,-2.500000000000008882e-01,1.437500000000000711e+01,5.062500000000001776e+00,-7.375000000000003553e+00,7.500000000000008882e-01,4.312500000000001776e+00,-8.875000000000003553e+00,-7.750000000000003553e+00,6.125000000000001776e+00,8.812500000000003553e+00,3.687500000000002220e+00,-3.687500000000001332e+00,-8.250000000000003553e+00,2.625000000000001776e+00,1.137500000000000533e+01,1.437500000000000000e+00,-8.875000000000003553e+00,-7.875000000000002665e+00,2.312500000000000888e+00,5.312500000000001776e+00,-6.125000000000003553e+00,-5.375000000000002665e+00,9.812500000000003553e+00,1.075000000000000355e+01,-3.312500000000001776e+00,-5.750000000000002665e+00,3.437500000000001776e+00,3.750000000000000000e-01,-3.062500000000001776e+00,8.125000000000002220e-01,-7.250000000000003553e+00,-9.687500000000003553e+00,3.812500000000000888e+00,9.937500000000003553e+00,3.687500000000001776e+00,-5.625000000000002665e+00,-4.875000000000002665e+00,5.000000000000005551e-01,-5.625000000000000000e-01,7.125000000000002665e+00,1.043750000000000533e+01,-3.375000000000000444e+00,-3.125000000000000444e+00,3.937500000000001776e+00,1.250000000000000666e+00,3.375000000000001776e+00,-2.812500000000001776e+00,-9.937500000000005329e+00,4.250000000000001776e+00,1.100000000000000533e+01,7.312500000000003553e+00,1.037500000000000355e+01,-2.937500000000000888e+00,-1.693750000000000711e+01,-2.812500000000001776e+00,4.187500000000001776e+00,-2.437500000000000888e+00,4.437500000000003553e+00,3.500000000000002220e+00,-6.250000000000003553e+00,1.687500000000000888e+00,1.312500000000000888e+00,-1.481250000000000711e+01,-6.125000000000003553e+00,1.137500000000000533e+01,3.750000000000000000e-01,-7.375000000000003553e+00,8.000000000000003553e+00,1.068750000000000355e+01,-4.187500000000001776e+00,-1.062500000000000355e+01,-3.250000000000000888e+00,5.437500000000002665e+00,2.625000000000000888e+00,-6.250000000000003553e+00,-4.375000000000002665e+00,2.220446049250313081e-16,-6.375000000000001776e+00,-3.750000000000000888e+00,1.012500000000000355e+01,1.143750000000000533e+01,-5.000000000000000000e-01,-1.218750000000000533e+01,-7.937500000000003553e+00,1.137500000000000533e+01,1.468750000000000711e+01,-6.812500000000003553e+00,-1.743750000000000711e+01,-1.625000000000001776e+00,1.081250000000000355e+01,4.375000000000001776e+00,1.187500000000000888e+00,3.812500000000001776e+00,-7.312500000000002665e+00,-1.312500000000000533e+01,1.375000000000000000e+00,7.937500000000002665e+00,5.437500000000002665e+00,6.625000000000003553e+00,-4.187500000000001776e+00,-1.475000000000000711e+01,6.250000000000000000e-01,1.631250000000000711e+01,2.187500000000000000e+00,-1.537500000000000711e+01,-4.750000000000001776e+00,1.281250000000000533e+01,1.137500000000000533e+01,-5.625000000000004441e-01,-1.087500000000000533e+01,-1.437500000000000711e+01,-4.562500000000001776e+00,1.275000000000000533e+01,1.375000000000000533e+01,-6.250000000000001776e+00,-1.393750000000000533e+01,8.750000000000000000e-01,9.312500000000003553e+00,5.062500000000002665e+00,-1.250000000000000222e+00,-3.750000000000001776e+00,-3.125000000000001332e+00,-5.250000000000002665e+00,1.187500000000000000e+00,1.293750000000000533e+01,7.437500000000003553e+00,-7.937500000000003553e+00,-9.187500000000003553e+00,4.062500000000002665e+00,5.312500000000003553e+00,-8.812500000000003553e+00,-3.812500000000001776e+00,1.337500000000000533e+01,3.125000000000000000e+00,-1.312500000000000711e+01,-8.125000000000000000e-01,1.075000000000000533e+01,9.375000000000000000e-01,-9.562500000000005329e+00,-7.750000000000004441e+00,5.187500000000002665e+00,9.187500000000003553e+00,1.875000000000000888e+00,-5.000000000000002220e-01,-4.687500000000001776e+00,-2.375000000000000888e+00,5.937500000000002665e+00,-3.562500000000001776e+00,-1.343750000000000711e+01,1.187500000000000888e+00,1.475000000000000711e+01,5.000000000000000000e-01,-8.812500000000003553e+00,4.937500000000002665e+00,4.562500000000002665e+00,-5.625000000000001776e+00,-4.250000000000001776e+00,-2.500000000000000000e-01,8.125000000000003553e+00,5.125000000000002665e+00,-1.187500000000000355e+01,-3.687500000000000888e+00,1.431250000000000711e+01,5.625000000000000000e-01,-1.262500000000000533e+01,2.312500000000001776e+00,7.812500000000003553e+00,-2.062500000000000444e+00,-4.812500000000001776e+00,-3.750000000000001776e+00,2.375000000000000888e+00,9.687500000000003553e+00,7.312500000000003553e+00,-2.125000000000000888e+00,-5.187500000000002665e+00,-8.125000000000004441e-01,-5.062500000000002665e+00,-4.312500000000001776e+00,6.500000000000003553e+00,3.812500000000001776e+00,-1.125000000000000666e+00,1.937500000000000888e+00,-1.625000000000000888e+00,-8.375000000000003553e+00,-1.750000000000000888e+00,1.206250000000000533e+01,5.937500000000002665e+00,-1.168750000000000355e+01,-8.875000000000003553e+00,6.937500000000003553e+00,8.062500000000003553e+00,-6.437500000000003553e+00,-1.437500000000000711e+01,-4.500000000000001776e+00,1.168750000000000355e+01,1.393750000000000533e+01,-2.000000000000001776e+00,-9.375000000000003553e+00,2.812500000000000888e+00,7.125000000000002665e+00,-2.125000000000000888e+00,-9.437500000000003553e+00,-6.000000000000001776e+00,1.037500000000000355e+01,1.181250000000000355e+01,-9.187500000000003553e+00,-1.168750000000000355e+01,2.562500000000000888e+00,-1.875000000000000000e-01,-2.187500000000000888e+00,8.500000000000003553e+00,2.625000000000001776e+00,-6.937500000000003553e+00,-4.375000000000000000e-01,1.062500000000000888e+00,2.312500000000001332e+00,8.062500000000003553e+00,1.000000000000000000e+00,-1.043750000000000533e+01,-1.068750000000000533e+01,-2.500000000000000000e-01,6.375000000000002665e+00,5.250000000000001776e+00,5.937500000000002665e+00,-1.187500000000000000e+00,-8.500000000000003553e+00,2.187500000000000888e+00,1.068750000000000533e+01,8.875000000000005329e+00,5.062500000000002665e+00,-3.250000000000002665e+00,-7.750000000000004441e+00,-3.125000000000001776e+00,7.187500000000003553e+00,1.343750000000000711e+01,1.062500000000000355e+01,7.437500000000003553e+00,-3.000000000000000000e+00,-1.975000000000001066e+01,-1.468750000000000711e+01,6.500000000000003553e+00,7.625000000000003553e+00,-8.812500000000003553e+00,-1.437500000000000711e+01,-1.375000000000000888e+00,1.387500000000000533e+01,1.168750000000000355e+01,-4.375000000000002665e+00,-8.937500000000003553e+00,2.937500000000000888e+00,7.437500000000002665e+00,1.750000000000000888e+00,3.750000000000001110e-01,4.250000000000001776e+00,6.875000000000003553e+00,-1.187500000000000000e+00,-1.337500000000000533e+01,-7.312500000000003553e+00,7.250000000000002665e+00,1.125000000000000888e+00,-6.750000000000003553e+00,6.750000000000001776e+00,1.031250000000000355e+01,-7.312500000000003553e+00,-1.450000000000000533e+01,-6.437500000000001776e+00,-7.500000000000004441e-01,6.250000000000002776e-02,1.875000000000000833e-01,6.250000000000002776e-02,-3.750000000000002220e-01,-4.375000000000002220e-01,1.250000000000000555e-01,4.375000000000002220e-01,6.250000000000005551e-02,-2.500000000000001110e-01,-6.250000000000002776e-02,1.250000000000000555e-01,1.250000000000000555e-01,1.250000000000000555e-01,0.000000000000000000e+00,-1.250000000000000555e-01,-6.250000000000002776e-02,0.000000000000000000e+00,6.250000000000002776e-02,1.250000000000000555e-01,-1.250000000000000833e-01,-3.750000000000002220e-01,6.250000000000000000e-02,5.000000000000002220e-01,6.250000000000000000e-02,-3.125000000000001665e-01,-6.250000000000002776e-02,-1.250000000000000833e-01,-2.500000000000001110e-01,3.125000000000002220e-01,5.000000000000002220e-01,-1.875000000000001110e-01,-3.125000000000001665e-01,3.125000000000001665e-01,2.500000000000001110e-01,-4.375000000000002220e-01,-5.000000000000002220e-01,1.875000000000001110e-01,5.625000000000002220e-01,6.250000000000000000e-02,-3.750000000000002220e-01,-1.250000000000000833e-01,1.250000000000000555e-01,1.250000000000000555e-01,1.250000000000000555e-01,-5.875000000000001776e+00,-1.393750000000000533e+01,-4.125000000000001776e+00,7.250000000000003553e+00,2.125000000000000888e+00,5.125000000000002665e+00,6.375000000000003553e+00,-1.318750000000000533e+01,-2.825000000000001421e+01,-2.125000000000001066e+01,8.812500000000003553e+00,3.712500000000001421e+01,2.162500000000000711e+01,-6.937500000000003553e+00,-2.875000000000001776e+00,-3.062500000000001776e+00,-1.106250000000000533e+01,5.000000000000001776e+00,1.087500000000000355e+01,-9.125000000000003553e+00,-1.906250000000000711e+01,-7.750000000000001776e+00,1.181250000000000355e+01,2.537500000000001066e+01,1.300000000000000711e+01,-1.375000000000000711e+01,-1.212500000000000711e+01,2.437500000000001332e+00,-4.812500000000001776e+00,-9.812500000000005329e+00,-3.375000000000001332e+00,3.875000000000001776e+00,1.262500000000000533e+01,8.312500000000003553e+00,-1.500000000000000666e+00,-4.125000000000000888e+00,-6.500000000000002665e+00,-2.625000000000001776e+00,8.750000000000001110e-01,-1.875000000000000555e-01,8.500000000000003553e+00,1.237500000000000533e+01,2.500000000000000000e-01,-5.875000000000002665e+00,-4.750000000000001776e+00,-3.375000000000000888e+00,8.625000000000003553e+00,1.481250000000000533e+01,-4.687500000000003553e+00,-2.412500000000001066e+01,-1.037500000000000355e+01,1.787500000000001066e+01,1.712500000000000711e+01,1.249999999999995559e-01,-4.312500000000001776e+00,-2.375000000000000888e+00,2.875000000000001776e+00,-1.062500000000000000e+00,-9.500000000000003553e+00,-5.625000000000000000e-01,4.250000000000000888e+00,-1.375000000000001110e+00,-2.062500000000000888e+00,-2.312500000000000888e+00,6.937500000000002665e+00,1.662500000000000711e+01,6.250000000000000000e-01,-1.456250000000000711e+01,-5.000000000000000000e-01,9.437500000000003553e+00,-2.812500000000001776e+00,-5.562500000000002665e+00,8.125000000000004441e-01,1.125000000000000444e+00,5.125000000000001776e+00,1.875000000000000444e+00,-6.000000000000003553e+00,2.500000000000000000e-01,2.437500000000001332e+00,-1.062500000000000444e+00,-1.187500000000000666e+00,-7.937500000000004441e+00,-2.937500000000001776e+00,1.393750000000000533e+01,9.062500000000003553e+00,-4.250000000000001776e+00,5.000000000000004441e-01,2.875000000000001332e+00,-6.250000000000001776e+00,-2.937500000000000444e+00,8.187500000000003553e+00,3.312500000000000444e+00,-1.143750000000000533e+01,-1.250000000000000533e+01,2.000000000000000888e+00,1.168750000000000711e+01,2.937500000000001776e+00,-9.625000000000005329e+00,-2.562500000000001776e+00,6.125000000000002665e+00,-8.125000000000008882e-01,5.000000000000000000e-01,4.687500000000001776e+00,-2.812500000000001332e+00,-4.375000000000001776e+00,-4.687500000000001776e+00,-1.031250000000000533e+01,-1.250000000000008882e-01,2.050000000000001066e+01,1.675000000000000711e+01,-9.250000000000003553e+00,-1.843750000000000711e+01,-6.250000000000000000e-02,1.606250000000000711e+01,3.375000000000000888e+00,-1.412500000000000711e+01,-3.187500000000001776e+00,7.625000000000002665e+00,-8.750000000000004441e-01,4.375000000000004441e-01,5.687500000000002665e+00,-2.812500000000000888e+00,1.687500000000001776e+00,2.268750000000001066e+01,1.431250000000000533e+01,-1.656250000000000711e+01,-1.137500000000000533e+01,9.562500000000005329e+00,3.062500000000001776e+00,1.625000000000000888e+00,8.625000000000003553e+00,1.874999999999991118e-01,-1.875000000000000000e-01,-6.249999999999911182e-02,-1.112500000000000711e+01,-2.875000000000002665e+00,4.562500000000001776e+00,-7.500000000000003553e+00,3.124999999999991118e-01,2.100000000000001066e+01,1.481250000000000888e+01,-5.312500000000001776e+00,-1.068750000000000711e+01,-2.625000000000002665e+00,-5.875000000000003553e+00,-2.350000000000001066e+01,-1.375000000000000711e+01,1.593750000000000711e+01,1.200000000000000711e+01,-1.000000000000000355e+01,-1.131250000000000355e+01,-2.750000000000000888e+00,6.250000000000002776e-02,0.000000000000000000e+00,0.000000000000000000e+00,0.000000000000000000e+00,0.000000000000000000e+00,0.000000000000000000e+00,-6.250000000000002776e-02,-1.250000000000000555e-01,6.250000000000002776e-02,1.875000000000000833e-01,-6.812500000000003553e+00,-1.362500000000000711e+01,3.250000000000001776e+00,1.550000000000000711e+01,1.312500000000000888e+00,4.625000000000001776e+00,2.312500000000000000e+00,-3.181250000000001776e+01,-1.800000000000001066e+01,3.231250000000001421e+01,2.681250000000001421e+01,-1.781250000000001066e+01,-3.562500000000001421e+01,1.068750000000000711e+01,5.206250000000002842e+01,-5.375000000000000000e+00,-5.181250000000002132e+01,-1.031250000000000178e+01,6.562500000000002665e+00,-6.750000000000003553e+00,7.062500000000003553e+00,1.118750000000000533e+01,-6.250000000000008882e-01,-4.375000000000000000e-01,9.312500000000005329e+00,1.062500000000000533e+01,5.625000000000000000e-01,1.137500000000000533e+01,2.300000000000001066e+01,-9.562500000000007105e+00,-3.037500000000001421e+01,-1.562500000000000000e+00,1.975000000000000711e+01,2.250000000000000000e+00,-2.000000000000001066e+01,-8.062500000000005329e+00,1.475000000000000533e+01,8.062500000000003553e+00,-1.018750000000000355e+01,-4.562500000000001776e+00,1.918750000000000711e+01,1.506250000000000711e+01,-1.893750000000000711e+01,-2.031250000000000711e+01,9.687500000000003553e+00,9.687500000000003553e+00,-9.000000000000003553e+00,-1.250000000000000888e+00,9.625000000000003553e+00,-4.062500000000001776e+00,-1.256250000000000533e+01,-1.750000000000000888e+00,7.437500000000002665e+00,1.143750000000000533e+01,1.481250000000000711e+01,8.625000000000003553e+00,-5.437500000000003553e+00,-8.812500000000003553e+00,-3.500000000000000888e+00,-1.875000000000000444e+00,1.125000000000000666e+00,6.062500000000001776e+00,8.749999999999995559e-01,-7.750000000000003553e+00,-8.750000000000000000e-01,3.625000000000001776e+00,-4.625000000000001776e+00,-1.562500000000000444e+00,8.062500000000003553e+00,5.937500000000001776e+00,-6.687500000000003553e+00,-2.031250000000001066e+01,-2.150000000000001066e+01,-1.487500000000000711e+01,-1.687500000000000711e+01,-6.187500000000000888e+00,1.550000000000000711e+01,-6.250000000000007105e+00,-3.568750000000002132e+01,-3.125000000000000000e-01,3.725000000000002132e+01,1.481250000000000711e+01,-3.375000000000002665e+00,7.312500000000003553e+00,1.000000000000000888e+00,-5.187500000000002665e+00,1.112500000000000533e+01,1.887500000000000711e+01,9.500000000000003553e+00,1.875000000000000888e+00,3.125000000000001110e-01,1.875000000000000833e-01,1.875000000000000833e-01,1.250000000000000555e-01,-1.875000000000001110e-01,-1.875000000000001110e-01,3.750000000000002220e-01,5.000000000000002220e-01,-1.250000000000000555e-01,-3.125000000000001110e-01,0.000000000000000000e+00,0.000000000000000000e+00,-1.250000000000000555e-01,6.250000000000002776e-02,1.875000000000000833e-01,2.856250000000001421e+01,8.543750000000004263e+01,6.012500000000002842e+01
-1.157500000000000284e+02,1.625000000000000355e+01,-2.875000000000000711e+01,3.250000000000000711e+01,-3.150000000000000711e+01,8.250000000000003553e+00,2.050000000000000355e+01,-1.700000000000000355e+01,-2.000000000000000888e+00,8.500000000000001776e+00,-1.500000000000000355e+01,1.525000000000000355e+01,-4.000000000000000000e+00,-1.850000000000000355e+01,3.125000000000000711e+01,-2.975000000000000711e+01,1.975000000000000355e+01,6.250000000000000888e+00,-2.325000000000000711e+01,7.000000000000002665e+00,1.875000000000000355e+01,-2.275000000000000711e+01,5.500000000000000888e+00,1.800000000000000355e+01,-2.875000000000000711e+01,2.925000000000000711e+01,-1.375000000000000355e+01,-5.250000000000000888e+00,-6.000000000000000888e+00,1.900000000000000355e+01,-1.650000000000000355e+01,2.100000000000000711e+01,-2.350000000000000711e+01,9.750000000000001776e+00,1.150000000000000178e+01,-1.950000000000000355e+01,1.900000000000000355e+01,-1.750000000000000355e+01,6.500000000000001776e+00,1.150000000000000178e+01,-1.525000000000000355e+01,6.500000000000001776e+00,5.000000000000000000e-01,-6.000000000000001776e+00,-8.750000000000003553e+00,2.750000000000000711e+01,-2.800000000000000711e+01,2.200000000000000711e+01,-1.050000000000000178e+01,-1.300000000000000355e+01,2.950000000000000711e+01,-2.475000000000000711e+01,2.750000000000000000e+00,1.900000000000000711e+01,-2.725000000000000711e+01,2.775000000000000711e+01,-2.725000000000000711e+01,1.550000000000000355e+01,-1.050000000000000178e+01,2.300000000000000711e+01,-2.075000000000000711e+01,-3.000000000000000000e+00,8.750000000000001776e+00,3.250000000000000888e+00,-7.500000000000002220e-01,-4.750000000000000888e+00,1.750000000000000355e+01,-2.000000000000000711e+01,-2.500000000000000000e+00,1.400000000000000355e+01,-4.500000000000000888e+00,-6.250000000000000888e+00,1.550000000000000355e+01,-7.500000000000001776e+00,-1.700000000000000355e+01,2.575000000000000711e+01,-2.175000000000000355e+01,2.125000000000000355e+01,-1.850000000000000355e+01,1.400000000000000355e+01,-1.525000000000000355e+01,2.250000000000000000e+00,1.900000000000000711e+01,-1.075000000000000355e+01,-1.100000000000000178e+01,1.950000000000000355e+01,-1.675000000000000355e+01,-1.000000000000000000e+00,1.725000000000000355e+01,-6.250000000000000888e+00,-1.425000000000000355e+01,2.125000000000000355e+01,-1.275000000000000178e+01,7.750000000000001776e+00,-1.775000000000000355e+01,1.250000000000000355e+01,3.250000000000000888e+00,-8.000000000000001776e+00,1.350000000000000355e+01,-1.250000000000000355e+01,1.500000000000000355e+01,-2.500000000000000711e+01,2.050000000000000711e+01,1.750000000000000000e+00,-1.725000000000000355e+01,1.175000000000000355e+01,5.250000000000000888e+00,-1.875000000000000355e+01,7.750000000000001776e+00,1.725000000000000355e+01,-2.525000000000000711e+01,9.500000000000001776e+00,1.525000000000000355e+01,-2.150000000000000711e+01,1.500000000000000000e+00,1.150000000000000355e+01,-5.750000000000000888e+00,1.075000000000000178e+01,-1.975000000000000355e+01,1.100000000000000178e+01,8.000000000000001776e+00,-2.100000000000000355e+01,1.050000000000000178e+01,1.075000000000000178e+01,-9.500000000000001776e+00,-9.750000000000001776e+00,1.500000000000000355e+01,-5.000000000000000888e+00,1.100000000000000178e+01,-1.025000000000000178e+01,-2.750000000000000888e+00,-9.750000000000001776e+00,2.275000000000000355e+01,-8.750000000000000000e+00,-6.750000000000001776e+00,8.500000000000001776e+00,-1.325000000000000355e+01,1.125000000000000178e+01,5.500000000000001776e+00,-3.000000000000000888e+00,-8.500000000000001776e+00,-5.750000000000000888e+00,1.075000000000000178e+01,6.250000000000001776e+00,-1.375000000000000355e+01,1.025000000000000178e+01,-2.750000000000000444e+00,8.000000000000001776e+00,-8.500000000000001776e+00,-9.500000000000001776e+00,5.500000000000001776e+00,1.450000000000000178e+01,-2.050000000000000355e+01,1.725000000000000355e+01,-7.750000000000001776e+00,2.750000000000000888e+00,-1.575000000000000355e+01,1.925000000000000711e+01,-1.350000000000000355e+01,1.600000000000000355e+01,-1.600000000000000355e+01,1.350000000000000355e+01,-1.500000000000000888e+00,-1.675000000000000355e+01,9.000000000000001776e+00,1.550000000000000355e+01,-2.025000000000000711e+01,2.000000000000000888e+00,1.400000000000000355e+01,-9.250000000000001776e+00,-7.000000000000001776e+00,1.300000000000000355e+01,-1.375000000000000355e+01,1.650000000000000355e+01,-1.650000000000000355e+01,2.000000000000000711e+01,-2.525000000000000711e+01,1.950000000000000711e+01,-3.250000000000000888e+00,-5.000000000000001776e+00,-2.000000000000000444e+00,1.250000000000000444e+00,9.500000000000001776e+00,-1.225000000000000355e+01,1.450000000000000355e+01,-5.250000000000000888e+00,-1.575000000000000355e+01,2.200000000000000711e+01,-2.100000000000000355e+01,2.500000000000000711e+01,-2.000000000000000711e+01,1.150000000000000355e+01,-1.825000000000000355e+01,1.875000000000000711e+01,3.000000000000000000e+00,-8.500000000000001776e+00,-9.500000000000001776e+00,1.600000000000000355e+01,-1.075000000000000355e+01,5.000000000000000888e+00,1.250000000000000222e+00,-1.200000000000000178e+01,2.225000000000000711e+01,-1.525000000000000355e+01,5.000000000000000000e-01,5.000000000000001776e+00,-1.575000000000000355e+01,1.725000000000000355e+01,4.250000000000000888e+00,-2.175000000000000711e+01,1.275000000000000355e+01,9.500000000000001776e+00,-9.500000000000001776e+00,-4.750000000000000888e+00,7.750000000000001776e+00,7.500000000000004441e-01,-6.750000000000001776e+00,-6.750000000000000888e+00,2.500000000000000711e+01,-2.850000000000000711e+01,2.175000000000000711e+01,-3.750000000000000888e+00,-1.350000000000000355e+01,2.075000000000000355e+01,-1.750000000000000355e+01,-1.000000000000000888e+00,1.925000000000000711e+01,-2.250000000000000711e+01,2.200000000000000711e+01,-1.125000000000000355e+01,-1.175000000000000178e+01,1.750000000000000355e+01,-1.125000000000000355e+01,1.725000000000000355e+01,-2.400000000000000711e+01,2.050000000000000355e+01,-3.250000000000000888e+00,-1.825000000000000355e+01,1.125000000000000355e+01,1.200000000000000178e+01,-2.175000000000000355e+01,1.825000000000000355e+01,-1.250000000000000000e+00,-1.075000000000000355e+01,1.150000000000000355e+01,-1.875000000000000711e+01,1.325000000000000355e+01,6.000000000000001776e+00,-1.800000000000000355e+01,9.750000000000001776e+00,1.400000000000000355e+01,-2.150000000000000711e+01,1.600000000000000355e+01,-2.325000000000000711e+01,2.775000000000000711e+01,-2.675000000000000711e+01,1.925000000000000355e+01,-3.500000000000000888e+00,-7.250000000000001776e+00,1.625000000000000355e+01,-6.500000000000000888e+00,-1.675000000000000355e+01,9.000000000000003553e+00,1.300000000000000355e+01,-5.750000000000000888e+00,-1.425000000000000355e+01,2.375000000000000711e+01,-2.600000000000000711e+01,1.450000000000000355e+01,1.300000000000000355e+01,-2.400000000000000711e+01,2.250000000000000711e+01,-1.875000000000000711e+01,6.750000000000001776e+00,1.675000000000000355e+01,-2.100000000000000355e+01,6.500000000000001776e+00,-1.750000000000000222e+00,1.100000000000000355e+01,-2.225000000000000711e+01,1.775000000000000355e+01,-8.500000000000001776e+00,1.325000000000000355e+01,-1.125000000000000355e+01,1.525000000000000355e+01,-9.750000000000001776e+00,-1.200000000000000355e+01,7.750000000000001776e+00,1.150000000000000355e+01,9.250000000000000000e+00,-2.900000000000000711e+01,2.225000000000000711e+01,-1.650000000000000355e+01,5.000000000000001110e-01,-2.500000000000000555e-01,0.000000000000000000e+00,0.000000000000000000e+00,0.000000000000000000e+00,0.000000000000000000e+00,-2.500000000000000555e-01,5.000000000000001110e-01,-2.500000000000000555e-01,0.000000000000000000e+00,0.000000000000000000e+00,2.500000000000000555e-01,-5.000000000000001110e-01,2.500000000000000555e-01,2.500000000000000555e-01,-5.000000000000001110e-01,2.500000000000000555e-01,0.000000000000000000e+00,0.000000000000000000e+00,0.000000000000000000e+00,0.000000000000000000e+00,2.500000000000000555e-01,-5.000000000000001110e-01,2.500000000000000555e-01,0.000000000000000000e+00,2.500000000000000555e-01,-2.500000000000000555e-01,-2.500000000000000555e-01,5.000000000000001110e-01,-7.500000000000002220e-01,7.500000000000002220e-01,-2.500000000000000555e-01,0.000000000000000000e+00,2.500000000000000555e-01,-5.000000000000001110e-01,2.500000000000000555e-01,0.000000000000000000e+00,2.500000000000000555e-01,-5.000000000000001110e-01,2.500000000000000555e-01,0.000000000000000000e+00,2.500000000000000555e-01,-5.000000000000001110e-01,2.500000000000000555e-01,0.000000000000000000e+00,2.500000000000000555e-01,-5.000000000000001110e-01,5.000000000000001110e-01,-7.500000000000002220e-01,7.500000000000002220e-01,-2.500000000000000555e-01,0.000000000000000000e+00,0.000000000000000000e+00,2.500000000000000555e-01,-5.000000000000001110e-01,-1.000000000000000178e+01,-5.750000000000001776e+00,1.350000000000000355e+01,1.000000000000000000e+00,-7.000000000000001776e+00,-3.750000000000001776e+00,7.500000000000002665e+00,-5.500000000000000888e+00,1.150000000000000178e+01,2.250000000000000888e+00,-1.350000000000000355e+01,6.500000000000000888e+00,-1.000000000000000355e+01,1.750000000000000355e+01,-4.500000000000000888e+00,-9.250000000000001776e+00,7.750000000000001776e+00,-2.250000000000000444e+00,-1.000000000000000000e+00,-4.000000000000000888e+00,1.275000000000000355e+01,-2.175000000000000355e+01,2.125000000000000355e+01,-1.825000000000000355e+01,1.825000000000000355e+01,-3.000000000000000888e+00,-9.000000000000001776e+00,8.250000000000001776e+00,-9.500000000000001776e+00,1.500000000000000355e+01,-1.500000000000000355e+01,1.400000000000000355e+01,5.000000000000000000e-01,-1.475000000000000355e+01,1.550000000000000355e+01,-1.475000000000000355e+01,9.250000000000001776e+00,8.750000000000001776e+00,-1.425000000000000355e+01,-5.250000000000000000e+00,4.500000000000000000e+00,-2.000000000000000000e+00,1.475000000000000355e+01,-3.000000000000000888e+00,-9.750000000000003553e+00,-1.250000000000000000e+00,2.500000000000000000e-01,1.700000000000000355e+01,-1.575000000000000355e+01,7.500000000000008882e-01,7.250000000000001776e+00,-1.125000000000000178e+01,2.650000000000000711e+01,-2.000000000000000355e+01,-7.500000000000000888e+00,2.550000000000000711e+01,-2.575000000000000711e+01,7.500000000000000888e+00,7.500000000000004441e-01,7.750000000000001776e+00,9.500000000000003553e+00,-3.125000000000000711e+01,2.275000000000000711e+01,2.250000000000000000e+00,-1.900000000000000355e+01,1.150000000000000178e+01,8.000000000000001776e+00,-1.900000000000000355e+01,1.825000000000000355e+01,-1.250000000000000000e+00,-2.000000000000000711e+01,1.275000000000000355e+01,-3.250000000000000888e+00,1.675000000000000355e+01,-2.100000000000000711e+01,4.000000000000000888e+00,1.675000000000000355e+01,-2.075000000000000711e+01,4.750000000000000888e+00,-1.000000000000000000e+00,1.075000000000000355e+01,-1.075000000000000355e+01,1.300000000000000355e+01,-1.475000000000000355e+01,-1.500000000000000000e+00,2.025000000000000711e+01,-1.550000000000000355e+01,6.750000000000001776e+00,-7.750000000000001776e+00,-3.250000000000000888e+00,1.650000000000000355e+01,-1.300000000000000355e+01,-5.000000000000000888e+00,1.075000000000000178e+01,1.000000000000000444e+00,3.750000000000000888e+00,-1.600000000000000355e+01,1.350000000000000355e+01,3.000000000000000888e+00,-1.900000000000000355e+01,2.150000000000000355e+01,-9.750000000000001776e+00,-1.375000000000000355e+01,1.750000000000000355e+01,-8.750000000000001776e+00,1.000000000000000178e+01,-4.000000000000000888e+00,-1.175000000000000178e+01,1.725000000000000355e+01,-1.200000000000000355e+01,-2.500000000000000888e+00,2.250000000000000711e+01,-1.575000000000000355e+01,-8.250000000000001776e+00,2.650000000000000711e+01,-2.850000000000000711e+01,1.950000000000000355e+01,2.500000000000000000e-01,-1.700000000000000355e+01,5.750000000000001776e+00,1.875000000000000355e+01,-2.475000000000000711e+01,2.450000000000000711e+01,-1.000000000000000000e+00,-2.125000000000000711e+01,6.000000000000001776e+00,1.525000000000000355e+01,-2.225000000000000711e+01,1.150000000000000355e+01,1.075000000000000355e+01,-2.050000000000000355e+01,7.750000000000001776e+00,1.250000000000000355e+01,-1.850000000000000355e+01,-6.250000000000000888e+00,1.900000000000000355e+01,-1.500000000000000000e+00,-1.900000000000000355e+01,1.675000000000000355e+01,4.500000000000000888e+00,-9.000000000000001776e+00,3.750000000000000888e+00,-1.250000000000000355e+01,1.650000000000000355e+01,-1.000000000000000178e+01,9.000000000000001776e+00,-1.900000000000000355e+01,2.050000000000000355e+01,-1.150000000000000178e+01,-1.000000000000000355e+01,2.050000000000000711e+01,-1.150000000000000355e+01,1.500000000000000355e+01,-1.725000000000000355e+01,2.500000000000000888e+00,-3.750000000000000888e+00,2.225000000000000711e+01,-1.375000000000000355e+01,-7.250000000000001776e+00,-1.000000000000000000e+00,1.050000000000000355e+01,2.500000000000000000e-01,-9.500000000000001776e+00,1.300000000000000355e+01,-1.750000000000000888e+00,-1.800000000000000355e+01,1.075000000000000355e+01,6.500000000000001776e+00,-1.125000000000000355e+01,1.275000000000000355e+01,1.500000000000000000e+00,-1.750000000000000355e+01,4.500000000000000888e+00,9.250000000000001776e+00,7.000000000000000888e+00,-1.875000000000000355e+01,2.500000000000000000e-01,1.275000000000000355e+01,-3.500000000000000444e+00,6.500000000000001776e+00,-1.075000000000000178e+01,3.000000000000000444e+00,-1.350000000000000355e+01,1.500000000000000355e+01,1.500000000000000444e+00,6.000000000000000888e+00,-2.450000000000000711e+01,1.600000000000000355e+01,1.750000000000000222e+00,-7.500000000000001776e+00,1.725000000000000355e+01,-2.675000000000000711e+01,2.675000000000000711e+01,-2.300000000000000711e+01,8.750000000000001776e+00,1.750000000000000444e+00,1.050000000000000178e+01,-1.275000000000000178e+01,2.000000000000000444e+00,-7.000000000000001776e+00,1.975000000000000711e+01,-1.600000000000000355e+01,-7.250000000000000888e+00,1.775000000000000355e+01,1.500000000000000000e+00,-1.400000000000000355e+01,-4.250000000000000888e+00,2.475000000000000711e+01,-2.225000000000000711e+01,1.450000000000000355e+01,-1.550000000000000355e+01,1.000000000000000000e+00,2.225000000000000711e+01,-2.675000000000000711e+01,2.175000000000000355e+01,-9.000000000000001776e+00,-1.175000000000000178e+01,2.200000000000000355e+01,-1.275000000000000178e+01,-1.250000000000000000e+00,-9.000000000000001776e+00,1.875000000000000355e+01,1.500000000000000000e+00,-2.225000000000000711e+01,1.600000000000000355e+01,9.500000000000001776e+00,-2.675000000000000711e+01,2.650000000000000711e+01,-2.200000000000000355e+01,9.500000000000001776e+00,1.375000000000000355e+01,-1.800000000000000355e+01,-6.000000000000000888e+00,2.000000000000000355e+01,-5.000000000000000000e-01,-1.875000000000000355e+01,6.250000000000000888e+00,1.900000000000000355e+01,-2.875000000000000711e+01,2.600000000000000711e+01,-2.200000000000000711e+01,8.750000000000001776e+00,6.750000000000000888e+00,-8.000000000000001776e+00,1.725000000000000355e+01,-2.750000000000000711e+01,2.325000000000000711e+01,-9.750000000000001776e+00,-1.100000000000000178e+01,1.675000000000000355e+01,-2.500000000000000888e+00,-1.075000000000000355e+01,1.725000000000000355e+01,-1.575000000000000355e+01,1.275000000000000355e+01,-2.125000000000000711e+01,2.075000000000000711e+01,2.250000000000000000e+00,-1.300000000000000355e+01,5.000000000000000000e-01,-5.000000000000000000e-01,1.325000000000000355e+01,-1.125000000000000178e+01,-7.500000000000000000e-01,-7.750000000000001776e+00,9.750000000000001776e+00,3.750000000000000888e+00,5.000000000000000888e+00,-1.800000000000000355e+01,9.250000000000001776e+00,9.750000000000001776e+00,-1.625000000000000355e+01,1.600000000000000355e+01,-2.325000000000000711e+01,1.450000000000000355e+01,9.750000000000001776e+00,-7.500000000000001776e+00,-1.600000000000000355e+01,1.875000000000000355e+01,-5.500000000000000888e+00,-8.750000000000001776e+00,8.250000000000001776e+00,1.400000000000000355e+01,-3.100000000000000711e+01,2.625000000000000711e+01,-1.100000000000000178e+01,-5.250000000000001776e+00,1.725000000000000355e+01,-1.050000000000000178e+01,2.750000000000000888e+00,-7.750000000000001776e+00,-2.500000000000000000e+00,1.325000000000000355e+01,-1.075000000000000355e+01,6.750000000000001776e+00,8.000000000000001776e+00,-1.900000000000000355e+01,7.000000000000000888e+00,1.325000000000000355e+01,-1.825000000000000355e+01,2.725000000000000711e+01,-2.400000000000000355e+01,1.250000000000000355e+01,-9.750000000000001776e+00,1.750000000000000444e+00,1.300000000000000355e+01,-7.250000000000002665e+00,7.500000000000002665e+00,2.250000000000000000e+00,-8.250000000000001776e+00,-1.525000000000000355e+01,1.500000000000000355e+01,3.500000000000000000e+00,-8.750000000000001776e+00,-2.500000000000000000e-01,-1.075000000000000178e+01,1.850000000000000355e+01,-5.250000000000000888e+00,8.750000000000003553e+00,-2.000000000000000711e+01,1.250000000000000355e+01,4.500000000000000888e+00,-1.000000000000000178e+01,1.275000000000000355e+01,-1.450000000000000355e+01,1.850000000000000355e+01,-1.100000000000000355e+01,5.750000000000000888e+00,-2.125000000000000355e+01,2.250000000000000711e+01,-3.750000000000001776e+00,-1.175000000000000355e+01,5.250000000000001776e+00,1.500000000000000355e+01,-1.375000000000000355e+01,-3.000000000000000888e+00,0.000000000000000000e+00,0.000000000000000000e+00,0.000000000000000000e+00,0.000000000000000000e+00,2.500000000000000555e-01,-2.500000000000000555e-01,-2.500000000000000555e-01,0.000000000000000000e+00,5.000000000000001110e-01,-2.500000000000000555e-01,0.000000000000000000e+00,-2.500000000000000555e-01,5.000000000000001110e-01,-5.000000000000001110e-01,5.000000000000001110e-01,-2.500000000000000555e-01,0.000000000000000000e+00,0.000000000000000000e+00,0.000000000000000000e+00,0.000000000000000000e+00,0.000000000000000000e+00,2.500000000000000555e-01,-5.000000000000001110e-01,0.000000000000000000e+00,5.000000000000001110e-01,0.000000000000000000e+00,-5.000000000000001110e-01,2.500000000000000555e-01,2.500000000000000555e-01,-7.500000000000002220e-01,5.000000000000001110e-01,2.500000000000000555e-01,0.000000000000000000e+00,-7.500000000000002220e-01,7.500000000000002220e-01,0.000000000000000000e+00,-2.500000000000000555e-01,-2.500000000000000555e-01,0.000000000000000000e+00,5.000000000000001110e-01,0.000000000000000000e+00,-5.000000000000001110e-01,2.500000000000000555e-01,0.000000000000000000e+00,0.000000000000000000e+00,0.000000000000000000e+00,2.500000000000000555e-01,-5.000000000000001110e-01,-2.300000000000000355e+01,3.825000000000000711e+01,-2.975000000000000711e+01,1.100000000000000355e+01,1.300000000000000355e+01,-1.675000000000000355e+01,2.500000000000000000e-01,-1.625000000000000000e+01,4.500000000000000000e+00,1.025000000000000178e+01,3.200000000000000711e+01,-4.275000000000000711e+01,2.000000000000000355e+01,1.050000000000000178e+01,-3.450000000000000711e+01,2.550000000000000355e+01,-1.250000000000000222e+00,-5.000000000000002220e-01,-1.450000000000000355e+01,4.000000000000001776e+00,-2.000000000000001776e+00,1.150000000000000355e+01,1.175000000000000178e+01,-1.050000000000000178e+01,-2.050000000000000355e+01,3.150000000000000711e+01,-2.125000000000000355e+01,-1.750000000000000000e+00,9.750000000000001776e+00,-1.425000000000000355e+01,1.325000000000000355e+01,1.075000000000000178e+01,-2.475000000000000711e+01,2.900000000000000711e+01,-2.975000000000000711e+01,1.675000000000000355e+01,-5.750000000000001776e+00,2.000000000000000888e+00,-7.250000000000000888e+00,2.250000000000000355e+01,-1.475000000000000355e+01,5.000000000000000000e-01,4.750000000000000888e+00,-9.000000000000001776e+00,1.250000000000000000e+00,1.600000000000000355e+01,-5.750000000000000888e+00,-9.750000000000003553e+00,-1.050000000000000178e+01,1.100000000000000355e+01,2.225000000000000355e+01,-3.175000000000000711e+01,2.850000000000000711e+01,-2.300000000000000711e+01,8.500000000000001776e+00,1.225000000000000178e+01,-2.500000000000000711e+01,1.125000000000000355e+01,9.500000000000001776e+00,-2.000000000000000711e+01,2.000000000000000711e+01,-1.475000000000000355e+01,1.250000000000000000e+00,1.425000000000000355e+01,2.250000000000000000e+00,-1.825000000000000355e+01,3.750000000000000888e+00,1.300000000000000355e+01,-5.750000000000001776e+00,-1.400000000000000178e+01,2.350000000000000711e+01,-2.225000000000000711e+01,1.300000000000000355e+01,6.000000000000000888e+00,-1.600000000000000355e+01,5.750000000000001776e+00,1.200000000000000178e+01,-2.350000000000000711e+01,2.475000000000000711e+01,-1.600000000000000355e+01,-7.250000000000000888e+00,1.775000000000000355e+01,0.000000000000000000e+00,-5.750000000000001776e+00,-4.500000000000000888e+00,1.775000000000000355e+01,-1.900000000000000355e+01,4.750000000000000888e+00,3.500000000000000888e+00,4.000000000000000888e+00,-4.250000000000000888e+00,-1.250000000000000355e+01,1.025000000000000178e+01,-3.000000000000000888e+00,1.275000000000000178e+01,-1.475000000000000355e+01,-4.000000000000000888e+00,1.800000000000000355e+01,-1.200000000000000178e+01,-4.750000000000001776e+00,1.975000000000000711e+01,-1.850000000000000355e+01,5.250000000000000888e+00,4.500000000000000888e+00,-1.275000000000000355e+01,2.750000000000000000e+00,1.000000000000000888e+00,2.550000000000000355e+01,-2.425000000000000355e+01,4.250000000000000888e+00,-1.150000000000000178e+01,1.825000000000000355e+01,3.000000000000000000e+00,-1.550000000000000355e+01,-4.000000000000000888e+00,2.225000000000000711e+01,-1.875000000000000355e+01,3.500000000000000444e+00,1.000000000000000178e+01,-6.500000000000001776e+00,-6.500000000000000888e+00,1.025000000000000178e+01,2.075000000000000711e+01,-2.125000000000000711e+01,-1.675000000000000355e+01,3.500000000000000711e+01,-2.075000000000000355e+01,-5.000000000000000000e-01,1.550000000000000355e+01,-4.500000000000000000e+00,-1.775000000000000355e+01,3.725000000000000711e+01,-4.075000000000000711e+01,1.475000000000000355e+01,9.750000000000001776e+00,-1.325000000000000355e+01,-5.500000000000001776e+00,1.775000000000000355e+01,6.500000000000000000e+00,-1.325000000000000178e+01,7.750000000000001776e+00,-1.650000000000000355e+01,2.325000000000000355e+01,-2.225000000000000355e+01,-1.575000000000000355e+01,2.600000000000000711e+01,1.250000000000000000e+00,-1.200000000000000178e+01,2.500000000000000555e-01,0.000000000000000000e+00,0.000000000000000000e+00,0.000000000000000000e+00,0.000000000000000000e+00,0.000000000000000000e+00,0.000000000000000000e+00,0.000000000000000000e+00,0.000000000000000000e+00,0.000000000000000000e+00,-2.500000000000000555e-01,5.000000000000001110e-01,-2.500000000000000555e-01,-2.500000000000000555e-01,-2.650000000000000711e+01,5.350000000000001421e+01,-4.075000000000001421e+01,1.025000000000000355e+01,2.125000000000000355e+01,-1.850000000000000355e+01,-4.450000000000000711e+01,6.650000000000001421e+01,-1.825000000000000355e+01,-2.500000000000000000e-01,-3.750000000000000888e+00,-4.825000000000001421e+01,9.225000000000002842e+01,-2.150000000000000355e+01,-6.250000000000001421e+01,3.675000000000000711e+01,1.450000000000000355e+01,-4.825000000000000711e+01,4.775000000000000711e+01,-2.325000000000000711e+01,1.325000000000000355e+01,-1.150000000000000355e+01,9.250000000000003553e+00,5.000000000000000000e-01,1.250000000000000178e+01,-3.600000000000000711e+01,6.000000000000001421e+01,-2.900000000000000711e+01,-2.050000000000000355e+01,1.375000000000000355e+01,2.500000000000000888e+00,1.225000000000000355e+01,-1.950000000000000711e+01,-1.025000000000000178e+01,2.650000000000000711e+01,-1.100000000000000178e+01,4.500000000000000888e+00,-1.550000000000000355e+01,1.175000000000000355e+01,2.075000000000000355e+01,-1.925000000000000355e+01,-1.875000000000000355e+01,2.000000000000000355e+01,7.500000000000001776e+00,-1.700000000000000355e+01,5.000000000000000000e-01,1.400000000000000355e+01,-3.500000000000000888e+00,-1.650000000000000355e+01,1.425000000000000355e+01,-8.250000000000001776e+00,1.000000000000000355e+01,-1.250000000000000444e+00,9.500000000000001776e+00,-3.000000000000000000e+00,-1.550000000000000355e+01,2.150000000000000711e+01,-2.575000000000000711e+01,2.500000000000000711e+01,-2.350000000000000711e+01,3.000000000000000711e+01,-2.900000000000000711e+01,8.500000000000001776e+00,1.250000000000000355e+01,-1.850000000000000711e+01,8.500000000000001776e+00,0.000000000000000000e+00,4.250000000000001776e+00,-2.500000000000000000e-01,-9.250000000000001776e+00,-5.250000000000001776e+00,-8.000000000000001776e+00,1.475000000000000355e+01,-4.025000000000000711e+01,4.225000000000000711e+01,-3.250000000000000888e+00,-3.225000000000000711e+01,-5.250000000000000000e+00,4.250000000000000711e+01,-7.500000000000001776e+00,-2.275000000000000711e+01,3.050000000000000711e+01,-1.150000000000000178e+01,-9.250000000000001776e+00,1.075000000000000178e+01,7.250000000000001776e+00,-5.000000000000001110e-01,2.500000000000000555e-01,2.500000000000000555e-01,-2.500000000000000555e-01,2.500000000000000555e-01,0.000000000000000000e+00,0.000000000000000000e+00,-2.500000000000000555e-01,0.000000000000000000e+00,7.500000000000002220e-01,-5.000000000000001110e-01,-2.500000000000000555e-01,5.000000000000001110e-01,-5.000000000000001110e-01,5.000000000000001110e-01,-7.500000000000002220e-01,1.000000000000000222e+00,-7.500000000000002220e-01,2.500000000000000555e-01,1.145000000000000284e+02
