-4.661125000000001251e+01,-5.954875000000002672e+01,-7.515812500000004093e+01,-9.275187500000004093e+01,-1.127831250000000693e+02,-1.360800000000000693e+02,-1.610956250000000978e+02,-1.877987500000001546e+02,-2.175331250000001546e+02,-2.484393750000001546e+02,-2.803768750000001546e+02,-3.127050000000001546e+02,-3.439081250000001546e+02,-3.734393750000002683e+02,-3.999550000000002683e+02,-4.226425000000002683e+02,-4.401268750000002683e+02,-4.538768750000003251e+02,-4.636737500000003251e+02,-4.700018750000003251e+02,-4.737831250000003251e+02,-4.752987500000003251e+02,-4.758768750000003251e+02,-4.758925000000003251e+02,-4.758300000000003251e+02,-4.757675000000003251e+02,-4.757206250000003251e+02,-4.756893750000003251e+02,-4.756737500000003251e+02,-4.756893750000003251e+02,-4.757206250000003251e+02,-4.757831250000003251e+02,-4.758612500000003251e+02,-4.759393750000003251e+02,-4.760175000000003251e+02,-4.760800000000003251e+02,-4.761112500000003251e+02,-4.761268750000003251e+02,-4.761425000000003251e+02,-4.761425000000003251e+02,-4.736581250000003251e+02,-4.686893750000003251e+02,-4.625956250000003251e+02,-4.550643750000003251e+02,-4.450331250000003251e+02,-4.321893750000002683e+02,-4.160800000000002683e+02,-3.981268750000002683e+02,-3.789862500000002683e+02,-3.557831250000001546e+02,-3.243612500000001546e+02,-2.830175000000001546e+02,-2.313300000000001546e+02,-1.697050000000000978e+02,-9.895500000000004093e+01,-1.622062499999997698e+01,7.242000000000010118e+01,1.611700000000001580e+02,2.457637500000002149e+02,3.219043750000003001e+02,3.854981250000003001e+02,4.364825000000004138e+02,4.751231250000004138e+02,4.999668750000004138e+02,5.152793750000004138e+02,5.239512500000004138e+02,5.274981250000004138e+02,5.281387500000004138e+02,5.284825000000004138e+02,5.286700000000004138e+02,5.287950000000004138e+02,5.288887500000004138e+02,5.289512500000004138e+02,5.289981250000004138e+02,5.289356250000004138e+02,5.288887500000004138e+02,5.288262500000004138e+02,5.287793750000004138e+02,5.287481250000004138e+02,5.287168750000004138e+02,5.286856250000004138e+02,5.286387500000004138e+02,5.286856250000004138e+02,5.287168750000004138e+02,5.287325000000004138e+02,5.287481250000004138e+02,5.287481250000004138e+02,5.287637500000004138e+02,5.287793750000004138e+02,5.288262500000004138e+02,5.288106250000004138e+02,5.287793750000004138e+02,5.287637500000004138e+02,5.287481250000004138e+02,5.287637500000004138e+02,5.287481250000004138e+02,5.287168750000004138e+02,5.286543750000004138e+02,5.285918750000004138e+02,5.285450000000004138e+02,5.284981250000004138e+02,5.284512500000004138e+02,5.284043750000004138e+02,5.283731250000004138e+02,5.283575000000004138e+02,5.283575000000004138e+02,5.283731250000004138e+02,5.283887500000004138e+02,5.283887500000004138e+02,5.283731250000004138e+02,5.283106250000004138e+02,5.282325000000004138e+02,5.281387500000004138e+02,5.280293750000004138e+02,5.279043750000004138e+02,5.276856250000004138e+02,5.261700000000004138e+02,5.232950000000004138e+02,5.191387500000004138e+02,5.130293750000004138e+02,5.043106250000004138e+02,4.919200000000004138e+02,4.763262500000004138e+02,4.567325000000004138e+02,4.354200000000004138e+02,4.117012500000003570e+02,3.853418750000003001e+02,3.565137500000002433e+02,3.268731250000002433e+02,2.978575000000001864e+02,2.677481250000001864e+02,2.376231250000001864e+02,2.066856250000001864e+02,1.762325000000001296e+02,1.452325000000001012e+02,1.153262500000001012e+02,8.420125000000007276e+01,5.212312500000004434e+01,2.098250000000003013e+01,-9.439374999999989413e+00,-3.979875000000001251e+01,-7.072062500000002672e+01,-1.004862500000000409e+02,-1.302206250000000693e+02,-1.574081250000000978e+02,-1.838456250000001262e+02,-2.100331250000001546e+02,-2.346737500000001546e+02,-2.575643750000001546e+02,-2.787050000000001546e+02,-2.987362500000001546e+02,-3.175643750000001546e+02,-3.362050000000001546e+02,-3.530331250000001546e+02,-3.683612500000001546e+02,-3.840175000000002683e+02,-3.990331250000002683e+02,-4.131893750000002683e+02,-4.254393750000002683e+02,-4.361112500000003251e+02,-4.457831250000003251e+02,-4.541737500000003251e+02,-4.609550000000003251e+02,-4.655643750000003251e+02,-4.690643750000003251e+02,-4.713143750000003251e+02,-4.732362500000003251e+02,-4.746112500000003251e+02,-4.750643750000003251e+02,-4.753612500000003251e+02,-4.756581250000003251e+02,-4.759393750000003251e+02,-4.759393750000003251e+02,-4.759237500000003251e+02,-4.759237500000003251e+02,-4.753925000000003251e+02,-4.744550000000003251e+02,-4.727362500000003251e+02,-4.709862500000003251e+02,-4.690018750000003251e+02,-4.661425000000003251e+02,-4.627050000000003251e+02,-4.576112500000003251e+02,-4.516581250000003251e+02,-4.455487500000003251e+02,-4.390643750000003251e+02,-4.300331250000003251e+02,-4.195175000000002683e+02,-4.092206250000002683e+02,-3.986425000000002683e+02,-3.892675000000002683e+02,-3.808143750000002683e+02,-3.721893750000001546e+02,-3.650643750000001546e+02,-3.606425000000001546e+02,-3.577518750000001546e+02,-3.554706250000001546e+02,-3.529081250000001546e+02,-3.504081250000001546e+02,-3.477987500000001546e+02,-3.449706250000001546e+02,-3.413456250000001546e+02,-3.373925000000001546e+02,-3.320643750000001546e+02,-3.244862500000001546e+02,-3.161893750000001546e+02,-3.062206250000001546e+02,-2.953300000000001546e+02,-2.831893750000001546e+02,-2.695175000000001546e+02,-2.535487500000001546e+02,-2.369706250000001546e+02,-2.201581250000001546e+02,-2.025800000000001546e+02,-1.836268750000001546e+02,-1.619237500000000978e+02,-1.377362500000000693e+02,-1.095643750000000551e+02,-7.823625000000004093e+01,-4.314250000000001251e+01,-4.876874999999985860e+00,3.510750000000004434e+01,7.565437500000007276e+01,1.165918750000000870e+02,1.566543750000001296e+02,1.942950000000001580e+02,2.301387500000001864e+02,2.636700000000001864e+02,2.948262500000001864e+02,3.256856250000002433e+02,3.562637500000002433e+02,3.843418750000003001e+02,4.108731250000004138e+02,4.360762500000004138e+02,4.585137500000004138e+02,4.774043750000004138e+02,4.931856250000004138e+02,5.049512500000004138e+02,5.130293750000004138e+02,5.189043750000004138e+02,5.224043750000004138e+02,5.236075000000004138e+02,5.232950000000004138e+02,5.222325000000004138e+02,5.204356250000004138e+02,5.172637500000004138e+02,5.132637500000004138e+02,5.066856250000004138e+02,4.982012500000004138e+02,4.877793750000004138e+02,4.748106250000004138e+02,4.590762500000004138e+02,4.406700000000004138e+02,4.209825000000004138e+02,3.983731250000003001e+02,3.764825000000003001e+02,3.544043750000001864e+02,3.321543750000001864e+02,3.119981250000001864e+02,2.939512500000001864e+02,2.778418750000001864e+02,2.631075000000001864e+02,2.511387500000001864e+02,2.409200000000001864e+02,2.325918750000001864e+02,2.259043750000001864e+02,2.201231250000001864e+02,2.161856250000001864e+02,2.136075000000001864e+02,2.131700000000001864e+02,2.147481250000001864e+02,2.169200000000001864e+02,2.194356250000001864e+02,2.229981250000001864e+02,2.250137500000001864e+02,2.265918750000001864e+02,2.289512500000001864e+02,2.290450000000001864e+02,2.280606250000001864e+02,2.263106250000001864e+02,2.235293750000001864e+02,2.209200000000001864e+02,2.209825000000001864e+02,2.209825000000001864e+02,2.193262500000001864e+02,2.198887500000001864e+02,2.202793750000001864e+02,2.208262500000001864e+02,2.237481250000001864e+02,2.254668750000001864e+02,2.259200000000001864e+02,2.272950000000001864e+02,2.295137500000001864e+02,2.314043750000001864e+02,2.340762500000001864e+02,2.384981250000001864e+02,2.418731250000001864e+02,2.447168750000001864e+02,2.489200000000001864e+02,2.519043750000001864e+02,2.543731250000001864e+02,2.564356250000001864e+02,2.573731250000001864e+02,2.565762500000001864e+02,2.567012500000001864e+02,2.576387500000001864e+02,2.566700000000001864e+02,2.553887500000001864e+02,2.555137500000001864e+02,2.548106250000001864e+02,2.540918750000001864e+02,2.513575000000001864e+02,2.446387500000001864e+02,2.390137500000001864e+02,2.331387500000001864e+02,2.271231250000001864e+02,2.178106250000001864e+02,2.079668750000001864e+02,1.982637500000001864e+02,1.900918750000001580e+02,1.837950000000001296e+02,1.755918750000001012e+02,1.669981250000001012e+02,1.579043750000001012e+02,1.515293750000001012e+02,1.453575000000001012e+02,1.382325000000001012e+02,1.312481250000001012e+02,1.246700000000001012e+02,1.175606250000001012e+02,1.109200000000001012e+02,1.044981250000001012e+02,9.668562500000010118e+01,8.924812500000007276e+01,8.179500000000005855e+01,7.351375000000005855e+01,6.476375000000005855e+01,5.693562500000005855e+01,4.837312500000005144e+01,4.012312500000004434e+01,3.040437500000003723e+01,2.020125000000003013e+01,9.982500000000023022e+00,-1.158124999999984084e+00,-1.350187499999999119e+01,-2.692374999999999829e+01,-4.058000000000001251e+01,-5.686125000000002672e+01,-7.336125000000004093e+01,-9.139250000000004093e+01,-1.100018750000000693e+02,-1.286268750000000693e+02,-1.474706250000000693e+02,-1.672362500000000978e+02,-1.877987500000001546e+02,-2.061112500000001546e+02,-2.224081250000001546e+02,-2.381893750000001546e+02,-2.539237500000001546e+02,-2.685643750000001546e+02,-2.834862500000001546e+02,-2.972050000000001546e+02,-3.099081250000001546e+02,-3.234393750000001546e+02,-3.377987500000001546e+02,-3.515331250000001546e+02,-3.646425000000001546e+02,-3.772518750000001546e+02,-3.877987500000002683e+02,-3.978143750000002683e+02,-4.058300000000002683e+02,-4.127831250000003251e+02,-4.186425000000003251e+02,-4.232206250000003251e+02,-4.263925000000003251e+02,-4.292206250000003251e+02,-4.315175000000003251e+02,-4.333300000000003251e+02,-4.363925000000003251e+02,-4.381425000000003251e+02,-4.401112500000003251e+02,-4.419706250000003251e+02,-4.440331250000003251e+02,-4.466268750000003251e+02,-4.492050000000003251e+02,-4.505175000000003251e+02,-4.511893750000003251e+02,-4.528768750000003251e+02,-4.538300000000003251e+02,-4.546112500000003251e+02,-4.555956250000003251e+02,-4.550956250000003251e+02,-4.547518750000003251e+02,-4.560800000000003251e+02,-4.572987500000003251e+02,-4.580800000000003251e+02,-4.592675000000003251e+02,-4.605175000000003251e+02,-4.616737500000003251e+02,-4.641425000000003251e+02,-4.665487500000003251e+02,-4.677050000000003251e+02,-4.687362500000003251e+02,-4.698143750000003251e+02,-4.704862500000003251e+02,-4.702675000000003251e+02,-4.696581250000003251e+02,-4.672675000000003251e+02,-4.642831250000003251e+02,-4.610175000000003251e+02,-4.564862500000003251e+02,-4.510487500000003251e+02,-4.451737500000003251e+02,-4.399550000000003251e+02,-4.342675000000003251e+02,-4.305956250000003251e+02,-4.269706250000003251e+02,-4.248143750000003251e+02,-4.252987500000003251e+02,-4.267206250000003251e+02,-4.290956250000003251e+02,-4.327518750000003251e+02,-4.375331250000003251e+02,-4.410331250000003251e+02,-4.459081250000003251e+02,-4.502206250000003251e+02,-4.531737500000003251e+02,-4.565800000000003251e+02,-4.598456250000003251e+02,-4.620175000000003251e+02,-4.640331250000003251e+02,-4.669393750000003251e+02,-4.689237500000003251e+02,-4.706581250000003251e+02,-4.724081250000003251e+02,-4.735175000000003251e+02,-4.743925000000003251e+02,-4.752831250000003251e+02,-4.758300000000003251e+02,-4.758456250000003251e+02,-4.758300000000003251e+02,-4.752362500000003251e+02,-4.737362500000003251e+02,-4.719237500000003251e+02,-4.684550000000003251e+02,-4.633768750000003251e+02,-4.569706250000003251e+02,-4.489237500000003251e+02,-4.391112500000003251e+02,-4.280018750000002683e+02,-4.166893750000002683e+02,-4.037831250000002683e+02,-3.908612500000002683e+02,-3.776581250000002683e+02,-3.643925000000001546e+02,-3.511581250000001546e+02,-3.377675000000001546e+02,-3.249237500000001546e+02,-3.110175000000001546e+02,-2.973143750000001546e+02,-2.846581250000001546e+02,-2.723456250000001546e+02,-2.588768750000001546e+02,-2.446112500000001546e+02,-2.300018750000001546e+02,-2.148143750000001546e+02,-2.008143750000001546e+02,-1.864081250000001262e+02,-1.698768750000000978e+02,-1.541581250000000693e+02,-1.397206250000000693e+02,-1.266737500000000693e+02,-1.150331250000000693e+02,-1.036581250000000693e+02,-9.164250000000004093e+01,-8.031437500000002672e+01,-7.051750000000002672e+01,-5.936125000000002672e+01,-4.723625000000001251e+01,-3.395500000000000540e+01,-2.003312499999999829e+01,-5.470624999999987637e+00,1.007625000000002302e+01,2.554500000000003013e+01,4.156062500000004434e+01,5.729500000000005855e+01,7.226375000000005855e+01,8.695125000000007276e+01,1.019200000000001012e+02,1.163887500000001012e+02,1.300762500000001012e+02,1.448887500000001012e+02,1.602481250000001012e+02,1.755606250000001296e+02,1.902950000000001864e+02,2.043262500000001864e+02,2.187012500000001864e+02,2.320450000000001864e+02,2.450137500000001864e+02,2.564200000000001864e+02,2.667950000000001864e+02,2.771543750000001864e+02,2.884200000000001864e+02,3.007793750000001864e+02,3.129043750000001864e+02,3.265450000000001864e+02,3.409512500000001864e+02,3.567793750000001864e+02,3.724668750000001864e+02,3.879043750000003001e+02,4.030918750000003001e+02,4.164200000000003001e+02,4.291075000000003570e+02,4.404512500000004138e+02,4.500293750000004138e+02,4.582325000000004138e+02,4.668106250000004138e+02,4.748262500000004138e+02,4.823106250000004138e+02,4.904043750000004138e+02,4.974043750000004138e+02,5.038262500000004138e+02,5.101075000000004138e+02,5.154668750000004138e+02,5.193575000000004138e+02,5.223262500000004138e+02,5.242637500000004138e+02,5.251856250000004138e+02,5.259356250000004138e+02,5.263575000000004138e+02,5.264512500000004138e+02,5.265137500000004138e+02,5.265762500000004138e+02,5.266387500000004138e+02,5.267325000000004138e+02,5.268106250000004138e+02,5.268887500000004138e+02,5.269668750000004138e+02,5.270918750000004138e+02,5.272168750000004138e+02,5.273418750000004138e+02,5.274512500000004138e+02,5.275293750000004138e+02,5.276231250000004138e+02,5.277325000000004138e+02,5.278262500000004138e+02,5.278887500000004138e+02,5.279356250000004138e+02,5.279668750000004138e+02,5.280137500000004138e+02,5.280762500000004138e+02,5.281231250000004138e+02,5.281543750000004138e+02,5.281856250000004138e+02,5.282168750000004138e+02,5.282481250000004138e+02,5.282793750000004138e+02,5.282950000000004138e+02,5.282793750000004138e+02,5.282325000000004138e+02,5.282012500000004138e+02,5.281543750000004138e+02,5.281231250000004138e+02,5.280918750000004138e+02,5.280762500000004138e+02,5.280606250000004138e+02,5.280606250000004138e+02,5.281231250000004138e+02,5.281543750000004138e+02,5.282168750000004138e+02,5.282637500000004138e+02,5.283106250000004138e+02,5.283262500000004138e+02,5.283262500000004138e+02,5.283418750000004138e+02,5.283262500000004138e+02,5.283262500000004138e+02,5.282950000000004138e+02,5.282481250000004138e+02,5.281856250000004138e+02,5.281075000000004138e+02,5.280450000000004138e+02,5.279512500000004138e+02,5.278262500000004138e+02,5.276856250000004138e+02,5.275450000000004138e+02,5.273731250000004138e+02,5.271856250000004138e+02,5.270137500000004138e+02,5.267481250000004138e+02,5.263887500000004138e+02,5.259512500000004138e+02,5.248731250000004138e+02,5.227637500000004138e+02,5.191075000000004138e+02,5.135450000000004138e+02,5.062637500000004138e+02,4.963731250000004138e+02,4.842168750000004138e+02,4.693731250000004138e+02,4.519512500000004138e+02,4.328106250000004138e+02,4.123262500000003570e+02,3.911543750000003001e+02,3.696543750000002433e+02,3.513418750000001864e+02,3.357793750000001864e+02,3.184668750000001864e+02,2.997012500000001864e+02,2.782012500000001864e+02,2.558575000000001864e+02,2.320450000000001864e+02,2.049981250000001580e+02,1.711700000000001296e+02,1.299356250000001012e+02,9.218562500000007276e+01,5.932625000000004434e+01,3.195125000000003368e+01,7.732500000000021245e+00,-1.265812499999999119e+01,-2.845499999999999829e+01,-3.833000000000000540e+01,-4.190812500000000540e+01,-4.498625000000001251e+01,-4.964250000000002672e+01,-5.411125000000002672e+01,-5.839250000000002672e+01,-6.350187500000002672e+01,-6.761125000000002672e+01,-7.172062500000002672e+01,-7.529875000000002672e+01,-7.883000000000002672e+01,-8.006437500000002672e+01,-8.187687500000002672e+01,-8.258000000000002672e+01,-8.136125000000002672e+01,-8.011125000000002672e+01,-7.789250000000002672e+01,-7.479875000000002672e+01,-7.067375000000002672e+01,-6.876750000000002672e+01,-6.656437500000002672e+01,-6.690812500000002672e+01,-6.890812500000002672e+01,-7.193937500000002672e+01,-7.684562500000002672e+01,-8.358000000000004093e+01,-9.292375000000005514e+01,-1.017987500000000693e+02,-1.122675000000000693e+02,-1.209550000000000693e+02,-1.293456250000000693e+02,-1.380800000000000693e+02,-1.460956250000000693e+02,-1.537987500000000693e+02,-1.590956250000000693e+02,-1.633300000000000693e+02,-1.660331250000000693e+02,-1.692831250000000693e+02,-1.726112500000000693e+02,-1.757518750000000693e+02,-1.794706250000000693e+02,-1.826581250000000693e+02,-1.868456250000000978e+02,-1.929862500000001546e+02,-1.997362500000001546e+02,-2.061112500000001546e+02,-2.127050000000001546e+02,-2.192206250000001546e+02,-2.246112500000001546e+02,-2.305487500000001546e+02,-2.365018750000001546e+02,-2.409393750000001546e+02,-2.444550000000001546e+02,-2.478300000000001546e+02,-2.506581250000001546e+02,-2.525487500000001546e+02,-2.545487500000001546e+02,-2.553300000000001546e+02,-2.559237500000001546e+02,-2.559550000000001546e+02,-2.558768750000001546e+02,-2.566268750000001546e+02,-2.574706250000001546e+02,-2.591268750000001546e+02,-2.611581250000001546e+02,-2.635643750000001546e+02,-2.656893750000001546e+02,-2.684550000000001546e+02,-2.723143750000001546e+02,-2.746425000000001546e+02,-2.766737500000001546e+02,-2.769550000000001546e+02,-2.765800000000001546e+02,-2.768768750000001546e+02,-2.763768750000001546e+02,-2.758300000000001546e+02,-2.742362500000001546e+02,-2.729550000000001546e+02,-2.715018750000001546e+02,-2.709862500000001546e+02,-2.707362500000001546e+02,-2.695956250000001546e+02,-2.684081250000001546e+02,-2.666268750000001546e+02,-2.642362500000001546e+02,-2.623300000000001546e+02,-2.596268750000001546e+02,-2.574081250000001546e+02,-2.546268750000001546e+02,-2.518300000000001546e+02,-2.499862500000001546e+02,-2.477518750000001546e+02,-2.470643750000001546e+02,-2.458456250000001546e+02,-2.454862500000001546e+02,-2.451425000000001546e+02,-2.450800000000001546e+02,-2.448612500000001546e+02,-2.436737500000001546e+02,-2.439706250000001546e+02,-2.431425000000001546e+02,-2.432518750000001546e+02,-2.432518750000001546e+02,-2.425487500000001546e+02,-2.425956250000001546e+02,-2.426268750000001546e+02,-2.431425000000001546e+02,-2.426737500000001546e+02,-2.418768750000001546e+02,-2.400175000000001546e+02,-2.388143750000001546e+02,-2.371268750000001546e+02,-2.345956250000001546e+02,-2.322050000000001546e+02,-2.299862500000001546e+02,-2.278456250000001546e+02,-2.260800000000001546e+02,-2.242206250000001546e+02,-2.215956250000001546e+02,-2.198768750000001546e+02,-2.181425000000001546e+02,-2.163456250000001546e+02,-2.147206250000001546e+02,-2.122831250000001546e+02,-2.099550000000001546e+02,-2.082518750000001546e+02,-2.059862500000001546e+02,-2.031893750000001546e+02,-1.993456250000001546e+02,-1.947206250000001546e+02,-1.890956250000001262e+02,-1.844237500000000978e+02,-1.797518750000000693e+02,-1.744550000000000693e+02,-1.695018750000000693e+02,-1.647050000000000693e+02,-1.617050000000000693e+02,-1.605018750000000693e+02,-1.597518750000000693e+02,-1.578768750000000693e+02,-1.560956250000000693e+02,-1.541268750000000693e+02,-1.518143750000000693e+02,-1.495175000000000693e+02,-1.464081250000000693e+02,-1.415800000000000693e+02,-1.369706250000000693e+02,-1.338143750000000693e+02,-1.305331250000000693e+02,-1.274862500000000693e+02,-1.249237500000000693e+02,-1.222831250000000693e+02,-1.189862500000000693e+02,-1.159393750000000693e+02,-1.124862500000000693e+02,-1.081112500000000693e+02,-1.035643750000000693e+02,-9.870500000000006935e+01,-9.368937500000005514e+01,-8.876750000000004093e+01,-8.436125000000002672e+01,-8.059562500000002672e+01,-7.697062500000002672e+01,-7.395500000000002672e+01,-7.040812500000002672e+01,-6.734562500000002672e+01,-6.525187500000002672e+01,-6.309562500000002672e+01,-6.158000000000002672e+01,-6.072062500000002672e+01,-5.936125000000002672e+01,-5.714250000000002672e+01,-5.643937500000002672e+01,-5.639250000000002672e+01,-5.556437500000002672e+01,-5.487687500000002672e+01,-5.312687500000002672e+01,-5.043937500000002672e+01,-4.845500000000002672e+01,-4.715812500000001961e+01,-4.517375000000001251e+01,-4.278312500000000540e+01,-3.983000000000000540e+01,-3.670500000000000540e+01,-3.531437500000000540e+01,-3.414250000000000540e+01,-3.351750000000000540e+01,-3.373625000000000540e+01,-3.334562500000000540e+01,-3.309562500000000540e+01,-3.347062500000000540e+01,-3.431437500000000540e+01,-3.337687500000000540e+01,-3.197062500000000540e+01,-3.025187500000000540e+01,-2.683000000000000540e+01,-2.373625000000000185e+01,-2.036124999999999829e+01,-1.779874999999999474e+01,-1.498624999999999474e+01,-1.279874999999999474e+01,-1.175187499999999119e+01,-9.626874999999991189e+00,-8.861249999999989413e+00,-9.095624999999989413e+00,-8.689374999999989413e+00,-6.767499999999987637e+00,-4.033124999999986748e+00,-2.251874999999985860e+00,8.731250000000169154e-01,3.045000000000018137e+00,5.935625000000020357e+00,9.591875000000023022e+00,1.271687500000002302e+01,1.427937500000002657e+01,1.424812500000002657e+01,1.581062500000002657e+01,1.621687500000002657e+01,1.668562500000002657e+01,1.656062500000002657e+01,1.671687500000002657e+01,1.657625000000002657e+01,1.749812500000002657e+01,1.993562500000002657e+01,2.110750000000002657e+01,2.317000000000003013e+01,2.518562500000003723e+01,2.762312500000003723e+01,2.963875000000003723e+01,3.184187500000003723e+01,3.337312500000003723e+01,3.392000000000003723e+01,3.429500000000003723e+01,3.338875000000003723e+01,3.163875000000003723e+01,3.015437500000003723e+01,2.865437500000003723e+01,2.701375000000003723e+01,2.604500000000003723e+01,2.445125000000003368e+01,2.351375000000003013e+01,2.385750000000003013e+01,2.554500000000003368e+01,2.574812500000003723e+01,2.627937500000003723e+01,2.574812500000003368e+01,2.456062500000003368e+01,2.476375000000003723e+01,2.473250000000003723e+01,2.409187500000003368e+01,2.235750000000003013e+01,2.238875000000003013e+01,2.151375000000003013e+01,2.240437500000003013e+01,2.324812500000003013e+01,2.268562500000003013e+01,2.262312500000003013e+01,2.223250000000003013e+01,2.234187500000003013e+01,2.074812500000002657e+01,1.932625000000002657e+01,1.620125000000002657e+01,1.356062500000002480e+01,1.143562500000002302e+01,8.701250000000021245e+00,5.795000000000019469e+00,2.716875000000017693e+00,1.013750000000016582e+00,3.418750000000161382e-01,1.216875000000016804e+00,1.279375000000016804e+00,1.841875000000016804e+00,1.857500000000016804e+00,2.701250000000018137e+00,3.670000000000018581e+00,4.451250000000019469e+00,4.701250000000019469e+00,4.466875000000019469e+00,5.607500000000019469e+00,7.107500000000020357e+00,9.466875000000023022e+00,1.206062500000002302e+01,1.509187500000002657e+01,1.762312500000002657e+01,1.920125000000002657e+01,2.090437500000003013e+01,2.154500000000003013e+01,2.073250000000002657e+01,2.015437500000002657e+01,1.849812500000002657e+01,1.599812500000002657e+01,1.412312500000002657e+01,1.398250000000002657e+01,1.302937500000002302e+01,1.204500000000002302e+01,1.196687500000002302e+01,1.123250000000002302e+01,1.146687500000002302e+01,1.284187500000002480e+01,1.362312500000002657e+01,1.265437500000002480e+01,1.223250000000002480e+01,1.256062500000002657e+01,1.277937500000002657e+01,1.388875000000002657e+01,1.432625000000002657e+01,1.340437500000002657e+01,1.290437500000002657e+01,1.345125000000002657e+01,1.454500000000002657e+01,1.549812500000002657e+01,1.663875000000002657e+01,1.643562500000002657e+01,1.660750000000002657e+01,1.729500000000002657e+01,1.738875000000002657e+01,1.785750000000002657e+01,1.776375000000002657e+01,1.687312500000002657e+01,1.549812500000002657e+01,1.523250000000002657e+01,1.404500000000002657e+01,1.371687500000002657e+01,1.337312500000002480e+01,1.142000000000002302e+01,8.935625000000021245e+00,6.841875000000021245e+00,4.982500000000019469e+00,2.170000000000017693e+00,9.668750000000165823e-01,-1.111249999999984972e+00,-3.001874999999986304e+00,-3.314374999999986748e+00,-3.454999999999986748e+00,-2.970624999999985860e+00,-2.251874999999985416e+00,-8.768749999999846390e-01,-1.737499999999841949e-01,3.575000000000160827e-01,2.248125000000017248e+00,3.920000000000018581e+00,6.857500000000019469e+00,8.826250000000021245e+00,1.149812500000002302e+01,1.526375000000002657e+01,1.857625000000003013e+01,2.270125000000003368e+01,2.552937500000003723e+01,2.770125000000003723e+01,2.820125000000003723e+01,2.940437500000003723e+01,2.852937500000003723e+01,2.543562500000003723e+01,2.246687500000003013e+01,1.821687500000003013e+01,1.307625000000002302e+01,8.326250000000021245e+00,4.373125000000019469e+00,-8.143749999999847500e-01,-4.158124999999986748e+00,-6.626874999999987637e+00,-9.611249999999991189e+00,-1.145499999999999119e+01,-1.167374999999999119e+01,-1.236124999999999297e+01,-1.314249999999999474e+01,-1.207999999999999297e+01,-1.173624999999999297e+01,-1.164249999999999119e+01,-1.075187499999999119e+01,-9.892499999999989413e+00,-9.673749999999989413e+00,-9.970624999999991189e+00,-1.040812499999999119e+01,-1.279874999999999297e+01,-1.632999999999999474e+01,-2.011124999999999829e+01,-2.622062499999999829e+01,-3.531437500000000540e+01
1.115625000000000533e+01,1.284375000000000711e+01,1.020312500000000711e+01,7.296875000000004441e+00,8.953125000000007105e+00,4.625000000000002665e+00,6.265625000000004441e+00,1.028125000000000711e+01,9.515625000000005329e+00,1.373437500000000711e+01,1.060937500000000711e+01,2.000000000000000888e+00,-6.359375000000004441e+00,-1.945312500000001066e+01,-2.718750000000001776e+01,-2.925000000000002132e+01,-2.695312500000001776e+01,-1.939062500000001421e+01,-1.209375000000000888e+01,-6.078125000000003553e+00,-2.296875000000001776e+00,-7.812500000000004441e-01,-1.406250000000000833e-01,-6.250000000000004163e-02,-6.250000000000004163e-02,0.000000000000000000e+00,1.562500000000001041e-02,1.093750000000000833e-01,2.187500000000001665e-01,2.343750000000001665e-01,2.656250000000002220e-01,1.406250000000001110e-01,-3.125000000000000694e-02,-1.406250000000000833e-01,-2.500000000000001665e-01,-1.875000000000001110e-01,-9.375000000000006939e-02,-1.562500000000001388e-02,6.250000000000004163e-02,-6.938893903907228378e-18,-2.484375000000001332e+00,-7.453125000000003553e+00,-1.354687500000000711e+01,-2.095312500000001421e+01,-2.110937500000001421e+01,-1.414062500000000888e+01,-5.937500000000003553e+00,6.046875000000005329e+00,7.281250000000005329e+00,-4.171875000000003553e+00,-1.978125000000001421e+01,-4.931250000000004263e+01,-7.506250000000005684e+01,-8.718750000000005684e+01,-8.818750000000005684e+01,-5.910937500000004263e+01,-1.325000000000001776e+01,3.375000000000001421e+01,7.684375000000005684e+01,9.620312500000007105e+01,9.223437500000008527e+01,7.525000000000005684e+01,4.985937500000004263e+01,2.676562500000002132e+01,1.207812500000000711e+01,3.593750000000002665e+00,4.218750000000002776e-01,1.562500000000001110e-01,1.875000000000001665e-01,3.125000000000002220e-01,3.750000000000002776e-01,3.437500000000002220e-01,2.812500000000001665e-01,1.718750000000001110e-01,-1.562500000000000000e-02,-9.375000000000005551e-02,-1.562500000000001110e-01,-1.093750000000000694e-01,-1.562500000000001041e-02,1.562500000000001041e-02,4.687500000000002776e-02,-3.125000000000002776e-02,-7.812500000000005551e-02,-1.093750000000000833e-01,-1.250000000000000833e-01,-7.812500000000005551e-02,4.687500000000004857e-02,1.562500000000001110e-01,2.031250000000001388e-01,2.187500000000001665e-01,-1.562499999999998612e-02,-1.718750000000001110e-01,-2.187500000000001110e-01,-2.031250000000001110e-01,9.375000000000004163e-02,2.343750000000001665e-01,2.656250000000001665e-01,2.031250000000001110e-01,-4.687500000000002082e-02,-1.250000000000000833e-01,-1.406250000000001110e-01,-9.375000000000006939e-02,1.562500000000001041e-02,-1.562500000000001735e-02,-6.250000000000005551e-02,-1.250000000000001110e-01,-1.406250000000001110e-01,-3.125000000000004163e-02,9.375000000000005551e-02,2.343750000000001665e-01,2.968750000000002220e-01,2.500000000000001665e-01,1.562500000000001110e-01,1.562500000000000694e-02,-1.093750000000000833e-01,-7.812500000000005551e-02,1.312500000000000666e+00,4.125000000000001776e+00,8.281250000000003553e+00,1.401562500000001066e+01,1.710937500000001776e+01,1.837500000000002132e+01,1.759375000000002487e+01,1.368750000000001776e+01,1.150000000000000888e+01,7.968749999999999112e+00,4.703124999999989342e+00,2.531249999999991118e+00,-4.531250000000072164e-01,-6.875000000000037748e-01,-3.906250000000001110e-01,-7.812500000000000000e-02,1.046875000000000444e+00,1.187500000000000666e+00,1.000000000000000444e+00,1.031250000000000444e+00,6.562500000000003331e-01,7.968750000000003331e-01,1.250000000000000000e-01,4.843750000000002220e-01,-8.437500000000004441e-01,-4.046875000000002665e+00,-4.031250000000002665e+00,-5.984375000000003553e+00,-5.359375000000003553e+00,-2.421875000000000888e+00,-3.984375000000002665e+00,-4.843750000000003553e+00,-5.890625000000003553e+00,-9.375000000000007105e+00,-8.843750000000007105e+00,-5.890625000000004441e+00,-4.375000000000003553e+00,6.406250000000004441e-01,2.593750000000001332e+00,1.875000000000001110e-01,-1.171875000000001110e+00,-6.078125000000003553e+00,-8.890625000000005329e+00,-8.843750000000005329e+00,-9.359375000000005329e+00,-7.656250000000005329e+00,-6.375000000000004441e+00,-5.140625000000003553e+00,-3.578125000000002665e+00,-2.453125000000001776e+00,-1.593750000000001332e+00,-1.281250000000000888e+00,-7.656250000000004441e-01,-5.312500000000003331e-01,-2.968750000000001665e-01,-1.562500000000001041e-02,-1.562500000000001041e-02,3.125000000000002082e-02,3.125000000000002082e-02,-5.625000000000003331e-01,-1.562500000000000888e+00,-3.281250000000001776e+00,-4.968750000000003553e+00,-4.703125000000003553e+00,-3.687500000000002665e+00,-3.125000000000004441e-01,1.468750000000000888e+00,-9.843750000000006661e-01,-3.343750000000002665e+00,-9.703125000000007105e+00,-1.217187500000000711e+01,-8.125000000000003553e+00,-5.359375000000002665e+00,2.937500000000002665e+00,9.687500000000007105e+00,1.067187500000000711e+01,1.335937500000000888e+01,1.067187500000000711e+01,4.937500000000003553e+00,2.421875000000001776e+00,-1.046875000000000444e+00,-2.859375000000001776e+00,-1.171875000000000666e+00,-2.406250000000001332e+00,-5.046875000000003553e+00,-4.359375000000002665e+00,-5.375000000000003553e+00,-3.390625000000002220e+00,1.156250000000001332e+00,-2.015625000000000888e+00,-6.234375000000004441e+00,-1.181250000000000711e+01,-1.807812500000001421e+01,-1.312500000000001066e+01,-3.656250000000003109e+00,5.390625000000003553e+00,1.326562500000001066e+01,8.000000000000007105e+00,-3.703125000000002220e+00,-1.565625000000001066e+01,-2.784375000000001776e+01,-2.895312500000001776e+01,-2.440625000000001421e+01,-1.781250000000001066e+01,-8.015625000000001776e+00,-1.749999999999998890e+00,4.015625000000003553e+00,1.032812500000000711e+01,1.520312500000000711e+01,1.793750000000001066e+01,1.578125000000000888e+01,9.812500000000003553e+00,9.687499999999933387e-01,-6.328125000000015987e+00,-7.218750000000019540e+00,-3.546875000000010214e+00,4.984375000000001776e+00,1.571875000000001776e+01,2.253125000000002842e+01,2.489062500000002842e+01,2.279687500000002132e+01,1.640625000000001421e+01,9.890625000000007105e+00,5.328125000000003553e+00,2.515625000000001776e+00,1.687500000000001332e+00,1.937500000000001332e+00,2.625000000000001776e+00,3.359375000000002220e+00,5.218750000000007105e+00,6.531250000000011546e+00,8.296875000000015987e+00,1.103125000000002132e+01,1.101562500000001421e+01,1.342187500000000711e+01,1.284375000000000000e+01,9.874999999999992895e+00,1.006249999999999645e+01,4.609374999999996447e+00,9.999999999999968914e-01,-2.046875000000003109e+00,-9.109375000000007105e+00,-1.270312500000001066e+01,-1.490625000000001066e+01,-1.548437500000001066e+01,-1.162500000000000711e+01,-4.718750000000002665e+00,-6.875000000000002220e-01,1.703125000000001554e+00,5.156250000000006661e-01,-7.703125000000005329e+00,-1.201562500000000711e+01,-1.418750000000000888e+01,-1.387500000000000888e+01,-5.515625000000003553e+00,-7.500000000000005551e-01,1.859375000000000888e+00,4.671875000000002665e+00,3.093750000000001776e+00,4.578125000000003553e+00,6.781250000000005329e+00,8.312500000000005329e+00,6.546875000000003553e+00,1.546875000000000222e+00,-4.843750000000007772e-01,-7.125000000000005329e+00,-6.062500000000005329e+00,-2.625000000000001776e+00,-7.031250000000005329e+00,-1.156250000000000888e+00,-7.968750000000008882e-01,-1.468750000000001332e+00,5.921875000000003553e+00,2.828125000000002220e+00,1.312500000000000888e+00,-1.062500000000000888e+00,-6.156250000000003553e+00,-4.859375000000003553e+00,-4.343750000000002665e+00,-1.140625000000000444e+00,-2.031249999999997780e-01,-4.843750000000001110e-01,6.875000000000002220e-01,1.140625000000000666e+00,6.421875000000003553e+00,7.421875000000004441e+00,9.359375000000007105e+00,7.593750000000005329e+00,-2.468750000000002220e+00,-3.843750000000003109e+00,-1.025000000000000533e+01,-1.046875000000000533e+01,2.031250000000001776e+00,4.296875000000003553e+00,1.301562500000000711e+01,1.618750000000001066e+01,8.093750000000003553e+00,8.218750000000003553e+00,2.593750000000001332e+00,-1.703125000000000888e+00,-2.265625000000000888e+00,-5.484375000000003553e+00,-4.281250000000002665e+00,1.562499999999977796e-02,3.625000000000002220e+00,4.078125000000002665e+00,2.359375000000001776e+00,-3.171875000000002220e+00,-6.734375000000005329e+00,-4.812500000000003553e+00,-2.937500000000001776e+00,7.968750000000006661e-01,4.437500000000003553e+00,3.109375000000002220e+00,2.062500000000001332e+00,1.671875000000000888e+00,-1.015625000000000444e+00,-8.906250000000004441e-01,6.250000000000004441e-01,9.375000000000019429e-02,1.531250000000000888e+00,2.671875000000001332e+00,9.843750000000004441e-01,5.468750000000002220e-01,3.906250000000002220e-01,-3.124999999999955591e-02,2.375000000000001776e+00,6.703125000000003553e+00,7.234375000000005329e+00,7.781250000000005329e+00,6.437500000000003553e+00,4.687500000000006661e-01,1.093750000000000444e+00,1.812500000000001776e+00,3.609375000000003553e+00,8.421875000000007105e+00,4.828125000000004441e+00,-3.124999999999955591e-02,-5.281250000000003553e+00,-1.159375000000000711e+01,-9.921875000000007105e+00,-6.640625000000005329e+00,-4.718750000000003553e+00,-2.656250000000000000e-01,1.156250000000000444e+00,1.375000000000000666e+00,4.578125000000002665e+00,4.546875000000002665e+00,8.437500000000005551e-01,-7.968750000000006661e-01,-5.687500000000003553e+00,-9.890625000000007105e+00,-7.156250000000005329e+00,-7.828125000000005329e+00,-6.750000000000005329e+00,-3.046875000000002665e+00,-5.687500000000003553e+00,-4.421875000000002665e+00,-1.437500000000000888e+00,-3.109375000000001776e+00,5.625000000000000000e-01,1.375000000000000666e+00,-9.375000000000006661e-01,1.750000000000000888e+00,2.812500000000000000e-01,2.031249999999997780e-01,9.531250000000003331e-01,-8.281250000000006661e-01,-6.250000000000004441e-01,-1.875000000000001332e+00,-1.453125000000001110e+00,-2.328125000000001332e+00,-3.500000000000001776e+00,-9.062500000000002220e-01,-7.968750000000001110e-01,1.453125000000001332e+00,3.921875000000002665e+00,1.062500000000000888e+00,3.437500000000003331e-01,1.875000000000003331e-01,-7.500000000000002220e-01,1.750000000000001332e+00,2.781250000000001776e+00,1.250000000000000888e+00,3.437500000000000000e-01,-1.812500000000001554e+00,-3.218750000000002665e+00,-3.078125000000002665e+00,-3.281250000000002665e+00,-2.750000000000001776e+00,-2.484375000000001776e+00,-3.312500000000002665e+00,-3.921875000000002665e+00,-4.500000000000003553e+00,-5.906250000000003553e+00,-3.968750000000002665e+00,-1.781250000000000888e+00,-6.249999999999955591e-02,5.250000000000003553e+00,7.015625000000004441e+00,8.390625000000003553e+00,1.054687500000000533e+01,8.656250000000005329e+00,6.515625000000004441e+00,5.328125000000003553e+00,2.046875000000000888e+00,-1.359375000000001110e+00,-1.859375000000001332e+00,-4.359375000000003553e+00,-5.109375000000003553e+00,-2.531250000000001776e+00,-1.562500000000001332e+00,5.156250000000003331e-01,2.500000000000001776e+00,1.640625000000001332e+00,-2.031249999999997780e-01,-1.531250000000000888e+00,-3.046875000000001776e+00,-3.234375000000002220e+00,-1.812500000000001332e+00,-1.062500000000000888e+00,-4.218750000000003331e-01,-1.250000000000001110e-01,-4.218750000000002776e-01,-3.750000000000002220e-01,-7.812500000000004441e-01,-2.031250000000000888e+00,-3.593750000000001776e+00,-7.000000000000003553e+00,-9.828125000000007105e+00,-1.048437500000000711e+01,-1.146875000000000888e+01,-7.593750000000005329e+00,-3.078125000000001776e+00,-5.156249999999993339e-01,4.390625000000003553e+00,3.281250000000002665e+00,1.015625000000000444e+00,-5.000000000000013323e-01,-4.796875000000004441e+00,-3.812500000000003553e+00,-1.343750000000001110e+00,4.375000000000001110e-01,3.984375000000002220e+00,4.328125000000002665e+00,1.828125000000001110e+00,8.593750000000006661e-01,-2.031250000000000888e+00,-6.390625000000005329e+00,-7.265625000000005329e+00,-8.078125000000005329e+00,-5.421875000000003553e+00,2.984375000000003109e+00,9.578125000000007105e+00,1.226562500000000711e+01,1.134375000000000888e+01,5.703125000000004441e+00,-1.734375000000000444e+00,-3.437500000000001776e+00,-3.890625000000002220e+00,-4.062500000000002665e+00,9.375000000000000000e-02,-1.718750000000001332e+00,-3.562500000000002665e+00,-3.546875000000001776e+00,-8.046875000000003553e+00,-6.031250000000003553e+00,-2.125000000000000888e+00,4.687499999999977796e-02,7.125000000000003553e+00,8.906250000000003553e+00,5.906250000000003553e+00,4.687500000000002665e+00,-2.531250000000001332e+00,-7.406250000000004441e+00,-6.218750000000003553e+00,-7.390625000000003553e+00,-2.140625000000000888e+00,3.500000000000001776e+00,5.031250000000003553e+00,9.968750000000007105e+00,9.500000000000007105e+00,5.906250000000003553e+00,3.500000000000001332e+00,-2.187500000000002220e+00,-5.484375000000004441e+00,-4.000000000000003553e+00,-4.296875000000002665e+00,-3.609375000000000888e+00,-2.812500000000000888e+00,-7.031250000000004441e+00,-6.546875000000004441e+00,-4.046875000000003553e+00,-8.593750000000008882e-01,8.453125000000005329e+00,1.375000000000000888e+01,1.462500000000000711e+01,1.334375000000000000e+01,5.328124999999992006e+00,-3.125000000000015987e+00,-6.265625000000011546e+00,-7.656250000000005329e+00,-4.453124999999995559e+00,2.140625000000015543e+00,5.015625000000014211e+00,7.343750000000010658e+00,8.062500000000008882e+00,5.953125000000004441e+00,4.875000000000003553e+00,3.468750000000002220e+00,1.968750000000001332e+00,1.296875000000000888e+00,6.093750000000004441e-01,1.875000000000001110e-01,-3.125000000000002776e-02,-1.562500000000001110e-01,-1.562500000000001110e-01,-9.375000000000006939e-02,-3.469446951953614189e-18,4.687500000000003469e-02,3.125000000000002776e-02,-4.687500000000003469e-02,-4.687500000000004163e-02,-4.687500000000004163e-02,-4.687500000000004857e-02,3.125000000000002082e-02,1.562500000000001388e-02,4.687500000000002776e-02,1.250000000000000833e-01,9.375000000000005551e-02,9.375000000000005551e-02,4.687500000000002776e-02,-4.687500000000002776e-02,-3.125000000000002082e-02,-3.125000000000002082e-02,-1.562500000000001041e-02,1.562500000000001041e-02,-1.562500000000001041e-02,1.562500000000001041e-02,4.687500000000002776e-02,7.812500000000005551e-02,1.250000000000000833e-01,7.812500000000005551e-02,6.250000000000004163e-02,3.125000000000002776e-02,1.562500000000001041e-02,4.687500000000002776e-02,-4.687500000000002776e-02,-9.375000000000006939e-02,-2.031250000000001665e-01,-2.656250000000002220e-01,-1.406250000000001110e-01,-4.687500000000004163e-02,1.406250000000001110e-01,2.187500000000001665e-01,1.718750000000001388e-01,9.375000000000008327e-02,-3.125000000000002082e-02,-4.687500000000002776e-02,-3.125000000000002082e-02,3.125000000000002776e-02,6.250000000000004163e-02,4.687500000000002776e-02,4.687500000000002776e-02,6.250000000000005551e-02,1.250000000000000833e-01,1.562500000000001110e-01,1.562500000000001110e-01,4.687500000000004163e-02,-6.250000000000002776e-02,-7.812500000000005551e-02,-7.812500000000008327e-02,9.375000000000005551e-02,2.968750000000001665e-01,4.062500000000002776e-01,5.937500000000004441e-01,1.234375000000000888e+00,2.656250000000002220e+00,5.562500000000004441e+00,1.006250000000001066e+01,1.390625000000001776e+01,1.679687500000002132e+01,1.607812500000002132e+01,1.104687500000001421e+01,6.656250000000004441e+00,9.218749999999922284e-01,-7.187500000000144329e-01,1.890624999999991118e+00,7.656249999999940048e-01,-7.343750000000024425e-01,-9.984375000000005329e+00,-2.035937500000001066e+01,-2.053125000000001066e+01,-7.781250000000003553e+00,2.406250000000001421e+01,5.256250000000002842e+01,6.504687500000004263e+01,5.018750000000002842e+01,7.859375000000003553e+00,-3.132812500000001776e+01,-5.859375000000003553e+01,-6.040625000000004263e+01,-4.350000000000002842e+01,-2.492187500000001421e+01,-5.750000000000004441e+00,1.687500000000001332e+00,6.578125000000004441e+00,8.656250000000007105e+00,3.500000000000001776e+00,2.531250000000001776e+00,-2.812500000000001332e+00,-6.203125000000003553e+00,-4.468750000000002665e+00,-4.921875000000002665e+00,-5.312500000000000000e-01,5.625000000000006661e-01,-7.812500000000000000e-02,-1.406250000000000000e-01,-5.750000000000003553e+00,-7.718750000000005329e+00,-7.781250000000005329e+00,-8.937500000000005329e+00,-3.031250000000001776e+00,1.656250000000000888e+00,4.250000000000002665e+00,1.067187500000000711e+01,1.170312500000000711e+01,1.332812500000000711e+01,1.379687500000000711e+01,9.203125000000005329e+00,4.187500000000002665e+00,-2.531250000000001332e+00,-5.156250000000003553e+00,-3.937500000000002665e+00,6.250000000000006661e-01,4.140625000000003553e+00,2.937500000000002220e+00,-2.921875000000001332e+00,-9.968750000000005329e+00,-1.242187500000000711e+01,-1.175000000000000711e+01,-4.109375000000001776e+00,1.953125000000001332e+00,4.468750000000003553e+00,7.734375000000005329e+00,4.640625000000003553e+00,3.953125000000002665e+00,4.203125000000002665e+00,1.093750000000000888e+00,1.656250000000000888e+00,2.187500000000000000e-01,-1.250000000000000666e+00,-9.218750000000006661e-01,-3.343750000000001776e+00,-3.406250000000002220e+00,-3.765625000000002665e+00,-3.765625000000002665e+00,-1.110223024625156540e-16,-5.625000000000004441e-01,-8.593750000000005551e-01,-1.656250000000000888e+00,-6.406250000000003553e+00,-5.250000000000003553e+00,-3.406250000000002665e+00,-1.125000000000001110e+00,4.046875000000002665e+00,4.859375000000003553e+00,3.953125000000002665e+00,3.671875000000002665e+00,2.265625000000001776e+00,1.171875000000000888e+00,2.171875000000001776e+00,-6.249999999999977796e-02,-2.703125000000001776e+00,-3.062500000000001776e+00,-5.531250000000003553e+00,-4.375000000000003553e+00,-3.750000000000002665e+00,-3.890625000000002665e+00,-2.390625000000001776e+00,-8.125000000000005551e-01,3.593750000000003109e+00,4.687500000000003553e+00,5.734375000000003553e+00,2.281250000000001776e+00,-4.593750000000002665e+00,-4.921875000000003553e+00,-7.296875000000003553e+00,-3.265625000000001332e+00,2.593750000000001776e+00,1.250000000000001110e+00,3.171875000000001776e+00,-6.093750000000008882e-01,-3.703125000000002665e+00,-8.125000000000006661e-01,9.374999999999983347e-02,4.046875000000002665e+00,6.859375000000005329e+00,4.890625000000003553e+00,1.781250000000001110e+00,-4.375000000000003331e-01,-4.437500000000002665e+00,-3.968750000000002665e+00,-9.687500000000007772e-01,-1.734375000000001332e+00,2.062500000000000888e+00,2.421875000000001332e+00,1.546875000000000888e+00,3.656250000000002665e+00,1.703125000000001110e+00,1.093750000000000833e-01,-1.812500000000001332e+00,-4.031250000000002665e+00,-5.640625000000003553e+00,-4.625000000000003553e+00,-2.140625000000001776e+00,-1.265625000000001110e+00,3.015625000000001776e+00,3.937500000000002665e+00,1.593750000000000888e+00,2.828125000000001776e+00,-1.625000000000000888e+00,-3.421875000000002220e+00,-6.093750000000005551e-01,-3.078125000000001776e+00,8.125000000000008882e-01,3.015625000000002220e+00,1.140625000000000888e+00,3.703125000000002220e+00,-2.500000000000000000e-01,-2.828125000000001332e+00,-3.531250000000002665e+00,-5.828125000000003553e+00,-2.734375000000001776e+00,-2.796875000000001776e+00,-2.234375000000000888e+00,-1.718750000000000888e+00,-3.265625000000001776e+00,1.687500000000001332e+00,5.296875000000003553e+00,8.312500000000005329e+00,1.081250000000000711e+01,5.734375000000003553e+00,1.484375000000000888e+00,-2.015625000000001332e+00,-5.921875000000003553e+00,-5.578125000000003553e+00,-6.453125000000003553e+00,-5.812500000000003553e+00,-3.046875000000001776e+00,-7.500000000000001110e-01,4.515625000000003553e+00,6.296875000000003553e+00,5.828125000000003553e+00,5.531250000000003553e+00,2.187500000000000000e-01,-2.609375000000002220e+00,-4.281250000000003553e+00,-7.765625000000005329e+00,-5.343750000000003553e+00,-3.718750000000001776e+00,-1.140625000000000000e+00,4.312500000000002665e+00,4.109375000000002665e+00,4.875000000000003553e+00,2.781250000000001776e+00,-1.734375000000001332e+00,-7.968750000000006661e-01,-1.500000000000001110e+00,8.281250000000000000e-01,4.015625000000002665e+00,2.484375000000001776e+00,2.078125000000001332e+00,6.875000000000005551e-01,3.281250000000003331e-01,1.656250000000001332e+00,2.250000000000001332e+00,1.484375000000000888e+00,-2.375000000000001776e+00,-3.703125000000002665e+00,-2.890625000000001776e+00,-1.828125000000001332e+00,2.796875000000002220e+00,2.437500000000001776e+00,-1.921875000000001332e+00,-2.468750000000001776e+00,-4.921875000000003553e+00,-2.687500000000001776e+00,4.000000000000002665e+00,4.859375000000003553e+00,6.062500000000003553e+00,5.250000000000003553e+00,1.406250000000000666e+00,6.406250000000003331e-01,3.906250000000001665e-01,-1.546875000000001332e+00,-3.265625000000002665e+00,-4.140625000000002665e+00,-6.921875000000003553e+00,-5.328125000000003553e+00,-2.937500000000001776e+00,-2.031250000000001332e+00,2.968750000000001332e+00,2.968750000000001332e+00,4.781250000000002665e+00,6.906250000000003553e+00,3.984375000000002665e+00,3.671875000000002665e+00,-9.062500000000004441e-01,-4.546875000000003553e+00,-5.390625000000003553e+00,-5.000000000000003553e+00,-1.671875000000001110e+00,-9.531250000000004441e-01,2.968750000000002220e-01,-6.250000000000005551e-01,-8.906250000000009992e-01,1.453125000000000888e+00,2.515625000000001776e+00,4.828125000000003553e+00,5.109375000000003553e+00,3.671875000000002665e+00,3.015625000000002220e+00,-2.031250000000004441e-01,-3.328125000000002665e+00,-3.484375000000002665e+00,-5.406250000000003553e+00,-2.828125000000001776e+00,4.843750000000001110e-01,-1.875000000000004996e-01,1.562500000000000666e+00,-1.015625000000000666e+00,-1.953125000000000888e+00,-2.812500000000000000e-01,2.031250000000003331e-01,4.359375000000002665e+00,4.812500000000002665e+00,4.625000000000002665e+00,5.156250000000002665e+00,2.218750000000001332e+00,2.390625000000001776e+00,1.328125000000000888e+00,-2.593750000000001332e+00,-4.937500000000003553e+00,-7.656250000000005329e+00,-7.781250000000005329e+00,-3.187500000000002665e+00,2.562500000000002220e+00,5.921875000000005329e+00,6.328125000000005329e+00,3.921875000000002665e+00,2.968750000000003331e-01,-1.906250000000001332e+00,-5.625000000000005551e-01,-1.109375000000000888e+00,-1.937500000000001554e+00,-7.187500000000005551e-01,-3.531250000000002665e+00,-1.671875000000001332e+00,4.843750000000002220e-01,6.718750000000002220e-01,3.296875000000002220e+00,2.937500000000001776e+00,2.765625000000001776e+00,1.609375000000000888e+00,1.343750000000000444e+00,1.656250000000001110e+00,1.859375000000001554e+00,3.484375000000002665e+00,1.343750000000001110e+00,-1.875000000000001332e+00,-4.421875000000002665e+00,-7.468750000000004441e+00,-6.296875000000003553e+00,-3.734375000000002220e+00,-2.421875000000001776e+00,2.031250000000002220e-01,1.375000000000000888e+00,3.281250000000002220e+00,5.437500000000003553e+00,5.281250000000003553e+00,2.218750000000001332e+00,-3.109375000000002220e+00,-8.000000000000005329e+00,-1.081250000000000711e+01,-7.734375000000005329e+00,-2.890625000000001776e+00,3.015625000000002220e+00,8.484375000000005329e+00,8.281250000000005329e+00,7.640625000000005329e+00,5.000000000000003553e+00,1.250000000000000888e+00,-4.687500000000005551e-02,-1.140625000000000888e+00,-1.015625000000000444e+00,-1.265625000000000888e+00,-1.062500000000000666e+00,-2.296875000000001332e+00,-4.562500000000002665e+00,-3.171875000000001776e+00,-1.250000000000000888e+00,1.828125000000000888e+00,5.390625000000003553e+00,3.796875000000002665e+00,-6.093749999999998890e-01,-3.687500000000001776e+00,-5.140625000000002665e+00,-1.921875000000000888e+00,2.656250000000001776e+00,4.218750000000002665e+00,3.765625000000002220e+00,-9.218750000000004441e-01,-3.031250000000001776e+00,-2.875000000000001776e+00,-3.640625000000002220e+00,1.562500000000000000e-01,-1.562500000000022204e-02,-3.125000000000004441e-01,3.812500000000001776e+00,3.593750000000001776e+00,4.625000000000003553e+00,4.406250000000003553e+00,-1.765625000000001332e+00,-4.703125000000003553e+00,-5.187500000000003553e+00,-3.625000000000003109e+00,2.453125000000000888e+00,6.046875000000003553e+00,6.937500000000004441e+00,4.234375000000002665e+00,5.781250000000006661e-01,-1.125000000000000444e+00,-3.250000000000001776e+00,-1.984375000000001332e+00,-2.531250000000001332e+00,-4.203125000000002665e+00,-4.203125000000002665e+00,-3.812500000000002665e+00,-1.609375000000001110e+00,7.968750000000006661e-01,3.734375000000002665e+00,1.906250000000001332e+00,5.625000000000005551e-01,-1.140625000000000444e+00,-5.625000000000003553e+00,-3.750000000000002220e+00,-4.656250000000003553e+00,-3.265625000000002220e+00,9.687500000000007772e-01,9.062500000000008882e-01,3.343750000000002665e+00,2.890625000000002665e+00,2.593750000000001776e+00,4.031250000000003553e+00,5.140625000000003553e+00,8.515625000000005329e+00,8.546875000000005329e+00,6.390625000000003553e+00,4.265625000000002665e+00,-1.468750000000000666e+00,-4.843750000000002665e+00,-4.453125000000002665e+00,-5.828125000000003553e+00,-3.796875000000002665e+00,-1.015625000000000666e+00,-1.593750000000001332e+00,-1.000000000000000888e+00,-6.562500000000005551e-01,-2.343750000000001776e+00,-2.812500000000001776e+00,-2.187500000000001332e+00,-2.343750000000001332e+00,-7.500000000000003331e-01,1.296875000000000888e+00,2.562500000000001776e+00,3.218750000000001776e+00,2.890625000000001776e+00,2.265625000000001776e+00,2.156250000000001776e+00,4.625000000000003553e+00,6.781250000000005329e+00,1.032812500000000711e+01,1.273437500000000711e+01
-7.875000000000004441e+00,-5.125000000000002665e+00,7.375000000000003553e+00,1.212500000000000533e+01,2.500000000000000000e+00,-1.187500000000000711e+01,-2.500000000000000000e-01,1.168750000000000711e+01,1.875000000000017764e-01,-3.750000000000000000e-01,8.437500000000001776e+00,7.875000000000003553e+00,1.687500000000002442e+00,-9.187500000000005329e+00,-1.543750000000000711e+01,-1.268750000000000533e+01,-7.750000000000002665e+00,-3.062500000000000888e+00,-3.125000000000001665e-01,2.500000000000001110e-01,0.000000000000000000e+00,-2.500000000000001110e-01,-6.250000000000002776e-02,1.250000000000000555e-01,6.250000000000002776e-02,-6.250000000000002776e-02,-1.250000000000000555e-01,0.000000000000000000e+00,1.250000000000000555e-01,1.250000000000000555e-01,1.250000000000000555e-01,6.250000000000002776e-02,6.250000000000002776e-02,0.000000000000000000e+00,-3.125000000000001110e-01,-3.125000000000001110e-01,1.250000000000000833e-01,3.125000000000001665e-01,0.000000000000000000e+00,-1.875000000000000833e-01,6.250000000000002776e-02,6.250000000000002776e-02,-1.875000000000000833e-01,-6.250000000000002776e-02,-9.687500000000003553e+00,-2.950000000000001066e+01,-1.456250000000000533e+01,3.450000000000001421e+01,3.262500000000001421e+01,-1.737500000000000711e+01,-2.793750000000001066e+01,4.750000000000001776e+00,1.306250000000000533e+01,-3.993750000000001421e+01,-7.968750000000002842e+01,-3.100000000000001421e+01,1.925000000000000355e+01,1.324999999999999467e+01,2.406249999999999289e+01,5.156250000000002132e+01,4.093750000000003553e+01,1.318750000000001243e+01,1.937500000000000888e+00,6.875000000000003331e-01,6.250000000000005551e-02,-3.750000000000001665e-01,-2.500000000000001110e-01,1.250000000000000833e-01,2.500000000000001110e-01,1.875000000000000833e-01,0.000000000000000000e+00,-6.250000000000002776e-02,1.875000000000001110e-01,2.500000000000001110e-01,0.000000000000000000e+00,-1.250000000000000555e-01,-2.500000000000001110e-01,-2.500000000000001110e-01,1.875000000000000833e-01,4.375000000000002220e-01,-6.250000000000000000e-02,-4.375000000000002220e-01,6.250000000000000000e-02,3.125000000000001110e-01,-1.875000000000000833e-01,-2.500000000000001110e-01,1.250000000000000555e-01,0.000000000000000000e+00,-6.250000000000002776e-02,3.750000000000002220e-01,3.750000000000002220e-01,-1.875000000000000833e-01,-6.250000000000003331e-01,-3.750000000000002220e-01,3.125000000000001110e-01,4.375000000000001665e-01,1.875000000000000833e-01,6.250000000000002776e-02,-1.250000000000000555e-01,-2.500000000000001110e-01,-1.875000000000000833e-01,6.250000000000002776e-02,2.500000000000001110e-01,6.250000000000002776e-02,-1.250000000000000555e-01,-6.250000000000002776e-02,-6.250000000000002776e-02,-1.875000000000000833e-01,-6.250000000000002776e-02,3.125000000000001110e-01,3.125000000000001110e-01,-6.250000000000002776e-02,-1.250000000000000555e-01,1.250000000000000555e-01,1.250000000000000555e-01,-1.875000000000001110e-01,-3.125000000000001665e-01,0.000000000000000000e+00,2.500000000000001110e-01,3.750000000000001665e-01,5.750000000000001776e+00,1.562500000000001243e+01,9.750000000000017764e+00,-8.500000000000003553e+00,-5.750000000000015987e+00,1.225000000000000000e+01,1.162500000000000533e+01,-6.125000000000003553e+00,-1.075000000000000533e+01,1.250000000000001332e+00,5.312500000000001776e+00,1.375000000000000222e+00,6.875000000000002220e-01,-3.500000000000001776e+00,-4.812500000000001776e+00,6.562500000000004441e+00,8.812500000000005329e+00,-7.250000000000005329e+00,-1.043750000000000533e+01,6.375000000000001776e+00,1.006250000000000178e+01,-1.562500000000000444e+00,-7.562500000000002665e+00,-7.625000000000003553e+00,-5.625000000000000000e-01,5.437500000000003553e+00,1.687500000000001110e+00,-6.250000000000011102e-02,-4.625000000000002665e+00,-1.000000000000000533e+01,2.250000000000000888e+00,6.875000000000003553e+00,-1.100000000000000355e+01,-1.018750000000000355e+01,1.193750000000000355e+01,1.600000000000000711e+01,-3.625000000000001776e+00,-1.781250000000000711e+01,-5.000000000000001776e+00,9.875000000000003553e+00,3.125000000000000000e-01,-1.075000000000000355e+01,-4.250000000000001776e+00,3.625000000000001332e+00,1.312500000000000444e+00,-2.312500000000000888e+00,-1.500000000000000444e+00,6.250000000000000000e-02,5.000000000000002220e-01,6.250000000000000000e-02,-3.750000000000002220e-01,-1.250000000000000833e-01,1.250000000000000555e-01,6.250000000000002776e-02,6.250000000000002776e-02,1.250000000000000555e-01,-6.250000000000002776e-02,-3.125000000000001665e-01,-1.250000000000000833e-01,-1.875000000000000888e+00,-5.750000000000002665e+00,-4.312500000000001776e+00,4.062500000000001776e+00,1.081250000000000533e+01,4.062500000000002665e+00,-1.081250000000000355e+01,-1.162500000000000533e+01,-6.437500000000003553e+00,-1.750000000000000888e+00,1.287500000000000355e+01,7.750000000000001776e+00,-1.293750000000000533e+01,5.000000000000017764e-01,2.281250000000001421e+01,8.875000000000005329e+00,-1.600000000000000711e+01,-1.431250000000000711e+01,8.687500000000003553e+00,1.400000000000000533e+01,-7.375000000000001776e+00,-1.031250000000000355e+01,7.125000000000003553e+00,9.375000000000008882e-01,-1.262500000000000711e+01,-3.750000000000002665e+00,1.112500000000000355e+01,1.512500000000000711e+01,-3.437500000000001776e+00,-2.681250000000001421e+01,-1.768750000000000711e+01,5.625000000000004441e+00,1.225000000000000711e+01,9.312500000000003553e+00,7.250000000000003553e+00,6.500000000000003553e+00,-6.750000000000001776e+00,-2.450000000000001066e+01,-1.581250000000000711e+01,1.312500000000001998e+00,-1.250000000000000000e-01,-4.937500000000004441e+00,-6.875000000000000000e-01,5.750000000000005329e+00,2.250000000000000444e+00,-6.187500000000005329e+00,4.437500000000002665e+00,2.475000000000001421e+01,1.293750000000000533e+01,-1.912500000000000711e+01,-1.493750000000000533e+01,1.012500000000000711e+01,1.374999999999993783e+00,-1.468750000000002132e+01,2.625000000000002665e+00,2.087500000000002132e+01,1.387500000000001243e+01,3.187500000000001776e+00,1.062500000000000666e+00,7.500000000000003331e-01,1.875000000000000555e-01,2.500000000000001665e-01,3.750000000000002220e-01,4.375000000000002220e-01,5.625000000000002220e-01,6.250000000000002220e-01,4.375000000000001110e-01,8.750000000000003331e-01,3.687500000000008882e+00,4.187500000000015987e+00,8.750000000000003331e-01,1.187499999999986677e+00,5.249999999999995559e+00,1.012500000000000355e+01,2.625000000000000444e+00,-1.156250000000000533e+01,2.187500000000001776e+00,1.606250000000000711e+01,-6.125000000000003553e+00,-1.812500000000000711e+01,-3.749999999999991118e-01,4.062500000000001776e+00,-9.562500000000003553e+00,-1.100000000000000533e+01,3.187500000000002220e+00,1.412500000000000711e+01,5.750000000000002665e+00,-7.500000000000003553e+00,-6.250000000000003553e+00,-8.000000000000003553e+00,-1.062500000000000533e+01,6.875000000000000000e-01,5.750000000000002665e+00,4.375000000000002665e+00,4.500000000000002665e+00,-4.187500000000001776e+00,-6.750000000000003553e+00,3.187500000000001332e+00,6.312500000000002665e+00,6.562500000000002665e+00,9.812500000000003553e+00,-5.875000000000002665e+00,-2.137500000000001066e+01,1.750000000000000000e+00,1.431250000000000711e+01,-3.125000000000000888e+00,-3.062500000000000444e+00,-5.312500000000001776e+00,-8.437500000000003553e+00,1.075000000000000533e+01,1.162500000000000533e+01,-3.562500000000001776e+00,-3.812500000000001776e+00,-2.187500000000000888e+00,-6.375000000000002665e+00,-2.312500000000000888e+00,6.062500000000002665e+00,1.250000000000000888e+00,-1.812500000000000444e+00,3.812500000000001332e+00,-4.375000000000001776e+00,-1.212500000000000355e+01,8.562500000000005329e+00,2.568750000000001421e+01,-2.250000000000000000e+00,-2.081250000000001066e+01,6.625000000000003553e+00,1.125000000000000711e+01,-1.250000000000000711e+01,-2.062500000000000711e+01,-4.687500000000001776e+00,3.156250000000001421e+01,2.762500000000001421e+01,-1.856250000000000711e+01,-2.181250000000000711e+01,8.187500000000003553e+00,1.750000000000000711e+01,5.375000000000003553e+00,-1.206250000000000355e+01,-1.756250000000000711e+01,-3.937500000000001776e+00,1.475000000000000711e+01,1.800000000000000711e+01,-4.375000000000000000e-01,-1.756250000000000711e+01,-7.375000000000002665e+00,6.375000000000002665e+00,1.250000000000004441e-01,-8.750000000000000000e-01,3.812500000000001776e+00,-1.750000000000001110e+00,2.187500000000000888e+00,7.500000000000003553e+00,-7.000000000000002665e+00,-9.937500000000003553e+00,7.750000000000003553e+00,9.312500000000003553e+00,-5.625000000000002665e+00,-9.437500000000003553e+00,4.312500000000001776e+00,1.450000000000000711e+01,-1.375000000000000000e+00,-1.800000000000000711e+01,-1.687500000000000000e+00,1.562500000000000711e+01,4.937500000000002665e+00,-3.187500000000000888e+00,1.062500000000000666e+00,3.312500000000001776e+00,3.187500000000001776e+00,-7.500000000000003553e+00,-1.143750000000000355e+01,9.125000000000003553e+00,2.181250000000000711e+01,5.687500000000003553e+00,-1.800000000000000711e+01,-1.712500000000000711e+01,3.000000000000001332e+00,5.250000000000001776e+00,-9.375000000000004441e-01,3.500000000000001776e+00,-3.750000000000001776e+00,-9.250000000000003553e+00,7.750000000000002665e+00,1.106250000000000355e+01,-3.125000000000000888e+00,-2.500000000000001332e+00,2.499999999999995559e-01,-4.687500000000001776e+00,-6.125000000000001776e+00,-4.437500000000001776e+00,5.000000000000001776e+00,5.250000000000001776e+00,-9.750000000000003553e+00,-4.437500000000001776e+00,6.250000000000002665e+00,-3.500000000000001776e+00,-3.125000000000001776e+00,6.375000000000002665e+00,3.250000000000001776e+00,-4.437500000000001776e+00,-7.250000000000003553e+00,3.437500000000001776e+00,1.200000000000000711e+01,-2.125000000000000888e+00,-1.325000000000000711e+01,6.250000000000088818e-02,1.056250000000000533e+01,-1.250000000000000000e-01,-6.000000000000002665e+00,-2.312500000000000888e+00,-4.187500000000001776e+00,2.562500000000001332e+00,9.750000000000003553e+00,4.375000000000000000e-01,-3.625000000000002220e+00,-1.937500000000001110e+00,-5.562500000000002665e+00,1.437500000000000888e+00,1.056250000000000533e+01,2.312500000000000888e+00,-7.125000000000003553e+00,-3.562500000000001776e+00,2.125000000000000888e+00,1.562500000000000888e+00,-1.062500000000000444e+00,-2.812500000000001332e+00,-3.437500000000001776e+00,1.500000000000000888e+00,5.625000000000003553e+00,-2.812500000000000444e+00,-9.687500000000003553e+00,-1.312500000000000000e+00,4.125000000000002665e+00,9.375000000000006661e-01,-1.062500000000000666e+00,-2.000000000000000888e+00,5.500000000000003553e+00,1.018750000000000533e+01,-1.437500000000000888e+00,-3.125000000000001776e+00,6.437500000000003553e+00,6.250000000000008882e-01,-3.437500000000001776e+00,3.562500000000001776e+00,-3.312500000000001776e+00,-7.500000000000003553e+00,4.125000000000001776e+00,1.812500000000000000e+00,-6.750000000000003553e+00,2.437500000000000888e+00,8.812500000000003553e+00,-4.375000000000000000e-01,-5.875000000000002665e+00,-2.625000000000000888e+00,6.250000000000005551e-02,7.500000000000004441e-01,3.750000000000002220e-01,-1.250000000000000555e-01,-1.250000000000000555e-01,-3.125000000000001110e-01,-3.750000000000001665e-01,-6.250000000000002776e-02,1.875000000000000833e-01,1.875000000000000833e-01,1.250000000000000555e-01,-2.125000000000000888e+00,-8.125000000000003553e+00,-6.437500000000001776e+00,3.375000000000001332e+00,-1.500000000000001332e+00,-7.375000000000003553e+00,7.062500000000002665e+00,1.125000000000000355e+01,-3.687500000000000888e+00,-8.187500000000003553e+00,2.375000000000000888e+00,4.500000000000001776e+00,-1.006250000000000355e+01,-8.500000000000003553e+00,1.450000000000000711e+01,1.325000000000000711e+01,-8.812500000000003553e+00,-1.006250000000000355e+01,2.062500000000000888e+00,7.562500000000003553e+00,4.000000000000000888e+00,-1.093750000000000355e+01,-1.575000000000000533e+01,-1.875000000000000000e-01,1.050000000000000355e+01,1.387500000000000711e+01,1.275000000000000533e+01,-6.250000000000003553e+00,-1.668750000000000711e+01,2.500000000000000000e+00,9.375000000000003553e+00,-5.000000000000001776e+00,-5.812500000000001776e+00,2.375000000000000888e+00,5.437500000000002665e+00,5.000000000000008882e-01,-7.312500000000002665e+00,-5.625000000000001776e+00,-3.750000000000001776e+00,8.125000000000000000e-01,1.075000000000000533e+01,2.000000000000000888e+00,-5.187500000000002665e+00,9.312500000000003553e+00,7.062500000000001776e+00,-1.125000000000000533e+01,-1.275000000000000533e+01,-9.375000000000004441e-01,8.500000000000003553e+00,2.375000000000000888e+00,-5.437500000000002665e+00,2.250000000000001776e+00,6.125000000000003553e+00,5.750000000000002665e+00,7.000000000000002665e+00,-5.187500000000002665e+00,-1.350000000000000533e+01,-1.499999999999999556e+00,6.937500000000003553e+00,3.125000000000001332e+00,-2.812500000000000888e+00,-4.500000000000001776e+00,-5.625000000000006661e-01,-4.000000000000001776e+00,-6.375000000000001776e+00,3.875000000000001776e+00,7.000000000000001776e+00,7.187500000000003553e+00,1.187500000000000711e+01,2.312500000000001776e+00,-8.437500000000003553e+00,-5.375000000000009770e+00,-5.750000000000017764e+00,-3.687499999999994671e+00,6.625000000000024869e+00,5.499999999999995559e+00,-7.500000000000144329e-01,1.500000000000007772e+00,3.250000000000008438e+00,1.187500000000000444e+00,1.250000000000000555e-01,1.875000000000000833e-01,1.875000000000000833e-01,1.250000000000000555e-01,1.250000000000000555e-01,0.000000000000000000e+00,-1.875000000000000833e-01,-2.500000000000001110e-01,-1.250000000000000555e-01,1.875000000000001110e-01,3.125000000000001665e-01,0.000000000000000000e+00,-2.500000000000001110e-01,-1.250000000000000555e-01,0.000000000000000000e+00,1.250000000000000555e-01,1.875000000000000833e-01,-1.250000000000000833e-01,-2.500000000000001110e-01,6.250000000000002776e-02,2.500000000000001110e-01,1.875000000000000833e-01,-6.250000000000002776e-02,-2.500000000000001110e-01,-6.250000000000002776e-02,1.250000000000000555e-01,6.250000000000002776e-02,0.000000000000000000e+00,0.000000000000000000e+00,-6.250000000000002776e-02,-1.250000000000000555e-01,6.250000000000002776e-02,2.500000000000001110e-01,6.250000000000002776e-02,-1.250000000000000555e-01,-6.250000000000002776e-02,0.000000000000000000e+00,0.000000000000000000e+00,1.250000000000000555e-01,1.875000000000000833e-01,-1.875000000000000833e-01,-3.750000000000001665e-01,-6.250000000000002776e-02,6.250000000000002776e-02,6.250000000000002776e-02,1.875000000000000833e-01,1.875000000000000833e-01,0.000000000000000000e+00,-1.250000000000000555e-01,-1.250000000000000555e-01,-1.250000000000000555e-01,6.250000000000002776e-02,3.125000000000001665e-01,1.250000000000000833e-01,-3.125000000000001110e-01,-2.500000000000001110e-01,2.500000000000001110e-01,3.125000000000001110e-01,-6.250000000000002776e-02,-6.250000000000002776e-02,1.875000000000000833e-01,-1.250000000000000555e-01,-4.375000000000002220e-01,6.250000000000000000e-02,3.750000000000001665e-01,1.250000000000000555e-01,1.250000000000000833e-01,6.250000000000005551e-02,-1.387778780781445676e-17,5.000000000000002220e-01,5.625000000000003331e-01,2.000000000000000888e+00,7.500000000000010658e+00,1.087500000000001954e+01,6.750000000000002665e+00,-1.937500000000015765e+00,-7.062500000000010658e+00,-1.687500000000000444e+00,1.375000000000001332e+00,-5.000000000000001110e-01,6.062500000000002665e+00,6.125000000000002665e+00,-3.437500000000001776e+00,-9.750000000000005329e+00,-2.400000000000001066e+01,-3.400000000000001421e+01,9.562500000000007105e+00,8.837500000000004263e+01,8.231250000000002842e+01,-2.037500000000000711e+01,-7.693750000000002842e+01,-4.281250000000001421e+01,3.750000000000008882e-01,5.437500000000003553e+00,-4.000000000000001776e+00,-6.125000000000003553e+00,-2.437500000000001776e+00,9.500000000000003553e+00,9.500000000000003553e+00,-3.187500000000000888e+00,-1.000000000000000000e+00,1.125000000000000444e+00,-4.625000000000002665e+00,-3.250000000000001776e+00,-9.375000000000003331e-01,-1.750000000000000666e+00,1.187500000000000444e+00,7.312500000000002665e+00,6.875000000000000000e-01,-9.000000000000003553e+00,7.500000000000008882e-01,2.062500000000000888e+00,-1.150000000000000533e+01,-4.750000000000001776e+00,6.687500000000003553e+00,4.187500000000001776e+00,2.812500000000001332e+00,3.750000000000000000e-01,5.000000000000000000e-01,7.312500000000002665e+00,8.562500000000003553e+00,3.312500000000001332e+00,-1.875000000000000444e+00,-7.625000000000001776e+00,-1.187500000000000533e+01,-2.250000000000001776e+00,1.387500000000000533e+01,1.356250000000000533e+01,-1.062500000000000444e+00,-1.106250000000000711e+01,-1.306250000000000711e+01,-8.750000000000003553e+00,3.312500000000000888e+00,9.500000000000003553e+00,5.812500000000002665e+00,-1.812500000000001110e+00,-6.250000000000002665e+00,4.125000000000002665e+00,7.812500000000003553e+00,-3.937500000000001332e+00,-1.750000000000000000e+00,4.562500000000002665e+00,-3.875000000000000888e+00,-4.937500000000001776e+00,7.625000000000003553e+00,4.875000000000002665e+00,-1.306250000000000711e+01,-7.875000000000004441e+00,1.037500000000000355e+01,3.812500000000001776e+00,-4.812500000000001776e+00,2.375000000000001776e+00,1.625000000000000888e+00,-8.000000000000003553e+00,-9.500000000000005329e+00,3.750000000000001776e+00,1.150000000000000533e+01,-1.312500000000000888e+00,-4.312500000000001776e+00,7.875000000000003553e+00,8.125000000000008882e-01,-1.118750000000000533e+01,1.937500000000000888e+00,1.368750000000000711e+01,2.187500000000001776e+00,-1.312500000000000533e+01,-1.062500000000000355e+01,7.000000000000002665e+00,1.000000000000000355e+01,-5.062500000000002665e+00,-9.062500000000003553e+00,-4.375000000000000000e-01,1.562500000000000888e+00,1.687500000000000888e+00,9.187500000000003553e+00,5.875000000000002665e+00,-5.500000000000002665e+00,-8.062500000000003553e+00,-7.375000000000003553e+00,-1.875000000000000000e-01,5.812500000000003553e+00,4.250000000000001776e+00,4.625000000000001776e+00,-2.562500000000001776e+00,-8.000000000000003553e+00,-1.437500000000000222e+00,1.062500000000000444e+00,1.875000000000000666e+00,4.625000000000001776e+00,3.875000000000001776e+00,2.875000000000001332e+00,-2.250000000000000888e+00,-8.062500000000003553e+00,-7.500000000000000000e-01,2.562500000000001776e+00,-2.625000000000000888e+00,4.250000000000001776e+00,4.250000000000001776e+00,-6.875000000000003553e+00,-2.937500000000001776e+00,8.062500000000003553e+00,7.187500000000003553e+00,-4.375000000000001776e+00,-1.087500000000000533e+01,-8.125000000000008882e-01,8.312500000000003553e+00,-3.125000000000001776e+00,-9.937500000000005329e+00,4.250000000000001776e+00,7.687500000000003553e+00,8.125000000000003331e-01,1.437500000000000444e+00,-3.375000000000001332e+00,-4.687500000000001776e+00,1.125000000000000222e+00,6.250000000000000000e-01,1.750000000000000666e+00,-1.500000000000000888e+00,-3.500000000000001776e+00,7.250000000000003553e+00,5.625000000000002665e+00,-5.750000000000002665e+00,-5.062500000000001776e+00,-3.125000000000001110e-01,-2.250000000000001332e+00,-3.062500000000001332e+00,6.250000000000003553e+00,6.562500000000003553e+00,-7.812500000000003553e+00,-1.206250000000000355e+01,-1.124999999999999556e+00,1.456250000000000533e+01,1.556250000000000533e+01,-2.312500000000000888e+00,-9.312500000000003553e+00,-3.187500000000001332e+00,-5.625000000000004441e-01,3.375000000000001776e+00,2.937500000000001332e+00,-7.750000000000003553e+00,-1.037500000000000533e+01,3.500000000000000888e+00,9.625000000000003553e+00,-1.062500000000000444e+00,3.750000000000000000e-01,7.875000000000003553e+00,-2.625000000000001776e+00,-6.187500000000003553e+00,3.437500000000001332e+00,3.749999999999995559e-01,-8.250000000000003553e+00,-5.250000000000001776e+00,5.375000000000001776e+00,4.562500000000000888e+00,-4.500000000000002665e+00,3.062500000000001776e+00,1.075000000000000533e+01,-1.750000000000000888e+00,-1.281250000000000711e+01,-4.875000000000002665e+00,1.050000000000000355e+01,6.250000000000002665e+00,-6.812500000000003553e+00,2.187500000000000888e+00,8.062500000000003553e+00,-8.937500000000005329e+00,-1.062500000000000533e+01,1.081250000000000533e+01,1.362500000000000711e+01,-3.312500000000000888e+00,-9.562500000000003553e+00,-9.062500000000003553e+00,-3.125000000000000888e+00,1.231250000000000355e+01,1.118750000000000355e+01,-4.000000000000001776e+00,-8.687500000000003553e+00,-7.125000000000003553e+00,-5.625000000000008882e-01,4.625000000000001776e+00,2.875000000000001332e+00,8.250000000000003553e+00,4.687500000000001776e+00,-1.225000000000000533e+01,-5.625000000000001776e+00,1.237500000000000533e+01,4.437500000000001776e+00,-8.000000000000003553e+00,-3.062500000000001332e+00,6.249999999999977796e-02,-2.750000000000001776e+00,-2.562500000000000888e+00,6.875000000000006661e-01,1.812500000000000888e+00,2.500000000000000555e-01,4.125000000000001776e+00,8.125000000000000000e-01,-5.312500000000002665e+00,7.125000000000002665e+00,1.093750000000000355e+01,-7.437500000000002665e+00,-1.425000000000000711e+01,-1.812500000000000888e+00,4.875000000000002665e+00,4.375000000000001776e+00,6.000000000000002665e+00,-4.000000000000001776e+00,-1.387500000000000711e+01,6.250000000000000000e-01,1.543750000000000711e+01,3.312500000000001776e+00,-1.093750000000000533e+01,4.375000000000000000e-01,1.068750000000000533e+01,-8.125000000000008882e-01,-4.562500000000002665e+00,1.437500000000000666e+00,-5.500000000000002665e+00,-6.750000000000003553e+00,4.250000000000001776e+00,7.250000000000003553e+00,1.937500000000000888e+00,-4.750000000000001776e+00,-4.750000000000001776e+00,3.125000000000001110e-01,2.125000000000000888e+00,9.375000000000004441e-01,1.875000000000000833e-01,5.000000000000001776e+00,4.375000000000001776e+00,-4.687500000000001776e+00,-3.125000000000001332e+00,3.187500000000001332e+00,4.000000000000001776e+00,3.312500000000001776e+00,-5.375000000000003553e+00,-1.331250000000000711e+01,-4.750000000000002665e+00,5.562500000000002665e+00,7.750000000000003553e+00,1.006250000000000355e+01,2.250000000000000000e+00,-1.343750000000000533e+01,-7.437500000000002665e+00,9.750000000000003553e+00,5.687500000000002665e+00,-3.000000000000000888e+00,-2.500000000000000888e+00,-5.062500000000002665e+00,-1.062500000000000444e+00,4.937500000000001776e+00,1.062500000000000444e+00,-1.250000000000000444e+00,-2.500000000000001665e-01,5.625000000000002220e-01,4.062500000000001776e+00,3.750000000000001776e+00,-6.187500000000003553e+00,-7.250000000000003553e+00,6.750000000000003553e+00,1.087500000000000533e+01,7.500000000000004441e-01,-8.125000000000003553e+00,-8.875000000000003553e+00,-2.125000000000000888e+00,2.687500000000001332e+00,3.312500000000001776e+00,2.875000000000001332e+00,-4.062500000000001776e+00,-7.812500000000002665e+00,3.312500000000002665e+00,1.293750000000000711e+01,5.500000000000003553e+00,-5.937500000000001776e+00,-7.187500000000002665e+00,-4.375000000000001776e+00,-4.562500000000001776e+00,-3.250000000000001332e+00,4.062500000000001776e+00,6.812500000000002665e+00,3.437500000000001776e+00,4.125000000000001776e+00,-6.250000000000008882e-01,-6.062500000000002665e+00,3.312500000000001776e+00,6.062500000000002665e+00,-7.312500000000003553e+00,-6.187500000000002665e+00,8.250000000000003553e+00,3.937500000000002220e+00,-5.812500000000002665e+00,-1.875000000000000888e+00,-4.562500000000001776e+00,-6.625000000000001776e+00,9.187500000000003553e+00,1.550000000000000533e+01,6.250000000000000000e-01,-1.137500000000000533e+01,-1.200000000000000533e+01,-3.937500000000001776e+00,9.625000000000003553e+00,1.387500000000000711e+01,1.250000000000000888e+00,-9.562500000000003553e+00,-4.750000000000001776e+00,-1.000000000000000444e+00,6.250000000000000000e-02,6.125000000000002665e+00,1.500000000000000000e+00,-5.625000000000003553e+00,-3.187500000000001332e+00,-6.249999999999977796e-02,8.187500000000003553e+00,9.250000000000003553e+00,-4.437500000000001776e+00,-5.875000000000002665e+00,-1.625000000000000444e+00,-8.500000000000003553e+00,-3.500000000000002220e+00,1.350000000000000533e+01,1.256250000000000355e+01,-3.250000000000000888e+00,-8.500000000000003553e+00,-3.937500000000001776e+00,2.000000000000000444e+00,6.687500000000002665e+00,-1.437500000000000000e+00,-8.125000000000003553e+00,2.187500000000000888e+00,3.437500000000000888e+00,-9.750000000000003553e+00,-4.625000000000001776e+00,1.281250000000000533e+01,8.437500000000003553e+00,-6.500000000000002665e+00,-8.437500000000003553e+00,8.750000000000008882e-01,5.812500000000002665e+00,-3.750000000000001776e+00,-6.312500000000002665e+00,4.375000000000004441e-01,6.875000000000006661e-01,5.125000000000001776e+00,7.250000000000002665e+00,-5.125000000000002665e+00,-1.006250000000000533e+01,5.125000000000001776e+00,1.187500000000000533e+01,-3.125000000000000000e-01,-6.875000000000000000e-01,6.437500000000003553e+00,-1.437500000000000444e+00,-5.062500000000001776e+00,-2.000000000000000888e+00,-5.187500000000002665e+00,1.625000000000000000e+00,6.312500000000001776e+00,-5.875000000000003553e+00,-3.625000000000001776e+00,8.000000000000003553e+00,-1.625000000000001776e+00,-7.625000000000004441e+00,4.187500000000001776e+00,1.750000000000000888e+00,-8.187500000000003553e+00,1.375000000000000888e+00,9.000000000000003553e+00,-2.875000000000002220e+00,-5.000000000000002665e+00,9.062500000000003553e+00,4.812500000000001776e+00,-1.337500000000000533e+01,-5.500000000000000888e+00,1.831250000000001066e+01,1.275000000000000711e+01
-2.950000000000000711e+01,1.300000000000000355e+01,7.500000000000000000e-01,-4.500000000000000888e+00,2.050000000000000355e+01,-2.250000000000000355e+01,-5.750000000000001776e+00,3.300000000000000711e+01,-2.900000000000000711e+01,1.025000000000000355e+01,7.500000000000001776e+00,-1.000000000000000355e+01,1.675000000000000355e+01,-1.575000000000000355e+01,1.750000000000000888e+00,-6.250000000000001776e+00,-1.000000000000000222e+00,-5.000000000000001110e-01,2.500000000000000555e-01,0.000000000000000000e+00,2.500000000000000555e-01,-5.000000000000001110e-01,2.500000000000000555e-01,0.000000000000000000e+00,0.000000000000000000e+00,0.000000000000000000e+00,0.000000000000000000e+00,-2.500000000000000555e-01,5.000000000000001110e-01,-5.000000000000001110e-01,5.000000000000001110e-01,-2.500000000000000555e-01,0.000000000000000000e+00,2.500000000000000555e-01,-2.500000000000000555e-01,-2.500000000000000555e-01,2.500000000000000555e-01,0.000000000000000000e+00,2.500000000000000555e-01,-5.000000000000001110e-01,2.500000000000000555e-01,2.500000000000000555e-01,-5.000000000000001110e-01,2.500000000000000555e-01,0.000000000000000000e+00,0.000000000000000000e+00,-3.925000000000000711e+01,3.875000000000000711e+01,2.225000000000000355e+01,-2.650000000000000355e+01,-1.275000000000000355e+01,1.275000000000000355e+01,-2.500000000000000888e+00,3.000000000000000711e+01,-9.100000000000001421e+01,2.150000000000000711e+01,2.375000000000000355e+01,-1.400000000000000355e+01,-4.500000000000000000e+00,3.849999999999999289e+01,1.500000000000014655e+00,1.250000000000000444e+00,2.500000000000000555e-01,-2.500000000000000555e-01,7.500000000000002220e-01,-1.000000000000000222e+00,5.000000000000001110e-01,-2.500000000000000555e-01,2.500000000000000555e-01,0.000000000000000000e+00,0.000000000000000000e+00,0.000000000000000000e+00,-2.500000000000000555e-01,7.500000000000002220e-01,-7.500000000000002220e-01,5.000000000000001110e-01,-2.500000000000000555e-01,-2.500000000000000555e-01,2.500000000000000555e-01,0.000000000000000000e+00,5.000000000000001110e-01,-1.000000000000000222e+00,5.000000000000001110e-01,2.500000000000000555e-01,-2.500000000000000555e-01,-2.500000000000000555e-01,2.500000000000000555e-01,2.500000000000000555e-01,-7.500000000000002220e-01,7.500000000000002220e-01,0.000000000000000000e+00,-2.500000000000000555e-01,2.500000000000000555e-01,-1.000000000000000222e+00,1.000000000000000222e+00,-2.500000000000000555e-01,0.000000000000000000e+00,2.500000000000000555e-01,-2.500000000000000555e-01,0.000000000000000000e+00,0.000000000000000000e+00,-2.500000000000000555e-01,5.000000000000001110e-01,-2.500000000000000555e-01,0.000000000000000000e+00,0.000000000000000000e+00,0.000000000000000000e+00,0.000000000000000000e+00,-2.500000000000000555e-01,2.500000000000000555e-01,2.500000000000000555e-01,-2.500000000000000555e-01,0.000000000000000000e+00,0.000000000000000000e+00,2.500000000000000555e-01,-2.500000000000000555e-01,0.000000000000000000e+00,-2.500000000000000555e-01,5.000000000000001110e-01,-2.500000000000000555e-01,0.000000000000000000e+00,1.250000000000000222e+00,1.850000000000001776e+01,-1.875000000000001776e+01,-2.000000000000000444e+00,1.125000000000000178e+01,5.000000000000000000e-01,6.250000000000001776e+00,-2.450000000000000711e+01,2.275000000000000711e+01,-1.250000000000000355e+01,1.025000000000000355e+01,-1.125000000000000355e+01,1.625000000000000355e+01,-2.325000000000000355e+01,1.625000000000000355e+01,1.500000000000001776e+00,-5.000000000000000000e-01,-1.350000000000000355e+01,5.750000000000001776e+00,1.675000000000000355e+01,-2.150000000000000355e+01,1.625000000000000355e+01,-1.500000000000000355e+01,1.500000000000000222e+00,1.000000000000000355e+01,-7.500000000000002665e+00,7.500000000000000000e-01,7.250000000000002665e+00,-1.375000000000000355e+01,-2.500000000000000888e+00,2.275000000000000355e+01,-1.925000000000000355e+01,-8.250000000000001776e+00,1.600000000000000355e+01,-1.000000000000000000e+00,8.000000000000001776e+00,-1.775000000000000355e+01,-3.500000000000000888e+00,1.825000000000000355e+01,-9.000000000000001776e+00,-2.250000000000000444e+00,-5.250000000000000888e+00,9.250000000000001776e+00,-4.500000000000000888e+00,2.500000000000000555e-01,-5.000000000000001110e-01,0.000000000000000000e+00,5.000000000000001110e-01,0.000000000000000000e+00,-5.000000000000001110e-01,2.500000000000000555e-01,0.000000000000000000e+00,0.000000000000000000e+00,0.000000000000000000e+00,0.000000000000000000e+00,2.500000000000000555e-01,-5.000000000000001110e-01,2.500000000000000555e-01,-2.500000000000000555e-01,7.500000000000002220e-01,-9.500000000000001776e+00,1.125000000000000178e+01,-8.000000000000001776e+00,1.800000000000000355e+01,-1.625000000000000355e+01,-6.000000000000000888e+00,1.425000000000000355e+01,-2.050000000000000355e+01,1.100000000000000355e+01,2.100000000000000355e+01,-3.075000000000000711e+01,4.500000000000001776e+00,1.975000000000000355e+01,-2.000000000000000000e+00,-6.500000000000001776e+00,-1.000000000000000178e+01,3.250000000000000000e+00,1.775000000000000355e+01,-9.250000000000001776e+00,-1.650000000000000355e+01,1.775000000000000355e+01,6.000000000000000888e+00,-2.675000000000000711e+01,2.025000000000000355e+01,-1.275000000000000355e+01,1.550000000000000355e+01,4.750000000000000000e+00,-2.075000000000000355e+01,-8.500000000000001776e+00,1.675000000000000355e+01,-8.500000000000001776e+00,1.075000000000000178e+01,-1.500000000000000444e+00,-4.000000000000000888e+00,1.950000000000000355e+01,-3.275000000000000711e+01,4.500000000000000000e+00,6.500000000000001776e+00,-4.750000000000001776e+00,0.000000000000000000e+00,-2.500000000000000000e+00,2.750000000000001776e+00,6.000000000000000888e+00,-7.500000000000002665e+00,-5.500000000000000000e+00,1.550000000000000355e+01,1.275000000000000355e+01,-1.550000000000000355e+01,-1.925000000000000711e+01,2.700000000000000711e+01,-3.000000000000000888e+00,-1.700000000000000355e+01,2.749999999999985789e+00,1.725000000000001776e+01,-4.000000000000000888e+00,2.000000000000000444e+00,-2.500000000000000555e-01,5.000000000000001110e-01,-2.500000000000000555e-01,0.000000000000000000e+00,5.000000000000001110e-01,-5.000000000000001110e-01,7.500000000000002220e-01,-2.500000000000000555e-01,2.500000000000000555e-01,5.000000000000001110e-01,-1.500000000000000444e+00,5.750000000000015099e+00,-1.500000000000014211e+00,-6.250000000000001776e+00,1.600000000000000355e+01,-2.150000000000000711e+01,3.750000000000000711e+01,-3.825000000000000711e+01,8.500000000000001776e+00,2.075000000000000355e+01,-9.750000000000001776e+00,-1.700000000000000355e+01,1.050000000000000355e+01,5.750000000000000888e+00,-9.750000000000001776e+00,-4.250000000000000888e+00,3.750000000000000888e+00,-2.500000000000000555e-01,1.800000000000000355e+01,-2.475000000000000711e+01,1.125000000000000355e+01,1.750000000000000000e+00,-1.850000000000000355e+01,1.125000000000000355e+01,5.250000000000001776e+00,-1.350000000000000355e+01,1.900000000000000355e+01,-9.750000000000001776e+00,-8.250000000000001776e+00,1.225000000000000355e+01,-6.500000000000001776e+00,8.000000000000001776e+00,-8.500000000000001776e+00,2.600000000000000355e+01,-3.925000000000000711e+01,3.500000000000000000e+00,4.050000000000001421e+01,-4.500000000000001421e+01,1.950000000000000355e+01,1.400000000000000355e+01,-4.575000000000001421e+01,4.475000000000001421e+01,-1.375000000000000355e+01,-1.500000000000000444e+00,1.750000000000000444e+00,-2.000000000000000444e+00,2.000000000000000444e+00,-1.025000000000000178e+01,9.750000000000001776e+00,7.250000000000001776e+00,-2.425000000000000711e+01,2.975000000000000711e+01,-1.950000000000000711e+01,4.500000000000001776e+00,-1.325000000000000355e+01,2.575000000000000711e+01,1.225000000000000178e+01,-5.225000000000001421e+01,3.675000000000000711e+01,8.500000000000001776e+00,-3.125000000000000711e+01,2.425000000000000711e+01,-3.025000000000000711e+01,9.500000000000001776e+00,5.900000000000000711e+01,-7.000000000000001421e+01,2.875000000000000711e+01,-1.475000000000000355e+01,2.025000000000000355e+01,-4.750000000000000000e+00,-2.250000000000000888e+00,-7.250000000000001776e+00,-7.000000000000001776e+00,1.500000000000000355e+01,-2.500000000000000000e+00,1.425000000000000355e+01,-2.300000000000000355e+01,-2.500000000000008882e-01,1.425000000000000355e+01,-7.250000000000001776e+00,-7.000000000000001776e+00,1.525000000000000355e+01,-7.750000000000001776e+00,-1.000000000000000178e+01,2.550000000000000711e+01,-1.750000000000000355e+01,-5.250000000000000888e+00,6.000000000000000888e+00,1.225000000000000355e+01,-1.550000000000000355e+01,7.000000000000001776e+00,-1.250000000000000355e+01,2.000000000000000355e+01,-2.500000000000000000e-01,-1.800000000000000355e+01,5.000000000000000000e-01,1.500000000000000355e+01,2.500000000000000000e+00,-2.150000000000000355e+01,3.025000000000000711e+01,-2.975000000000000711e+01,2.525000000000000711e+01,-8.750000000000001776e+00,-1.500000000000000355e+01,1.125000000000000355e+01,9.000000000000003553e+00,1.750000000000000000e+00,-3.750000000000001776e+00,-2.000000000000000355e+01,1.450000000000000355e+01,6.750000000000000888e+00,-1.825000000000000355e+01,1.550000000000000355e+01,2.250000000000000000e+00,-2.175000000000000355e+01,1.475000000000000355e+01,1.000000000000000355e+01,-1.275000000000000355e+01,-2.000000000000000444e+00,1.725000000000000355e+01,-2.600000000000000711e+01,2.225000000000000711e+01,-1.875000000000000711e+01,3.750000000000001332e+00,1.675000000000000355e+01,-1.675000000000000355e+01,-8.750000000000001776e+00,2.575000000000000711e+01,-1.800000000000000355e+01,-5.750000000000000888e+00,2.275000000000000711e+01,-2.275000000000000711e+01,2.100000000000000355e+01,-1.975000000000000355e+01,3.500000000000000888e+00,1.425000000000000355e+01,-6.250000000000000888e+00,-6.750000000000001776e+00,-4.500000000000000888e+00,1.625000000000000355e+01,-4.500000000000000888e+00,-1.250000000000000355e+01,1.600000000000000355e+01,-1.125000000000000355e+01,-5.750000000000000888e+00,2.225000000000000711e+01,-1.525000000000000355e+01,7.500000000000000000e-01,7.000000000000001776e+00,-8.250000000000001776e+00,-4.500000000000000888e+00,1.650000000000000355e+01,-7.250000000000001776e+00,-1.500000000000000444e+00,-2.750000000000000444e+00,4.000000000000000888e+00,-5.000000000000002220e-01,-1.000000000000000222e+00,0.000000000000000000e+00,-2.500000000000000555e-01,-5.750000000000001776e+00,1.175000000000000355e+01,-5.500000000000000888e+00,-2.750000000000000444e+00,-8.500000000000001776e+00,2.200000000000000355e+01,-2.575000000000000711e+01,2.425000000000000711e+01,-1.825000000000000355e+01,4.250000000000000888e+00,1.325000000000000355e+01,-7.750000000000001776e+00,-6.500000000000000888e+00,9.500000000000001776e+00,6.250000000000000888e+00,-2.250000000000000711e+01,2.350000000000000711e+01,-7.250000000000000888e+00,-1.400000000000000355e+01,1.475000000000000355e+01,5.000000000000000000e-01,-1.075000000000000178e+01,2.250000000000000000e+00,1.175000000000000355e+01,-8.250000000000001776e+00,-5.000000000000001110e-01,5.000000000000001110e-01,-1.250000000000000222e+00,1.750000000000000444e+00,-7.500000000000002220e-01,0.000000000000000000e+00,2.500000000000000555e-01,-2.500000000000000555e-01,-2.500000000000000555e-01,2.500000000000000555e-01,-2.500000000000000555e-01,5.000000000000001110e-01,-5.000000000000001110e-01,5.000000000000001110e-01,-2.500000000000000555e-01,-9.000000000000001776e+00,3.500000000000000888e+00,1.475000000000000355e+01,-3.025000000000000711e+01,2.150000000000000355e+01,3.500000000000000888e+00,-8.500000000000001776e+00,2.250000000000000444e+00,-8.250000000000001776e+00,1.725000000000000355e+01,-1.050000000000000355e+01,-1.275000000000000355e+01,1.300000000000000355e+01,1.525000000000000355e+01,-1.950000000000000355e+01,2.500000000000000000e-01,6.750000000000001776e+00,-6.000000000000001776e+00,1.025000000000000355e+01,-2.000000000000000444e+00,-2.025000000000000355e+01,1.425000000000000355e+01,-7.500000000000000000e-01,-2.500000000000000000e-01,1.075000000000000178e+01,2.750000000000000888e+00,-2.275000000000000711e+01,6.750000000000001776e+00,2.100000000000000711e+01,-2.625000000000000711e+01,1.225000000000000355e+01,-2.250000000000000888e+00,-3.750000000000000888e+00,1.525000000000000355e+01,-2.000000000000000355e+01,7.750000000000000888e+00,2.500000000000000444e+00,-1.425000000000000355e+01,1.600000000000000355e+01,7.000000000000001776e+00,-2.650000000000000711e+01,2.225000000000000355e+01,5.250000000000000888e+00,-1.825000000000000355e+01,7.250000000000001776e+00,-7.750000000000001776e+00,4.250000000000000000e+00,1.500000000000000355e+01,-2.775000000000000711e+01,2.125000000000000355e+01,-4.500000000000000888e+00,-4.500000000000001776e+00,1.225000000000000355e+01,-2.250000000000000000e+00,-1.400000000000000355e+01,4.250000000000000000e+00,9.750000000000003553e+00,-1.225000000000000355e+01,1.525000000000000355e+01,-1.825000000000000711e+01,9.500000000000003553e+00,4.750000000000000888e+00,-2.050000000000000355e+01,1.775000000000000355e+01,-2.000000000000000444e+00,-5.750000000000001776e+00,1.250000000000000355e+01,3.500000000000000888e+00,-1.650000000000000355e+01,1.000000000000000178e+01,-1.250000000000000222e+00,-1.400000000000001776e+01,1.700000000000003197e+01,-3.750000000000015099e+00,-3.250000000000015099e+00,3.500000000000015099e+00,5.000000000000001110e-01,-2.500000000000000555e-01,2.500000000000000555e-01,-2.500000000000000555e-01,5.000000000000001110e-01,-5.000000000000001110e-01,5.000000000000001110e-01,-2.500000000000000555e-01,0.000000000000000000e+00,0.000000000000000000e+00,-2.500000000000000555e-01,2.500000000000000555e-01,0.000000000000000000e+00,2.500000000000000555e-01,-5.000000000000001110e-01,2.500000000000000555e-01,0.000000000000000000e+00,-2.500000000000000555e-01,5.000000000000001110e-01,-2.500000000000000555e-01,-2.500000000000000555e-01,2.500000000000000555e-01,0.000000000000000000e+00,0.000000000000000000e+00,2.500000000000000555e-01,-5.000000000000001110e-01,2.500000000000000555e-01,0.000000000000000000e+00,0.000000000000000000e+00,0.000000000000000000e+00,0.000000000000000000e+00,0.000000000000000000e+00,0.000000000000000000e+00,-2.500000000000000555e-01,5.000000000000001110e-01,-2.500000000000000555e-01,0.000000000000000000e+00,0.000000000000000000e+00,0.000000000000000000e+00,0.000000000000000000e+00,0.000000000000000000e+00,0.000000000000000000e+00,5.000000000000001110e-01,-1.250000000000000444e+00,1.250000000000000444e+00,-1.000000000000000222e+00,7.500000000000002220e-01,-5.000000000000001110e-01,5.000000000000001110e-01,-2.500000000000000555e-01,0.000000000000000000e+00,0.000000000000000000e+00,0.000000000000000000e+00,-2.500000000000000555e-01,5.000000000000001110e-01,-2.500000000000000555e-01,2.500000000000000555e-01,-7.500000000000002220e-01,7.500000000000002220e-01,-2.500000000000000555e-01,2.500000000000000555e-01,-5.000000000000001110e-01,5.000000000000001110e-01,0.000000000000000000e+00,-5.000000000000001110e-01,0.000000000000000000e+00,7.500000000000002220e-01,-7.500000000000002220e-01,5.000000000000001110e-01,0.000000000000000000e+00,-2.500000000000000555e-01,0.000000000000000000e+00,1.000000000000000222e+00,-1.000000000000000222e+00,5.000000000000001110e-01,8.000000000000015987e+00,-2.000000000000014211e+00,2.500000000000000000e+00,-3.500000000000000888e+00,-8.750000000000001776e+00,1.975000000000000355e+01,-2.175000000000000355e+01,1.250000000000000355e+01,8.250000000000001776e+00,-1.650000000000000355e+01,1.275000000000000178e+01,-1.125000000000000178e+01,-1.275000000000000355e+01,-1.200000000000000355e+01,2.075000000000000711e+01,8.950000000000001421e+01,-6.825000000000001421e+01,-5.750000000000000000e+00,-2.775000000000000711e+01,2.125000000000000355e+01,1.500000000000000888e+00,-1.525000000000000355e+01,1.650000000000000355e+01,-1.775000000000000355e+01,7.000000000000001776e+00,1.800000000000000355e+01,-2.150000000000000711e+01,5.750000000000001776e+00,1.425000000000000355e+01,-2.750000000000000711e+01,2.750000000000000711e+01,-2.625000000000000711e+01,2.275000000000000711e+01,-1.975000000000000355e+01,1.300000000000000355e+01,6.500000000000000888e+00,-1.850000000000000355e+01,5.500000000000001776e+00,1.400000000000000178e+01,-1.850000000000000355e+01,-5.250000000000001776e+00,2.450000000000000711e+01,-2.550000000000000711e+01,2.125000000000000711e+01,-8.000000000000001776e+00,-6.750000000000001776e+00,1.700000000000000355e+01,-1.475000000000000355e+01,2.125000000000000355e+01,-2.350000000000000711e+01,2.175000000000000711e+01,-2.375000000000000711e+01,6.750000000000001776e+00,4.500000000000000888e+00,5.750000000000001776e+00,2.250000000000000000e+00,-1.400000000000000355e+01,1.075000000000000355e+01,-1.800000000000000355e+01,9.000000000000001776e+00,8.000000000000001776e+00,-1.150000000000000355e+01,1.800000000000000355e+01,-2.075000000000000711e+01,5.750000000000001776e+00,1.600000000000000355e+01,-1.700000000000000355e+01,1.000000000000000444e+00,1.250000000000000178e+01,-1.100000000000000178e+01,2.500000000000000000e-01,-1.500000000000000222e+00,1.625000000000000355e+01,-1.550000000000000355e+01,-1.025000000000000178e+01,1.825000000000000355e+01,2.750000000000000000e+00,-2.250000000000000711e+01,2.600000000000000711e+01,-1.750000000000000355e+01,1.075000000000000355e+01,-1.300000000000000355e+01,-5.000000000000000000e-01,1.650000000000000355e+01,-6.750000000000001776e+00,-1.100000000000000178e+01,1.375000000000000355e+01,4.250000000000000888e+00,-1.725000000000000355e+01,2.750000000000000888e+00,1.700000000000000355e+01,-1.200000000000000178e+01,7.000000000000001776e+00,-1.800000000000000355e+01,8.500000000000001776e+00,1.550000000000000355e+01,-2.000000000000000711e+01,1.100000000000000355e+01,-1.475000000000000355e+01,2.125000000000000355e+01,-2.225000000000000711e+01,1.575000000000000355e+01,7.000000000000000888e+00,-1.800000000000000355e+01,1.275000000000000355e+01,-8.750000000000001776e+00,-8.750000000000003553e+00,2.500000000000000711e+01,-2.600000000000000711e+01,2.100000000000000711e+01,-2.250000000000000888e+00,-1.950000000000000355e+01,2.325000000000000711e+01,-2.000000000000000355e+01,1.500000000000000355e+01,-9.250000000000001776e+00,1.125000000000000355e+01,-1.100000000000000355e+01,1.400000000000000355e+01,-1.425000000000000355e+01,-3.250000000000000888e+00,2.125000000000000711e+01,-2.550000000000000711e+01,1.200000000000000355e+01,1.275000000000000355e+01,-2.525000000000000711e+01,1.900000000000000711e+01,-1.500000000000000355e+01,2.250000000000000711e+01,-1.850000000000000355e+01,8.750000000000001776e+00,-1.650000000000000355e+01,2.150000000000000711e+01,-6.750000000000001776e+00,-1.150000000000000178e+01,4.500000000000000888e+00,1.675000000000000355e+01,-2.425000000000000711e+01,2.075000000000000711e+01,-5.750000000000001776e+00,-1.550000000000000355e+01,2.425000000000000711e+01,-2.050000000000000355e+01,8.750000000000001776e+00,9.000000000000001776e+00,-2.375000000000000711e+01,2.050000000000000355e+01,1.750000000000000888e+00,-1.500000000000000355e+01,1.375000000000000355e+01,-1.550000000000000355e+01,1.750000000000000355e+01,-1.825000000000000355e+01,7.250000000000000888e+00,1.375000000000000355e+01,-1.800000000000000355e+01,5.000000000000001776e+00,-5.500000000000001776e+00,2.000000000000000888e+00,1.850000000000000355e+01,-1.075000000000000355e+01,-8.250000000000001776e+00,1.225000000000000355e+01,-1.225000000000000355e+01,6.500000000000001776e+00,4.500000000000000888e+00,-6.750000000000001776e+00,-2.000000000000000444e+00,-7.000000000000000888e+00,2.100000000000000355e+01,-1.325000000000000355e+01,-4.500000000000000888e+00,1.625000000000000355e+01,-4.500000000000000888e+00,-1.675000000000000355e+01,2.300000000000000711e+01,-1.450000000000000355e+01,5.250000000000000888e+00,-7.750000000000001776e+00,1.500000000000000888e+00,1.300000000000000355e+01,-1.375000000000000355e+01,-3.000000000000000000e+00,2.300000000000000711e+01,-1.975000000000000355e+01,9.750000000000001776e+00,-1.650000000000000355e+01,1.225000000000000355e+01,1.125000000000000178e+01,-2.025000000000000355e+01,6.000000000000000888e+00,1.300000000000000355e+01,-9.500000000000001776e+00,-1.150000000000000178e+01,9.250000000000001776e+00,1.450000000000000355e+01,-1.475000000000000355e+01,1.000000000000000222e+00,4.000000000000000888e+00,-1.575000000000000355e+01,1.350000000000000355e+01,1.100000000000000178e+01,-1.675000000000000355e+01,7.500000000000001776e+00,-3.000000000000000888e+00,-1.175000000000000355e+01,2.325000000000000711e+01,-2.025000000000000355e+01,1.000000000000000178e+01,1.175000000000000355e+01,-1.625000000000000355e+01,-6.500000000000000888e+00,1.750000000000000355e+01,-2.500000000000000000e-01,-1.225000000000000355e+01,4.750000000000000888e+00,6.000000000000000888e+00,-1.550000000000000355e+01,1.950000000000000355e+01,-2.475000000000000711e+01,2.775000000000000711e+01,-2.225000000000000711e+01,9.250000000000001776e+00,1.125000000000000178e+01,-2.275000000000000711e+01,1.200000000000000355e+01,1.300000000000000355e+01,-1.575000000000000355e+01,3.500000000000000888e+00,-1.325000000000000355e+01,2.500000000000000711e+01,-2.600000000000000711e+01,2.300000000000000711e+01,-5.250000000000000888e+00,-1.400000000000000355e+01,5.500000000000000888e+00,4.500000000000000888e+00,1.275000000000000355e+01,-2.425000000000000711e+01,1.025000000000000178e+01,5.250000000000000888e+00,3.500000000000000888e+00,-1.950000000000000711e+01,2.250000000000000711e+01,-1.050000000000000178e+01,-1.275000000000000355e+01,2.150000000000000711e+01,-1.700000000000000355e+01,1.750000000000000355e+01,-1.225000000000000355e+01,-1.750000000000000000e+00,8.500000000000001776e+00,-1.100000000000000355e+01,1.350000000000000355e+01,-1.175000000000000355e+01,5.250000000000000888e+00,7.250000000000001776e+00,-7.000000000000001776e+00,-7.250000000000001776e+00,1.800000000000000355e+01,-2.025000000000000355e+01,2.175000000000000711e+01,-1.425000000000000355e+01,2.750000000000000888e+00,-1.375000000000000355e+01,2.050000000000000711e+01,-1.525000000000000355e+01,1.250000000000000355e+01,4.250000000000000888e+00,-1.125000000000000178e+01,-6.250000000000001776e+00,9.250000000000001776e+00,1.150000000000000355e+01,-2.625000000000000711e+01,2.800000000000000711e+01,-2.175000000000000711e+01,2.500000000000000888e+00,1.450000000000000355e+01,-1.825000000000000355e+01,1.750000000000000355e+01,-1.675000000000000355e+01,1.550000000000000355e+01,-1.425000000000000355e+01,1.575000000000000355e+01,-6.500000000000001776e+00,-1.200000000000000178e+01,1.350000000000000355e+01,-7.500000000000000000e-01,3.500000000000000888e+00,-8.000000000000001776e+00,3.500000000000000888e+00,-1.175000000000000178e+01,1.900000000000000355e+01,-2.000000000000000355e+01,2.025000000000000355e+01,-1.200000000000000178e+01,-1.000000000000000444e+00,-1.250000000000000000e+00,7.500000000000001776e+00,6.750000000000001776e+00,-1.425000000000000355e+01,9.750000000000001776e+00,-1.175000000000000355e+01,1.000000000000000355e+01,-1.175000000000000355e+01,6.000000000000001776e+00,5.250000000000000888e+00,-3.750000000000000888e+00,-1.500000000000000222e+00,1.525000000000000355e+01,-2.575000000000000711e+01,1.875000000000000355e+01,-4.250000000000000000e+00,5.500000000000001776e+00,-2.150000000000000711e+01,2.200000000000000711e+01,-1.500000000000000000e+00,-1.250000000000000355e+01,8.250000000000001776e+00,2.750000000000000444e+00,-1.650000000000000355e+01,1.075000000000000355e+01,1.025000000000000178e+01,-5.500000000000000888e+00,-4.000000000000000888e+00,-2.500000000000001110e-01,-8.750000000000001776e+00,1.000000000000000178e+01,1.750000000000000444e+00,6.750000000000001776e+00,-1.325000000000000355e+01,5.000000000000000000e-01,1.050000000000000355e+01,-1.775000000000000355e+01,1.525000000000000355e+01,3.250000000000000888e+00,-1.950000000000000711e+01,2.125000000000000711e+01,-1.875000000000000355e+01,9.500000000000001776e+00,8.750000000000001776e+00,-5.500000000000000888e+00,-1.275000000000000355e+01,2.175000000000000711e+01,-2.075000000000000711e+01,2.500000000000000000e+00,6.250000000000001776e+00,7.250000000000001776e+00,-1.750000000000000888e+00,-1.375000000000000355e+01,1.725000000000000355e+01,-2.075000000000000355e+01,2.050000000000000355e+01,-4.750000000000000888e+00,-1.150000000000000355e+01,7.500000000000001776e+00,5.000000000000000888e+00,-5.500000000000000888e+00,-1.275000000000000355e+01,1.750000000000000355e+01,5.000000000000000888e+00,-1.725000000000000355e+01,1.550000000000000355e+01,-2.200000000000000711e+01,2.525000000000000711e+01,-1.025000000000000178e+01,-1.475000000000000355e+01,2.650000000000000711e+01,-2.700000000000000711e+01,2.000000000000000355e+01,-6.500000000000000888e+00,8.000000000000001776e+00,-1.700000000000000355e+01,5.500000000000000888e+00,1.425000000000000355e+01,-9.500000000000001776e+00,-5.000000000000000888e+00,1.325000000000000355e+01,-2.000000000000000000e+00,-1.625000000000000355e+01,2.325000000000000711e+01,-2.100000000000000711e+01,3.500000000000000888e+00,1.450000000000000355e+01,-1.175000000000000178e+01,-7.750000000000001776e+00,1.650000000000000355e+01,-1.500000000000000000e+00,-1.825000000000000711e+01,1.725000000000000355e+01,-5.000000000000000000e-01,-1.025000000000000178e+01,2.500000000000000000e-01,1.250000000000000355e+01,-4.500000000000001776e+00,-1.175000000000000178e+01,1.225000000000000355e+01,7.000000000000000888e+00,-1.375000000000000355e+01,-5.000000000000000888e+00,8.750000000000001776e+00,2.100000000000000355e+01
