-7.183250000000002444e+01,-3.723875000000000313e+01,-7.223124999999986251e+00,1.980812500000003240e+01,4.118312500000004661e+01,6.010500000000006082e+01,7.383937500000006082e+01,8.185500000000006082e+01,8.694875000000007503e+01,9.066750000000007503e+01,9.180812500000007503e+01,9.010500000000007503e+01,8.663625000000006082e+01,8.091750000000006082e+01,7.551125000000006082e+01,6.733937500000006082e+01,5.271437500000005372e+01,3.804250000000004661e+01,2.468312500000003595e+01,9.683125000000023519e+00,-6.082499999999986251e+00,-2.495749999999999602e+01,-4.839500000000001023e+01,-7.255125000000002444e+01,-9.553562500000003865e+01,-1.201137500000000671e+02,-1.473325000000000671e+02,-1.716762500000000955e+02,-1.931137500000001523e+02,-2.102700000000001523e+02,-2.212075000000001523e+02,-2.285512500000001523e+02,-2.300043750000001523e+02,-2.271918750000001523e+02,-2.209106250000001523e+02,-2.123793750000001523e+02,-2.042387500000001523e+02,-1.966762500000001523e+02,-1.924418750000001523e+02,-1.893325000000000955e+02,-1.906606250000001239e+02,-1.941762500000001523e+02,-1.967856250000001523e+02,-2.029106250000001523e+02,-2.114575000000001523e+02,-2.208637500000001523e+02,-2.288793750000001523e+02,-2.388168750000001523e+02,-2.500043750000001523e+02,-2.610981250000001523e+02,-2.739262500000001523e+02,-2.838481250000001523e+02,-2.890668750000001523e+02,-2.904418750000001523e+02,-2.910825000000001523e+02,-2.881137500000001523e+02,-2.813168750000001523e+02,-2.758481250000001523e+02,-2.734106250000001523e+02,-2.755668750000001523e+02,-2.826450000000001523e+02,-2.943637500000001523e+02,-3.075981250000001523e+02,-3.230043750000001523e+02,-3.385668750000001523e+02,-3.520981250000001523e+02,-3.615043750000001523e+02,-3.651762500000001523e+02,-3.669418750000001523e+02,-3.684106250000001523e+02,-3.696137500000001523e+02,-3.704106250000001523e+02,-3.732543750000001523e+02,-3.766762500000002092e+02,-3.824887500000003229e+02,-3.937543750000003229e+02,-4.041606250000003229e+02,-4.127075000000003229e+02,-4.212231250000003229e+02,-4.289731250000003229e+02,-4.341606250000003229e+02,-4.386450000000003229e+02,-4.413325000000003229e+02,-4.408637500000003229e+02,-4.404106250000003229e+02,-4.399106250000003229e+02,-4.385043750000003229e+02,-4.364418750000003229e+02,-4.357231250000003229e+02,-4.320356250000003229e+02,-4.263012500000003229e+02,-4.205668750000003229e+02,-4.148012500000003229e+02,-4.077543750000003229e+02,-3.994106250000003229e+02,-3.902700000000003229e+02,-3.795512500000002660e+02,-3.725043750000002092e+02,-3.675668750000001523e+02,-3.610668750000001523e+02,-3.542543750000001523e+02,-3.500512500000001523e+02,-3.487387500000001523e+02,-3.511762500000001523e+02,-3.573168750000001523e+02,-3.649575000000001523e+02,-3.725825000000002092e+02,-3.813325000000003229e+02,-3.907231250000003229e+02,-3.989887500000003229e+02,-4.057543750000003229e+02,-4.101762500000003229e+02,-4.103637500000003229e+02,-4.070981250000003229e+02,-4.056450000000003229e+02,-4.066293750000003229e+02,-4.073168750000003229e+02,-4.078481250000003229e+02,-4.083793750000003229e+02,-4.090981250000003229e+02,-4.136293750000003229e+02,-4.213012500000003229e+02,-4.271293750000003229e+02,-4.309575000000003229e+02,-4.347700000000003229e+02,-4.386137500000003229e+02,-4.424418750000003229e+02,-4.461918750000003229e+02,-4.480356250000003229e+02,-4.480668750000003229e+02,-4.480512500000003229e+02,-4.480356250000003229e+02,-4.480356250000003229e+02,-4.480043750000003229e+02,-4.480200000000003229e+02,-4.479887500000003229e+02,-4.479731250000003229e+02,-4.479887500000003229e+02,-4.480200000000003229e+02,-4.480356250000003229e+02,-4.480043750000003229e+02,-4.480043750000003229e+02,-4.479575000000003229e+02,-4.479575000000003229e+02,-4.479262500000003229e+02,-4.478793750000003229e+02,-4.478325000000003229e+02,-4.478325000000003229e+02,-4.478637500000003229e+02,-4.478793750000003229e+02,-4.468012500000003229e+02,-4.439575000000003229e+02,-4.401762500000003229e+02,-4.327856250000003229e+02,-4.221762500000003229e+02,-4.100981250000003229e+02,-3.954418750000003229e+02,-3.781450000000003229e+02,-3.601293750000002092e+02,-3.414575000000001523e+02,-3.209575000000001523e+02,-3.041450000000001523e+02,-2.905512500000001523e+02,-2.769887500000001523e+02,-2.637075000000001523e+02,-2.504262500000001523e+02,-2.380981250000001523e+02,-2.274731250000001523e+02,-2.183793750000001523e+02,-2.066606250000001523e+02,-1.932700000000001523e+02,-1.775825000000000955e+02,-1.627231250000000671e+02,-1.499106250000000671e+02,-1.345512500000000671e+02,-1.183950000000000671e+02,-1.004731250000000529e+02,-8.355125000000003865e+01,-6.528562500000002444e+01,-5.027000000000001023e+01,-3.517625000000000313e+01,-1.830124999999999602e+01,-4.019999999999985363e+00,1.146437500000002530e+01,2.457375000000003240e+01,3.762062500000003951e+01,4.955812500000004661e+01,6.290187500000006082e+01,7.652687500000006082e+01,8.868312500000007503e+01,1.016206250000001035e+02,1.119643750000001035e+02,1.222143750000001035e+02,1.311675000000001035e+02,1.390581250000001035e+02,1.469018750000001035e+02,1.526675000000001035e+02,1.584643750000001035e+02,1.639643750000001035e+02,1.704487500000001035e+02,1.768550000000001035e+02,1.840425000000001319e+02,1.908081250000001887e+02,1.944643750000001887e+02,1.989018750000001887e+02,2.026987500000001887e+02,2.049487500000001887e+02,2.057612500000001887e+02,2.078393750000001887e+02,2.092768750000001887e+02,2.104175000000001887e+02,2.155112500000001887e+02,2.212300000000001887e+02,2.285425000000001887e+02,2.371518750000001887e+02,2.472143750000001887e+02,2.559643750000001887e+02,2.661675000000001887e+02,2.759331250000001887e+02,2.823550000000001887e+02,2.879643750000001887e+02,2.921518750000001887e+02,2.947612500000001887e+02,2.968550000000001887e+02,3.000112500000001887e+02,3.017612500000001887e+02,3.049487500000001887e+02,3.108393750000001887e+02,3.178862500000001887e+02,3.261206250000001887e+02,3.364643750000001887e+02,3.477456250000001887e+02,3.569175000000001887e+02,3.663393750000002456e+02,3.750893750000002456e+02,3.800425000000003024e+02,3.831675000000003593e+02,3.817612500000003593e+02,3.786987500000002456e+02,3.727768750000002456e+02,3.665268750000001887e+02,3.590425000000001887e+02,3.499175000000001887e+02,3.434956250000001887e+02,3.362456250000001887e+02,3.334956250000001887e+02,3.309331250000001887e+02,3.299643750000001887e+02,3.321518750000001887e+02,3.352925000000001887e+02,3.417925000000001887e+02,3.486206250000001887e+02,3.571987500000001887e+02,3.630268750000001887e+02,3.691206250000001887e+02,3.759175000000002456e+02,3.807300000000002456e+02,3.864643750000003593e+02,3.899018750000003593e+02,3.933237500000003593e+02,3.977300000000003593e+02,4.064175000000003593e+02,4.169331250000003593e+02,4.290581250000003593e+02,4.424800000000003593e+02,4.559175000000003593e+02,4.717925000000003593e+02,4.871362500000003593e+02,5.028550000000003593e+02,5.158862500000003593e+02,5.268081250000003593e+02,5.351675000000003593e+02,5.420268750000003593e+02,5.476206250000003593e+02,5.509331250000003593e+02,5.535425000000003593e+02,5.541987500000003593e+02,5.544018750000003593e+02,5.544800000000003593e+02,5.545268750000003593e+02,5.545581250000003593e+02,5.545581250000003593e+02,5.545112500000003593e+02,5.544487500000003593e+02,5.543706250000003593e+02,5.542612500000003593e+02,5.541518750000003593e+02,5.540581250000003593e+02,5.539487500000003593e+02,5.538550000000003593e+02,5.537768750000003593e+02,5.537143750000003593e+02,5.536675000000003593e+02,5.536050000000003593e+02,5.535425000000003593e+02,5.534487500000003593e+02,5.531831250000003593e+02,5.523393750000003593e+02,5.513706250000003593e+02,5.502768750000003593e+02,5.491518750000003593e+02,5.480581250000003593e+02,5.470112500000003593e+02,5.460425000000003593e+02,5.454643750000003593e+02,5.460268750000003593e+02,5.468393750000003593e+02,5.479018750000003593e+02,5.490425000000003593e+02,5.501831250000003593e+02,5.512768750000003593e+02,5.522925000000003593e+02,5.530893750000003593e+02,5.533237500000003593e+02,5.534018750000003593e+02,5.533706250000003593e+02,5.533081250000003593e+02,5.532768750000003593e+02,5.532925000000003593e+02,5.533706250000003593e+02,5.534643750000003593e+02,5.535737500000003593e+02,5.537143750000003593e+02,5.538081250000003593e+02,5.538706250000003593e+02,5.538862500000003593e+02,5.538706250000003593e+02,5.538393750000003593e+02,5.538237500000003593e+02,5.538081250000003593e+02,5.538393750000003593e+02,5.539331250000003593e+02,5.540581250000003593e+02,5.542300000000003593e+02,5.543862500000003593e+02,5.544956250000003593e+02,5.545425000000003593e+02,5.545581250000003593e+02,5.544643750000003593e+02,5.542925000000003593e+02,5.540425000000003593e+02,5.537300000000003593e+02,5.534331250000003593e+02,5.531831250000003593e+02,5.530268750000003593e+02,5.529175000000003593e+02,5.529643750000003593e+02,5.531206250000003593e+02,5.534175000000003593e+02,5.537925000000003593e+02,5.541987500000003593e+02,5.546050000000003593e+02,5.549643750000003593e+02,5.552768750000003593e+02,5.554643750000003593e+02,5.555737500000003593e+02,5.555893750000003593e+02,5.555581250000003593e+02,5.554956250000003593e+02,5.554331250000003593e+02,5.553706250000003593e+02,5.553393750000003593e+02,5.553550000000003593e+02,5.554018750000003593e+02,5.554800000000003593e+02,5.555581250000003593e+02,5.556206250000003593e+02,5.556675000000003593e+02,5.557300000000003593e+02,5.557925000000003593e+02,5.558393750000003593e+02,5.558706250000003593e+02,5.558862500000003593e+02,5.559018750000003593e+02,5.559643750000003593e+02,5.560268750000003593e+02,5.561050000000003593e+02,5.561675000000003593e+02,5.562300000000003593e+02,5.562925000000003593e+02,5.563393750000003593e+02,5.563862500000003593e+02,5.563862500000003593e+02,5.563862500000003593e+02,5.563237500000003593e+02,5.562456250000003593e+02,5.561518750000003593e+02,5.560425000000003593e+02,5.559487500000003593e+02,5.558393750000003593e+02,5.557300000000003593e+02,5.555893750000003593e+02,5.554487500000003593e+02,5.553081250000003593e+02,5.551675000000003593e+02,5.550268750000003593e+02,5.548550000000003593e+02,5.540112500000003593e+02,5.525893750000003593e+02,5.491987500000003593e+02,5.449643750000003593e+02,5.400268750000003593e+02,5.330268750000003593e+02,5.232612500000003593e+02,5.101362500000003593e+02,4.966831250000003593e+02,4.833862500000003593e+02,4.724487500000003593e+02,4.622143750000003593e+02,4.513550000000003593e+02,4.419018750000003593e+02,4.357612500000003593e+02,4.331206250000003593e+02,4.300737500000003593e+02,4.239175000000003593e+02,4.151675000000003593e+02,4.043237500000003593e+02,3.929487500000003593e+02,3.816675000000003593e+02,3.671206250000002456e+02,3.505737500000001887e+02,3.345425000000001887e+02,3.209487500000001887e+02,3.068081250000001887e+02,2.919018750000001887e+02,2.759800000000001887e+02,2.575581250000001887e+02,2.406206250000001887e+02,2.236362500000001887e+02,2.058550000000001887e+02,1.873393750000001603e+02,1.711050000000001319e+02,1.560581250000001035e+02,1.429018750000001035e+02,1.324800000000001035e+02,1.218706250000001035e+02,1.130737500000001035e+02,1.035425000000001035e+02,9.499562500000010346e+01,8.519875000000007503e+01,7.521437500000006082e+01,6.507375000000006082e+01,5.148000000000004661e+01,3.763625000000003951e+01,2.065187500000003240e+01,4.401875000000021743e+00,-1.437937499999998892e+01,-3.362937500000000313e+01,-5.247312500000001734e+01,-7.223875000000003865e+01,-9.017625000000003865e+01,-1.099418750000000671e+02,-1.277231250000000671e+02,-1.454887500000000671e+02,-1.608325000000000671e+02,-1.750981250000000955e+02,-1.882387500000001523e+02,-1.997543750000001523e+02,-2.087387500000001523e+02,-2.141762500000001523e+02,-2.201450000000001523e+02,-2.257231250000001523e+02,-2.311762500000001523e+02,-2.367231250000001523e+02,-2.420043750000001523e+02,-2.473481250000001523e+02,-2.543012500000001523e+02,-2.620043750000001523e+02,-2.675200000000001523e+02,-2.728793750000001523e+02,-2.771450000000001523e+02,-2.809575000000001523e+02,-2.856606250000001523e+02,-2.923950000000001523e+02,-2.983481250000001523e+02,-3.040512500000001523e+02,-3.109418750000001523e+02,-3.178481250000001523e+02,-3.258012500000001523e+02,-3.325668750000001523e+02,-3.401606250000001523e+02,-3.459262500000001523e+02,-3.530981250000001523e+02,-3.610512500000001523e+02,-3.697856250000002092e+02,-3.778793750000002092e+02,-3.866918750000003229e+02,-3.976918750000003229e+02,-4.067231250000003229e+02,-4.154262500000003229e+02,-4.231762500000003229e+02,-4.300512500000003229e+02,-4.353481250000003229e+02,-4.401293750000003229e+02,-4.434106250000003229e+02,-4.449106250000003229e+02,-4.464262500000003229e+02,-4.475356250000003229e+02,-4.479106250000003229e+02,-4.479106250000003229e+02,-4.478950000000003229e+02,-4.478950000000003229e+02,-4.478793750000003229e+02,-4.478637500000003229e+02,-4.478793750000003229e+02,-4.479106250000003229e+02,-4.479731250000003229e+02,-4.480356250000003229e+02,-4.480825000000003229e+02,-4.481137500000003229e+02,-4.481450000000003229e+02,-4.481762500000003229e+02,-4.481606250000003229e+02,-4.481293750000003229e+02,-4.480825000000003229e+02,-4.480512500000003229e+02,-4.480668750000003229e+02,-4.480512500000003229e+02,-4.480356250000003229e+02,-4.480200000000003229e+02,-4.480356250000003229e+02,-4.480981250000003229e+02,-4.481606250000003229e+02,-4.481918750000003229e+02,-4.481762500000003229e+02,-4.481918750000003229e+02,-4.481918750000003229e+02,-4.481918750000003229e+02,-4.481450000000003229e+02,-4.480512500000003229e+02,-4.479575000000003229e+02,-4.478793750000003229e+02,-4.478168750000003229e+02,-4.477700000000003229e+02,-4.477543750000003229e+02,-4.477387500000003229e+02,-4.477856250000003229e+02,-4.478325000000003229e+02,-4.478793750000003229e+02,-4.479262500000003229e+02,-4.479731250000003229e+02,-4.480043750000003229e+02,-4.480200000000003229e+02,-4.480356250000003229e+02,-4.480043750000003229e+02,-4.480043750000003229e+02,-4.480043750000003229e+02,-4.480043750000003229e+02,-4.480043750000003229e+02,-4.480043750000003229e+02,-4.480043750000003229e+02,-4.480043750000003229e+02,-4.480356250000003229e+02,-4.475981250000003229e+02,-4.471606250000003229e+02,-4.460668750000003229e+02,-4.433793750000003229e+02,-4.405668750000003229e+02,-4.368637500000003229e+02,-4.323481250000003229e+02,-4.249731250000003229e+02,-4.166762500000003229e+02,-4.073950000000003229e+02,-3.979418750000003229e+02,-3.898168750000003229e+02,-3.803793750000002660e+02,-3.695981250000002092e+02,-3.570825000000001523e+02,-3.470981250000001523e+02,-3.380981250000001523e+02,-3.273637500000001523e+02,-3.155200000000001523e+02,-3.012700000000001523e+02,-2.860825000000001523e+02,-2.709731250000001523e+02,-2.569731250000001523e+02,-2.418168750000001523e+02,-2.241606250000001523e+02,-2.068950000000001523e+02,-1.891450000000001523e+02,-1.732075000000000955e+02,-1.570200000000000671e+02,-1.427231250000000671e+02,-1.282387500000000671e+02,-1.134106250000000671e+02,-1.009262500000000671e+02,-9.002000000000003865e+01,-8.091062500000003865e+01,-7.220750000000002444e+01,-6.587937500000002444e+01,-5.806687500000002444e+01,-5.198875000000002444e+01,-4.773875000000001734e+01,-4.234812500000001023e+01,-3.708250000000000313e+01,-3.211375000000000313e+01,-2.575437499999999957e+01,-1.859812499999999602e+01,-1.173874999999999069e+01,-1.926249999999983364e+00,9.964375000000025295e+00,2.226125000000003240e+01,3.629250000000003951e+01,5.235500000000004661e+01,6.882375000000006082e+01,8.626125000000007503e+01,1.042768750000000892e+02,1.203237500000001035e+02,1.363237500000001035e+02,1.507612500000001035e+02,1.641518750000001035e+02,1.773081250000001319e+02,1.885581250000001603e+02,1.991831250000001887e+02,2.072300000000001887e+02,2.141987500000001887e+02,2.193237500000001887e+02,2.242456250000001887e+02,2.265581250000001887e+02,2.253081250000001887e+02,2.218393750000001887e+02,2.139643750000001887e+02,2.056206250000001887e+02,1.959800000000001887e+02,1.830268750000001319e+02,1.672768750000001319e+02,1.496675000000001035e+02,1.306675000000001035e+02,1.130425000000001035e+02,9.801125000000010346e+01,8.248000000000007503e+01,6.991750000000006082e+01,6.141750000000006082e+01,5.698000000000006082e+01,5.879250000000006082e+01,6.516750000000006082e+01,7.354250000000006082e+01,8.476125000000007503e+01,9.923000000000010346e+01,1.115581250000001035e+02,1.252925000000001035e+02,1.379018750000001035e+02,1.486050000000001035e+02,1.587768750000001035e+02,1.683706250000001035e+02,1.750268750000001035e+02,1.810737500000001319e+02,1.881987500000001319e+02,1.912768750000001887e+02,1.931206250000001887e+02,1.906362500000001887e+02,1.844800000000001319e+02,1.758706250000001319e+02,1.663706250000001035e+02,1.537925000000001035e+02,1.389487500000001035e+02,1.248237500000001035e+02,1.115893750000001035e+02,1.017768750000001035e+02,9.610500000000008924e+01,9.108937500000007503e+01,8.808937500000006082e+01,8.766750000000006082e+01,9.085500000000007503e+01,9.576125000000008924e+01,9.958937500000010346e+01,1.036675000000001035e+02,1.046362500000001035e+02,1.074018750000001035e+02,1.084175000000001035e+02,1.065893750000001035e+02,1.014643750000001035e+02,9.385500000000010346e+01,8.732375000000007503e+01,7.962062500000007503e+01,7.485500000000006082e+01,6.899562500000006082e+01,6.623000000000006082e+01,6.888625000000006082e+01,7.487062500000006082e+01,8.576125000000007503e+01,9.808937500000010346e+01,1.125425000000001035e+02,1.263081250000001035e+02,1.416675000000001035e+02,1.547612500000001035e+02,1.633550000000001035e+02,1.688862500000001035e+02,1.693081250000001035e+02,1.665893750000001035e+02,1.605112500000001035e+02,1.518237500000001035e+02,1.403706250000001035e+02,1.271675000000001035e+02,1.140893750000001035e+02,1.023393750000001035e+02,9.251125000000007503e+01,8.310500000000006082e+01,7.485500000000006082e+01,6.765187500000006082e+01,6.016750000000006082e+01,5.418312500000006082e+01,4.893312500000006082e+01,4.312062500000004661e+01,3.644875000000003951e+01,3.055812500000003951e+01,2.608937500000003951e+01,2.285500000000003240e+01,2.133937500000002885e+01,2.101125000000002885e+01,2.138625000000002885e+01,2.204250000000003240e+01,2.530812500000003951e+01,3.019875000000003951e+01,3.629250000000004661e+01,4.279250000000004661e+01,5.071437500000006082e+01,5.912062500000006082e+01,6.879250000000006082e+01,8.093312500000007503e+01,9.177687500000008924e+01,1.021987500000001035e+02,1.108393750000001035e+02,1.198393750000001035e+02,1.277925000000001035e+02,1.356831250000001035e+02,1.429956250000001035e+02,1.474956250000001035e+02,1.510268750000001035e+02,1.544643750000001035e+02,1.581050000000001035e+02,1.598862500000001035e+02,1.621050000000001035e+02,1.631362500000001035e+02,1.633237500000001035e+02,1.652925000000001035e+02,1.685581250000001035e+02,1.715268750000001035e+02,1.742768750000001035e+02,1.773237500000001035e+02,1.789643750000001035e+02,1.814643750000001035e+02,1.829487500000001035e+02,1.822925000000001035e+02,1.804018750000001035e+02,1.777300000000001035e+02,1.750268750000001035e+02,1.728237500000001035e+02,1.711362500000001035e+02,1.687925000000001035e+02,1.674643750000001035e+02,1.666050000000001035e+02,1.675425000000001035e+02,1.684643750000001035e+02,1.696518750000001035e+02,1.710581250000001035e+02,1.721362500000001035e+02,1.729800000000001035e+02,1.742143750000001035e+02,1.765893750000001035e+02,1.764487500000001035e+02,1.773237500000001035e+02,1.765581250000001035e+02,1.753237500000001035e+02,1.739487500000001035e+02,1.713862500000001035e+02,1.676675000000001035e+02,1.617143750000001035e+02,1.564956250000001035e+02,1.486206250000001035e+02,1.412300000000001035e+02,1.313550000000001035e+02,1.209800000000001035e+02,1.103550000000001035e+02,9.929250000000010346e+01,8.930812500000007503e+01,7.821437500000006082e+01,6.891750000000006082e+01,5.890187500000006082e+01,5.130812500000006082e+01,4.451125000000004661e+01,3.880812500000003951e+01,3.366750000000003951e+01,2.812062500000003951e+01,2.346437500000003240e+01,1.829250000000003240e+01,1.512062500000002885e+01,1.123000000000002530e+01,6.136250000000021743e+00,2.105000000000019078e+00,-2.754374999999983586e+00,-7.566874999999986251e+00,-1.097312499999998892e+01,-1.491062499999999247e+01,-2.000437499999999602e+01,-2.466062499999999602e+01,-2.850437500000000313e+01,-3.412937500000000313e+01,-3.895750000000000313e+01,-4.352000000000001023e+01,-5.037937500000002444e+01,-5.564500000000002444e+01,-6.137937500000002444e+01,-6.756687500000002444e+01,-7.341062500000002444e+01,-7.898875000000002444e+01,-8.386375000000002444e+01,-8.858250000000003865e+01,-9.194187500000003865e+01,-9.605125000000006708e+01,-9.927000000000006708e+01,-1.017856250000000671e+02,-1.050668750000000671e+02,-1.074575000000000671e+02,-1.111762500000000671e+02,-1.142075000000000671e+02,-1.175512500000000671e+02,-1.209887500000000671e+02,-1.246450000000000671e+02,-1.275512500000000671e+02,-1.293950000000000671e+02,-1.315825000000000671e+02,-1.321606250000000671e+02,-1.337231250000000671e+02,-1.350043750000000671e+02,-1.358168750000000671e+02,-1.360668750000000671e+02,-1.371762500000000671e+02,-1.384418750000000671e+02,-1.394106250000000671e+02,-1.410200000000000671e+02,-1.411137500000000671e+02,-1.399262500000000671e+02,-1.398168750000000671e+02,-1.394887500000000671e+02,-1.396293750000000671e+02,-1.396918750000000671e+02,-1.385668750000000671e+02,-1.374262500000000671e+02,-1.379262500000000671e+02,-1.406293750000000671e+02,-1.421293750000000671e+02,-1.438325000000000671e+02,-1.442700000000000671e+02,-1.453012500000000671e+02,-1.478168750000000671e+02,-1.499418750000000671e+02,-1.504575000000000671e+02,-1.496293750000000671e+02,-1.479106250000000671e+02,-1.472387500000000671e+02,-1.472700000000000671e+02,-1.455356250000000671e+02,-1.436762500000000671e+02,-1.425043750000000671e+02,-1.424575000000000671e+02,-1.415981250000000671e+02,-1.424731250000000671e+02,-1.412075000000000671e+02,-1.401918750000000671e+02,-1.402387500000000671e+02,-1.398950000000000671e+02,-1.387387500000000671e+02,-1.367543750000000671e+02,-1.363637500000000671e+02,-1.352700000000000671e+02,-1.352856250000000671e+02,-1.343168750000000671e+02,-1.345356250000000671e+02,-1.346762500000000671e+02,-1.342387500000000671e+02,-1.348325000000000671e+02,-1.350512500000000671e+02,-1.345512500000000671e+02,-1.350825000000000671e+02,-1.363012500000000671e+02,-1.357700000000000671e+02,-1.349731250000000671e+02,-1.360043750000000671e+02,-1.363637500000000671e+02,-1.358168750000000671e+02,-1.359106250000000671e+02,-1.350356250000000671e+02,-1.336293750000000671e+02,-1.326918750000000671e+02,-1.318637500000000671e+02,-1.299731250000000671e+02,-1.284887500000000671e+02,-1.278950000000000671e+02,-1.278168750000000671e+02,-1.267856250000000671e+02,-1.261918750000000671e+02,-1.263481250000000671e+02,-1.270200000000000671e+02,-1.275825000000000671e+02,-1.272387500000000671e+02,-1.268950000000000671e+02,-1.251450000000000671e+02,-1.246450000000000671e+02,-1.236293750000000671e+02,-1.217700000000000671e+02,-1.196606250000000671e+02,-1.173950000000000671e+02,-1.165512500000000671e+02,-1.149731250000000671e+02,-1.155043750000000671e+02,-1.159575000000000671e+02,-1.169887500000000671e+02,-1.187856250000000671e+02,-1.207231250000000671e+02,-1.235668750000000671e+02,-1.256137500000000671e+02,-1.281450000000000671e+02,-1.295200000000000671e+02,-1.310825000000000671e+02,-1.331450000000000671e+02,-1.339575000000000671e+02,-1.353012500000000671e+02,-1.366137500000000671e+02,-1.380668750000000671e+02,-1.393950000000000671e+02,-1.408012500000000671e+02,-1.420200000000000671e+02,-1.424262500000000671e+02,-1.441918750000000671e+02,-1.449731250000000671e+02,-1.453637500000000671e+02,-1.447075000000000671e+02,-1.445825000000000671e+02,-1.445981250000000671e+02,-1.443950000000000671e+02,-1.455356250000000671e+02,-1.463168750000000671e+02,-1.476293750000000671e+02,-1.488012500000000671e+02,-1.516918750000000671e+02,-1.550043750000000671e+02,-1.572856250000000671e+02,-1.600200000000000671e+02,-1.611606250000000671e+02,-1.617387500000000671e+02,-1.629731250000000671e+02,-1.645825000000000671e+02,-1.651137500000000671e+02,-1.647075000000000671e+02,-1.659418750000000671e+02,-1.662543750000000671e+02,-1.675200000000000671e+02,-1.699106250000000671e+02,-1.718481250000000671e+02,-1.725356250000000671e+02,-1.734887500000000671e+02,-1.749106250000000671e+02,-1.748637500000000671e+02,-1.749887500000000671e+02,-1.740356250000000671e+02,-1.727231250000000671e+02,-1.712075000000000671e+02,-1.718950000000000671e+02,-1.734575000000000671e+02,-1.742231250000000671e+02,-1.770356250000000671e+02,-1.813325000000000671e+02,-1.867075000000000955e+02,-1.924887500000001523e+02,-1.987075000000001523e+02,-2.037387500000001523e+02,-2.087543750000001523e+02,-2.146918750000001523e+02,-2.194731250000001523e+02,-2.231762500000001523e+02,-2.277543750000001523e+02,-2.310200000000001523e+02,-2.335200000000001523e+02,-2.368012500000001523e+02,-2.387387500000001523e+02,-2.404731250000001523e+02,-2.418168750000001523e+02,-2.429262500000001523e+02,-2.424106250000001523e+02,-2.433012500000001523e+02,-2.443012500000001523e+02,-2.434106250000001523e+02,-2.437075000000001523e+02,-2.436762500000001523e+02,-2.435512500000001523e+02,-2.440043750000001523e+02,-2.442856250000001523e+02,-2.433325000000001523e+02,-2.421606250000001523e+02,-2.426450000000001523e+02,-2.424106250000001523e+02,-2.429575000000001523e+02,-2.385825000000001523e+02,-2.284418750000001523e+02,-2.146293750000001523e+02,-1.955981250000001239e+02,-1.732231250000000955e+02,-1.453793750000000671e+02,-1.114418750000000529e+02
2.087500000000001066e+01,4.678125000000002842e+01,5.232812500000003553e+01,4.510937500000002842e+01,1.873437500000001066e+01,3.250000000000001332e+00,1.578125000000000888e+00,1.500000000000001332e+00,8.906250000000007105e+00,1.350000000000001066e+01,7.609375000000006217e+00,5.687500000000003553e+00,9.531250000000007105e+00,1.006250000000000711e+01,1.746875000000001066e+01,1.814062500000001421e+01,5.640625000000002665e+00,-5.000000000000009992e-01,-8.015625000000005329e+00,-7.078125000000004441e+00,4.062500000000003553e+00,1.106250000000000888e+01,2.081250000000001421e+01,2.059375000000001421e+01,1.689062500000001066e+01,1.053125000000000533e+01,-7.750000000000005329e+00,-1.721875000000001066e+01,-2.971875000000001421e+01,-3.712500000000002132e+01,-3.037500000000002132e+01,-2.840625000000001776e+01,-1.814062500000001066e+01,-9.515625000000007105e+00,-5.671875000000003553e+00,9.843750000000005551e-01,3.343750000000001776e+00,8.718750000000007105e+00,1.354687500000001066e+01,1.956250000000001421e+01,2.364062500000001421e+01,2.009375000000001066e+01,1.139062500000000711e+01,-3.484375000000002220e+00,-1.625000000000000711e+01,-1.971875000000001421e+01,-8.578125000000005329e+00,9.734375000000005329e+00,2.660937500000001421e+01,3.289062500000002132e+01,1.871875000000001066e+01,-6.859375000000006217e+00,-3.645312500000002842e+01,-5.695312500000004263e+01,-5.675000000000004263e+01,-3.678125000000002842e+01,-5.156250000000017764e-01,3.707812500000002132e+01,5.995312500000003553e+01,6.360937500000004263e+01,4.656250000000002842e+01,1.590625000000001066e+01,-1.129687500000000711e+01,-3.045312500000001776e+01,-3.801562500000002132e+01,-2.967187500000001421e+01,-1.764062500000001066e+01,-7.968750000000006217e+00,1.921875000000001554e+00,2.015625000000001776e+00,7.812500000000006661e-01,9.453125000000007105e+00,1.210937500000000711e+01,1.759375000000001066e+01,2.084375000000001421e+01,7.171875000000004441e+00,-1.546875000000001332e+00,-9.437500000000005329e+00,-1.660937500000001066e+01,-1.192187500000000711e+01,-9.921875000000007105e+00,-8.812500000000005329e+00,-6.250000000000003553e+00,-6.656250000000004441e+00,-2.359375000000001776e+00,2.390625000000001332e+00,6.171875000000003553e+00,8.921875000000005329e+00,3.703125000000002220e+00,-5.109375000000003553e+00,-1.546875000000001066e+01,-2.264062500000001421e+01,-2.128125000000001066e+01,-8.578125000000003553e+00,1.007812500000000711e+01,2.193750000000001421e+01,2.453125000000001776e+01,1.129687500000000533e+01,-9.640625000000008882e+00,-2.014062500000001421e+01,-1.782812500000001421e+01,-1.218750000000002665e+00,2.221875000000001421e+01,3.765625000000002132e+01,3.948437500000002842e+01,2.850000000000002132e+01,7.875000000000005329e+00,-1.512500000000001066e+01,-3.079687500000002132e+01,-3.665625000000002132e+01,-2.864062500000001776e+01,-8.718750000000007105e+00,8.343750000000005329e+00,1.889062500000001421e+01,1.612500000000001066e+01,1.718750000000008882e-01,-8.578125000000005329e+00,-8.484375000000005329e+00,-7.656250000000000000e-01,1.439062500000001066e+01,1.817187500000001421e+01,1.078125000000000711e+01,1.421875000000001332e+00,-9.562500000000007105e+00,-1.293750000000000888e+01,-9.218750000000007105e+00,-5.515625000000003553e+00,-1.890625000000001332e+00,-1.718750000000001110e-01,-2.031250000000001665e-01,-9.375000000000008327e-02,-4.687500000000004163e-02,1.562500000000000000e-02,1.093750000000000833e-01,6.250000000000005551e-02,9.375000000000006939e-02,7.812500000000005551e-02,3.125000000000002082e-02,0.000000000000000000e+00,-4.687500000000002776e-02,-7.812500000000005551e-02,-1.406250000000000833e-01,-1.250000000000000833e-01,-1.250000000000000833e-01,-3.125000000000000694e-02,1.093750000000000833e-01,1.875000000000001110e-01,2.500000000000001665e-01,1.562500000000001110e-01,4.687500000000004163e-02,-1.156250000000000666e+00,-4.125000000000001776e+00,-7.906250000000003553e+00,-1.529687500000000711e+01,-2.146875000000001421e+01,-2.198437500000001421e+01,-2.139062500000001421e+01,-9.000000000000007105e+00,6.671875000000003553e+00,1.331250000000000711e+01,2.093750000000001421e+01,1.393750000000001243e+01,5.937500000000018874e-01,-4.687499999999987788e-01,-3.250000000000001332e+00,1.406250000000000888e+00,9.265625000000005329e+00,2.578125000000001332e+00,-2.515625000000002220e+00,-6.796875000000005329e+00,-1.150000000000000711e+01,-5.062500000000003553e+00,-2.046875000000001776e+00,-7.968750000000006661e-01,-1.562500000000002220e-01,-1.750000000000000888e+00,1.562499999999994449e-02,-1.218750000000000666e+00,1.265625000000000222e+00,-3.750000000000004441e-01,-1.031250000000000000e+00,4.343750000000002665e+00,5.625000000000003553e+00,8.890625000000005329e+00,7.593750000000003553e+00,1.859375000000001332e+00,-4.828125000000003553e+00,-7.109375000000005329e+00,-6.359375000000004441e+00,-3.203125000000002220e+00,5.546875000000003553e+00,7.703125000000005329e+00,1.139062500000000711e+01,1.312500000000000711e+01,8.359375000000005329e+00,5.828125000000003553e+00,-1.187500000000001332e+00,-7.859375000000005329e+00,-9.734375000000005329e+00,-7.968750000000004441e+00,-2.750000000000001776e+00,4.312500000000002665e+00,9.171875000000005329e+00,9.640625000000007105e+00,8.828125000000007105e+00,6.156250000000003553e+00,4.093750000000002665e+00,1.406250000000000888e+00,-1.796875000000000888e+00,-4.546875000000002665e+00,-8.687500000000005329e+00,-1.090625000000000711e+01,-9.687500000000007105e+00,-9.750000000000007105e+00,-7.984375000000005329e+00,-1.546875000000000222e+00,-1.718750000000000000e-01,5.687500000000004441e+00,1.260937500000000711e+01,1.056250000000000533e+01,1.276562500000000711e+01,1.001562500000000711e+01,2.718750000000001776e+00,1.062500000000000888e+00,-5.406250000000003553e+00,-9.343750000000007105e+00,-9.406250000000005329e+00,-1.217187500000000711e+01,-7.781250000000006217e+00,-6.078125000000004441e+00,-5.234375000000004441e+00,3.593749999999997780e-01,-1.875000000000004441e-01,5.640625000000003553e+00,1.276562500000000888e+01,1.606250000000001066e+01,2.093750000000001421e+01,1.959375000000001421e+01,1.471875000000001066e+01,7.078125000000006217e+00,1.203125000000000666e+00,-6.687500000000005329e+00,-9.812500000000007105e+00,-8.203125000000005329e+00,-9.703125000000005329e+00,-3.390625000000001776e+00,-4.890625000000002665e+00,-6.421875000000003553e+00,-7.984375000000005329e+00,-1.387500000000001066e+01,-1.025000000000000711e+01,-1.114062500000000711e+01,-3.468750000000002665e+00,5.203125000000002665e+00,8.921875000000005329e+00,2.006250000000001421e+01,1.643750000000001066e+01,7.765625000000005329e+00,-1.046875000000000000e+00,-1.909375000000001421e+01,-2.287500000000001421e+01,-1.725000000000001421e+01,-1.307812500000001066e+01,-2.031250000000000000e-01,1.562500000000001332e+00,-2.812500000000001332e+00,-6.250000000000003331e-01,-2.843750000000001776e+00,4.125000000000001776e+00,1.240625000000000711e+01,1.417187500000000888e+01,1.593750000000001066e+01,1.139062500000000711e+01,6.234375000000003553e+00,3.171875000000001776e+00,6.250000000000003331e-01,9.375000000000005551e-02,7.812500000000005551e-02,6.250000000000004163e-02,2.031250000000001388e-01,2.343750000000001665e-01,2.343750000000001665e-01,2.187500000000001665e-01,3.125000000000003469e-02,-1.562499999999999653e-02,-9.375000000000006939e-02,-1.093750000000000833e-01,4.687500000000002082e-02,3.125000000000001388e-02,6.250000000000002776e-02,1.562500000000000000e-02,-1.718750000000001110e-01,-1.875000000000001388e-01,-1.875000000000001388e-01,-6.250000000000005551e-02,2.187500000000001388e-01,5.468750000000003331e-01,1.328125000000000888e+00,2.046875000000001332e+00,2.640625000000001776e+00,2.640625000000001776e+00,5.468750000000003331e-01,-1.843750000000001332e+00,-4.437500000000003553e+00,-6.171875000000005329e+00,-4.671875000000003553e+00,-2.546875000000002220e+00,1.406249999999998890e-01,2.437500000000001332e+00,2.609375000000001332e+00,2.328125000000001332e+00,1.625000000000000888e+00,8.281250000000004441e-01,4.687500000000002220e-01,2.031250000000001110e-01,-7.812500000000005551e-02,-2.656250000000001665e-01,-3.593750000000002220e-01,-5.000000000000003331e-01,-3.906250000000002220e-01,-2.343750000000001665e-01,-9.375000000000005551e-02,2.656250000000002220e-01,4.218750000000003331e-01,4.843750000000003331e-01,5.312500000000004441e-01,2.343750000000001943e-01,-4.687500000000001388e-02,-2.812500000000002220e-01,-5.781250000000004441e-01,-5.468750000000003331e-01,-3.906250000000003331e-01,-2.031250000000001665e-01,1.250000000000000833e-01,2.812500000000001665e-01,3.593750000000002220e-01,4.375000000000003331e-01,4.218750000000003331e-01,4.531250000000003331e-01,4.375000000000003331e-01,3.125000000000002220e-01,1.875000000000001110e-01,-7.812500000000004163e-02,-3.281250000000002220e-01,-5.468750000000003331e-01,-8.125000000000005551e-01,-8.593750000000006661e-01,-8.281250000000006661e-01,-6.250000000000004441e-01,-2.500000000000002220e-01,9.375000000000006939e-02,4.375000000000003331e-01,6.406250000000004441e-01,7.031250000000005551e-01,6.406250000000004441e-01,4.687500000000003886e-01,2.656250000000002220e-01,4.687500000000004163e-02,-1.406250000000001110e-01,-2.656250000000002220e-01,-3.281250000000002220e-01,-2.968750000000002220e-01,-1.875000000000001110e-01,-4.687500000000002776e-02,6.250000000000005551e-02,1.093750000000000833e-01,1.093750000000000833e-01,6.250000000000005551e-02,6.250000000000004163e-02,6.250000000000004163e-02,1.562500000000001041e-02,-1.562500000000001041e-02,-9.375000000000006939e-02,-1.093750000000000833e-01,-4.687500000000004163e-02,1.562500000000000347e-02,6.250000000000004163e-02,0.000000000000000000e+00,-6.250000000000004163e-02,-1.250000000000000833e-01,-4.687500000000002776e-02,1.562500000000001110e-01,2.812500000000002220e-01,4.062500000000003331e-01,2.812500000000002220e-01,4.687500000000005551e-02,-1.093750000000000694e-01,-2.500000000000001665e-01,-1.562500000000000833e-01,1.562500000000000347e-02,1.250000000000000833e-01,2.031250000000001665e-01,1.562500000000001110e-01,4.687500000000004857e-02,6.938893903907229918e-18,-4.687500000000004163e-02,-6.250000000000005551e-02,6.562500000000003331e-01,1.890625000000000888e+00,5.156250000000003553e+00,9.265625000000005329e+00,1.132812500000000711e+01,1.320312500000001066e+01,9.843750000000007105e+00,6.468750000000004441e+00,6.046875000000003553e+00,1.781250000000000666e+00,3.124999999999922284e-02,-9.109375000000005329e+00,-2.143750000000001421e+01,-2.492187500000001421e+01,-2.403125000000001421e+01,-7.078125000000002665e+00,1.278125000000000711e+01,2.456250000000001421e+01,3.193750000000002132e+01,2.296875000000001421e+01,1.171875000000000888e+01,6.250000000000177636e-02,-1.239062500000000711e+01,-1.390625000000001066e+01,-1.493750000000001066e+01,-6.218750000000003553e+00,5.109375000000002665e+00,9.765625000000005329e+00,1.831250000000001066e+01,1.504687500000001066e+01,8.046875000000007105e+00,3.968750000000005329e+00,-1.012500000000000533e+01,-1.704687500000001066e+01,-1.787500000000001066e+01,-1.839062500000001066e+01,-5.234375000000003553e+00,3.687500000000001776e+00,7.421875000000004441e+00,8.218750000000005329e+00,-3.000000000000002220e+00,-7.703125000000005329e+00,-9.531250000000007105e+00,-3.171875000000001776e+00,1.034375000000000711e+01,1.775000000000001421e+01,2.253125000000001421e+01,1.482812500000001066e+01,4.515625000000003553e+00,-5.453125000000003553e+00,-1.182812500000000888e+01,-7.921875000000007105e+00,-3.406250000000003997e+00,3.093750000000000888e+00,6.171875000000003553e+00,3.140625000000001776e+00,-1.093750000000000444e+00,-5.875000000000003553e+00,-1.167187500000000711e+01,-1.309375000000000711e+01,-1.339062500000000711e+01,-1.409375000000001066e+01,-8.906250000000007105e+00,-5.562500000000003553e+00,-4.218750000000008882e-01,8.593750000000005329e+00,1.295312500000000711e+01,1.417187500000000888e+01,9.890625000000005329e+00,-2.406250000000002220e+00,-1.426562500000000888e+01,-1.912500000000001421e+01,-1.545312500000001066e+01,-4.062500000000001776e+00,9.250000000000007105e+00,1.670312500000001066e+01,1.500000000000001066e+01,8.890625000000007105e+00,-9.375000000000044409e-02,-7.140625000000004441e+00,-8.609375000000005329e+00,-7.468750000000005329e+00,-3.640625000000002665e+00,1.515625000000001110e+00,4.843750000000003553e+00,5.890625000000003553e+00,7.343750000000004441e+00,4.515625000000002665e+00,2.796875000000001332e+00,1.984375000000001110e+00,-2.890625000000001776e+00,-3.234375000000002665e+00,-4.843750000000003553e+00,-6.968750000000004441e+00,-5.843750000000003553e+00,-6.359375000000003553e+00,-5.953125000000003553e+00,-4.296875000000002665e+00,-2.921875000000001776e+00,-1.593750000000001110e+00,-5.468750000000004441e-01,-1.718750000000001110e-01,-1.718750000000001110e-01,-6.250000000000004163e-02,0.000000000000000000e+00,1.093750000000000833e-01,2.187500000000001665e-01,2.343750000000001665e-01,2.031250000000001388e-01,7.812500000000005551e-02,-4.687500000000004163e-02,-1.875000000000001665e-01,-2.187500000000001665e-01,-1.875000000000001388e-01,-1.562500000000001110e-01,1.562500000000000694e-02,4.687500000000002776e-02,6.250000000000004163e-02,9.375000000000006939e-02,-1.562500000000001041e-02,3.125000000000002082e-02,7.812500000000005551e-02,6.250000000000005551e-02,7.812500000000006939e-02,1.562500000000001735e-02,-4.687500000000002776e-02,-1.562500000000001041e-02,3.125000000000002082e-02,-1.562500000000001041e-02,-7.812500000000005551e-02,-2.031250000000001388e-01,-3.125000000000002220e-01,-2.187500000000001110e-01,-6.250000000000004163e-02,1.093750000000000833e-01,2.968750000000002220e-01,3.125000000000002220e-01,2.343750000000001665e-01,1.562500000000001110e-01,1.562500000000001388e-02,-6.250000000000005551e-02,-7.812500000000005551e-02,-9.375000000000008327e-02,-1.093750000000000833e-01,-7.812500000000005551e-02,-6.250000000000005551e-02,-4.687500000000004163e-02,4.687500000000004163e-02,4.687500000000004163e-02,4.687500000000004163e-02,4.687500000000004163e-02,-1.562500000000001041e-02,-1.562500000000001041e-02,-1.562500000000001041e-02,-1.562500000000001041e-02,1.562500000000001041e-02,-4.218750000000003331e-01,-8.593750000000006661e-01,-1.953125000000001332e+00,-4.703125000000002665e+00,-5.765625000000003553e+00,-7.718750000000004441e+00,-7.859375000000004441e+00,-4.359375000000002665e+00,-4.906250000000003553e+00,-2.875000000000002220e+00,-3.015625000000002665e+00,-3.328125000000003109e+00,3.171875000000001332e+00,5.140625000000003553e+00,7.437500000000005329e+00,3.453125000000002665e+00,-7.421875000000003553e+00,-1.184375000000000711e+01,-1.256250000000000711e+01,-6.687500000000004441e+00,1.937500000000000888e+00,4.390625000000001776e+00,7.031249999999993339e-01,-3.703125000000003553e+00,-6.359375000000004441e+00,-4.625000000000003553e+00,1.875000000000001332e+00,4.937500000000003553e+00,5.562500000000003553e+00,4.765625000000003553e+00,2.468750000000002220e+00,2.640625000000002665e+00,6.281250000000005329e+00,6.562500000000005329e+00,6.765625000000003553e+00,8.375000000000003553e+00,2.921875000000001332e+00,2.859375000000001776e+00,2.406250000000000888e+00,-2.656250000000001776e+00,-6.093750000000000000e-01,-1.312500000000000666e+00,-2.531250000000001332e+00,-5.781250000000002220e-01,-1.921875000000001332e+00,-4.593750000000003553e+00,-7.656250000000004441e+00,-9.921875000000005329e+00,-1.265625000000000711e+01,-1.218750000000000711e+01,-6.250000000000005329e+00,-2.718750000000002665e+00,4.093750000000003553e+00,9.015625000000005329e+00,6.468750000000004441e+00,6.718750000000005329e+00,3.968750000000002665e+00,2.265625000000001332e+00,4.296875000000002665e+00,4.546875000000002665e+00,4.046875000000002665e+00,3.250000000000002220e+00,5.031250000000003553e+00,5.656250000000003553e+00,1.129687500000000711e+01,1.498437500000001066e+01,1.142187500000000711e+01,1.239062500000000711e+01,8.703125000000007105e+00,7.046875000000005329e+00,1.256250000000000888e+01,1.089062500000000711e+01,7.703125000000005329e+00,5.937500000000004441e+00,-5.625000000000008882e-01,-3.000000000000001776e+00,-1.531250000000001554e+00,-7.687500000000005329e+00,-1.600000000000000711e+01,-2.325000000000001421e+01,-3.287500000000002132e+01,-3.406250000000002132e+01,-2.343750000000001421e+01,-1.425000000000001066e+01,-1.531250000000001776e+00,1.168750000000000711e+01,1.173437500000000711e+01,1.212500000000000888e+01,1.057812500000000711e+01,1.750000000000001332e+00,-8.593750000000004441e-01,-1.328125000000001110e+00,-3.609375000000002665e+00,1.718750000000000444e+00,7.781250000000004441e+00,1.070312500000000711e+01,1.567187500000001066e+01,1.771875000000001066e+01,1.843750000000001066e+01,1.823437500000001066e+01,1.710937500000001066e+01,9.250000000000005329e+00,-2.843750000000002665e+00,-1.153125000000000888e+01,-2.185937500000001421e+01,-2.104687500000001421e+01,-1.543750000000001066e+01,-1.248437500000000711e+01,-4.671875000000002665e+00,-5.062500000000002665e+00,-3.875000000000002220e+00,-1.906250000000000888e+00,-3.796875000000002220e+00,1.062500000000000444e+00,4.156250000000002665e+00,9.328125000000005329e+00,1.493750000000001066e+01,1.601562500000001066e+01,1.251562500000000711e+01,8.437500000000007105e+00,3.843750000000003553e+00,-3.203125000000001776e+00,-5.750000000000003553e+00,-1.489062500000000888e+01,-2.262500000000001421e+01,-2.584375000000001776e+01,-2.764062500000002132e+01,-2.028125000000001421e+01,-1.154687500000000711e+01,5.000000000000008882e-01,9.609375000000007105e+00,1.631250000000000711e+01,2.090625000000001066e+01,1.768750000000001066e+01,1.728125000000001066e+01,1.592187500000001066e+01,1.457812500000001066e+01,1.778125000000001066e+01,1.546875000000000888e+01,8.421875000000005329e+00,1.187500000000000666e+00,-9.671875000000005329e+00,-1.579687500000001066e+01,-1.384375000000000888e+01,-1.231250000000000711e+01,-5.625000000000004441e+00,1.328125000000000222e+00,3.750000000000001776e+00,8.296875000000003553e+00,7.609375000000003553e+00,2.984375000000001776e+00,-2.281250000000000888e+00,-9.578125000000007105e+00,-1.267187500000000888e+01,-1.156250000000000711e+01,-7.796875000000004441e+00,-3.218750000000002665e+00,-4.062500000000003886e-01,6.875000000000004441e-01,-1.203125000000000888e+00,-2.718750000000001776e+00,-6.125000000000004441e+00,-1.137500000000000711e+01,-1.123437500000000711e+01,-1.107812500000000711e+01,-4.937500000000003553e+00,4.671875000000002665e+00,8.015625000000003553e+00,1.071875000000000711e+01,6.453125000000005329e+00,1.265625000000001332e+00,2.500000000000006661e-01,-7.656250000000001110e-01,1.921875000000001332e+00,4.046875000000002665e+00,4.265625000000002665e+00,5.515625000000003553e+00,6.750000000000005329e+00,5.906250000000003553e+00,3.375000000000001776e+00,-1.562500000000004441e-01,-5.531250000000003553e+00,-8.875000000000005329e+00,-6.390625000000003553e+00,-4.921875000000003553e+00,-1.421875000000000666e+00,5.218750000000003553e+00,5.453125000000003553e+00,8.453125000000005329e+00,1.065625000000000711e+01,5.500000000000003553e+00,4.453125000000002665e+00,1.687500000000001554e+00,-3.296875000000001776e+00,-1.781250000000000888e+00,-3.656250000000002665e+00,-6.625000000000005329e+00,-4.421875000000003553e+00,-5.187500000000003553e+00,-2.812500000000002220e+00,2.953125000000001776e+00,2.390625000000001332e+00,1.484375000000001110e+00,1.093750000000000666e+00,-4.125000000000002665e+00,-2.734375000000001776e+00,1.140625000000001110e+00,9.062500000000011102e-01,5.468750000000003553e+00,5.296875000000003553e+00,3.031250000000001776e+00,3.906250000000002665e+00,3.468750000000002665e+00,3.375000000000002665e+00,5.140625000000003553e+00,6.234375000000004441e+00,4.421875000000003553e+00,5.500000000000004441e+00,3.437500000000003109e+00,1.687500000000001332e+00,3.187500000000002220e+00,1.125000000000000444e+00,-3.281250000000005551e-01,-2.359375000000001776e+00,-7.625000000000005329e+00,-9.296875000000005329e+00,-6.828125000000004441e+00,-6.031250000000003553e+00,7.343750000000004441e-01,2.312500000000000888e+00,-8.281250000000009992e-01,1.765625000000000888e+00,-3.437500000000001776e+00,-2.015625000000000888e+00,2.187500000000001776e+00,-1.218750000000000888e+00,1.812500000000000888e+00,1.046875000000000666e+00,-1.640625000000001110e+00,4.531250000000005551e-01,6.406250000000006661e-01,-7.031250000000006661e-01,-6.093750000000004441e-01,7.343750000000006661e-01,-8.906250000000005551e-01,2.062500000000001776e+00,4.625000000000003553e+00,2.421875000000001776e+00,3.437500000000002665e+00,4.687500000000000000e-02,-3.453125000000002220e+00,-4.421875000000003553e+00,-4.156250000000003553e+00,-2.093750000000001776e+00,-7.500000000000006661e-01,1.921875000000001332e+00,-1.406250000000001110e+00,-2.937500000000002220e+00,-2.859375000000001776e+00,-4.828125000000003553e+00,1.312500000000001332e+00,4.468750000000003553e+00,5.687500000000004441e+00,7.093750000000005329e+00,9.062500000000006661e-01,-4.437500000000002665e+00,-7.593750000000005329e+00,-1.000000000000000711e+01,-6.062500000000004441e+00,-1.546875000000001332e+00,2.328125000000001332e+00,6.671875000000004441e+00,4.859375000000003553e+00,3.921875000000002665e+00,2.187500000000004441e-01,-5.515625000000003553e+00,-4.296875000000003553e+00,-5.250000000000003553e+00,-2.281250000000001776e+00,2.406250000000001776e+00,5.468750000000002220e-01,9.374999999999983347e-02,-1.078125000000000888e+00,-1.015625000000000444e+00,1.546875000000001332e+00,4.531250000000003553e+00,4.218750000000003553e+00,7.968750000000004441e-01,1.171875000000000888e+00,-6.875000000000004441e-01,6.875000000000004441e-01,3.156250000000002220e+00,-1.765625000000001332e+00,-3.453125000000002665e+00,-5.750000000000003553e+00,-7.453125000000004441e+00,-3.234375000000001776e+00,-1.218750000000000444e+00,1.437500000000000888e+00,3.328125000000002220e+00,3.906250000000002220e+00,3.859375000000001776e+00,1.250000000000000888e+00,9.531250000000007772e-01,-1.546875000000000888e+00,-3.062500000000001776e+00,-1.390625000000000888e+00,-2.656250000000001776e+00,-2.187500000000001776e+00,1.093750000000000444e+00,3.593750000000000000e-01,1.843750000000001110e+00,3.875000000000002665e+00,-1.093750000000000000e-01,1.671875000000000666e+00,1.015625000000000000e+00,-1.531250000000001332e+00,1.531250000000000666e+00,-7.500000000000006661e-01,-1.531250000000001332e+00,-3.437500000000003331e-01,-1.062500000000000666e+00,7.812500000000004441e-01,2.250000000000001776e+00,2.765625000000001776e+00,6.718750000000003331e-01,-2.218750000000001776e+00,-3.640625000000002665e+00,-4.671875000000003553e+00,-2.171875000000001332e+00,8.593750000000004441e-01,1.859375000000000888e+00,1.593750000000000888e+00,-4.218750000000003331e-01,-1.906250000000001332e+00,-1.750000000000000888e+00,1.484375000000000888e+00,4.890625000000002665e+00,5.796875000000003553e+00,4.890625000000003553e+00,-1.312500000000001554e+00,-5.375000000000003553e+00,-6.343750000000003553e+00,-5.937500000000003553e+00,6.249999999999977796e-02,2.125000000000001332e+00,2.234375000000001332e+00,1.312500000000000888e+00,-2.421875000000001776e+00,-3.187500000000002220e+00,-1.593750000000001110e+00,1.640625000000000888e+00,6.109375000000003553e+00,1.006250000000000711e+01,8.468750000000005329e+00,6.015625000000005329e+00,-4.218750000000000000e-01,-7.890625000000005329e+00,-7.156250000000005329e+00,-8.125000000000005329e+00,-1.687500000000000000e+00,5.625000000000004441e+00,4.750000000000003553e+00,6.687500000000005329e+00,7.812500000000004441e-01,-5.343750000000003553e+00,-4.953125000000003553e+00,-5.625000000000003553e+00,-1.562500000000000000e-01,4.937500000000003553e+00,4.593750000000002665e+00,3.921875000000002665e+00,-1.796875000000001554e+00,-6.593750000000004441e+00,-6.312500000000004441e+00,-6.625000000000005329e+00,-7.968750000000008882e-01,3.937500000000001776e+00,6.578125000000003553e+00,1.067187500000000711e+01,6.796875000000004441e+00,4.093750000000002665e+00,-1.515625000000000444e+00,-7.765625000000005329e+00,-6.171875000000005329e+00,-5.312500000000003553e+00,-2.343750000000004441e-01,2.906250000000001776e+00,1.578125000000000888e+00,-1.250000000000002220e-01,-3.531250000000002220e+00,-1.812500000000000888e+00,2.968750000000000555e-01,2.671875000000001332e+00,5.750000000000003553e+00,2.953125000000001776e+00,7.656250000000005551e-01,-6.093750000000003331e-01,-4.406250000000003553e+00,-4.296875000000003553e+00,-4.718750000000003553e+00,-5.281250000000003553e+00,-2.359375000000001332e+00,-1.546875000000000666e+00,2.000000000000001332e+00,5.625000000000003553e+00,8.000000000000003553e+00,1.107812500000000533e+01,1.020312500000000533e+01,6.562500000000003553e+00,1.875000000000000000e-01,-3.843750000000002665e+00,-6.562500000000003553e+00,-5.781250000000003553e+00,4.218750000000002220e-01,5.468750000000002220e-01,2.015625000000000888e+00,2.031250000000000888e+00,-4.078125000000002665e+00,-3.125000000000002220e+00,-4.187500000000002665e+00,-4.093750000000002665e+00,-2.812500000000001665e-01,-1.171875000000000666e+00,6.093750000000003331e-01,-1.343750000000000888e+00,-2.671875000000001776e+00,-1.156250000000000888e+00,-2.843750000000002220e+00,1.140625000000000000e+00,3.250000000000001776e+00,1.031250000000000444e+00,1.843750000000000888e+00,-8.281250000000008882e-01,-4.546875000000003553e+00,-1.625000000000000888e+00,-1.484375000000000888e+00,-1.437500000000000666e+00,3.390625000000001776e+00,2.187500000000000888e+00,-1.062500000000001332e+00,-9.140625000000007105e+00,-2.814062500000001421e+01,-4.973437500000002842e+01,-5.817187500000004263e+01,-4.914062500000002842e+01,-2.251562500000001066e+01
5.168750000000002132e+01,6.918750000000002842e+01,2.137500000000000711e+01,-3.187500000000001776e+00,-1.318750000000000533e+01,-5.875000000000001776e+00,4.312500000000001776e+00,-6.625000000000003553e+00,-3.750000000000000000e-01,1.831250000000000711e+01,1.331250000000000711e+01,-8.125000000000000000e-01,-1.943750000000000711e+01,-2.025000000000000711e+01,2.550000000000001421e+01,4.200000000000002132e+01,-1.250000000000017764e-01,-2.131250000000001066e+01,-1.818750000000000711e+01,-1.237500000000000355e+01,1.350000000000000711e+01,2.762500000000001066e+01,-1.937500000000001776e+00,-2.131250000000000711e+01,1.587500000000000355e+01,3.456250000000001421e+01,-4.437500000000001776e+00,-2.612500000000001421e+01,-1.568750000000000711e+01,-3.125000000000001332e+00,-3.187500000000001332e+00,-1.656250000000000711e+01,-1.012500000000000355e+01,6.437500000000003553e+00,5.312500000000002665e+00,-1.375000000000000888e+00,-4.625000000000001776e+00,-1.812500000000000222e+00,7.625000000000004441e+00,1.025000000000000533e+01,-5.000000000000004441e-01,3.812500000000001776e+00,2.362500000000001066e+01,1.012500000000000533e+01,-2.281250000000000711e+01,-2.218750000000001066e+01,-1.056250000000000355e+01,-1.143750000000000355e+01,2.012500000000001066e+01,5.568750000000002842e+01,1.618750000000000711e+01,-3.656250000000001421e+01,-1.400000000000000178e+01,1.162500000000000711e+01,-3.618750000000002132e+01,-6.587500000000002842e+01,-1.937500000000000000e+00,5.650000000000002842e+01,3.768750000000001421e+01,1.218750000000000355e+01,1.756250000000000711e+01,1.243750000000000711e+01,-1.262500000000000533e+01,-2.856250000000001421e+01,-1.743750000000000711e+01,-2.000000000000001332e+00,-7.625000000000003553e+00,-4.375000000000001776e+00,1.600000000000000711e+01,1.262500000000000711e+01,-6.437500000000002665e+00,-1.956250000000000711e+01,-1.462500000000000533e+01,3.006250000000001421e+01,4.387500000000002132e+01,-1.118750000000000178e+01,-2.956250000000001066e+01,3.750000000000008882e-01,3.312500000000001776e+00,-6.375000000000003553e+00,-2.937500000000001776e+00,1.875000000000001110e-01,-1.875000000000001110e-01,-5.000000000000002220e-01,-5.000000000000001776e+00,-9.250000000000003553e+00,4.562500000000001776e+00,1.900000000000000711e+01,6.000000000000001776e+00,-9.125000000000003553e+00,-6.500000000000002665e+00,-4.312500000000002665e+00,-8.437500000000003553e+00,-1.518750000000000711e+01,-1.768750000000000711e+01,1.356250000000000711e+01,5.625000000000002842e+01,2.893750000000001066e+01,-3.831250000000001421e+01,-4.431250000000001421e+01,-6.937500000000002665e+00,9.750000000000003553e+00,1.175000000000000533e+01,1.700000000000000711e+01,2.031250000000000711e+01,1.693750000000000711e+01,3.187500000000003553e+00,-1.381250000000000711e+01,-1.675000000000000711e+01,-1.012500000000000533e+01,-1.362500000000000533e+01,-2.187500000000000711e+01,-1.250000000000001776e+00,3.993750000000001421e+01,3.600000000000001421e+01,-9.062500000000003553e+00,-3.187500000000001421e+01,-3.018750000000001421e+01,-5.375000000000003553e+00,3.793750000000001421e+01,3.568750000000001421e+01,-8.250000000000003553e+00,-2.206250000000001066e+01,-7.250000000000003553e+00,1.875000000000000833e-01,6.250000000000002776e-02,-6.250000000000002776e-02,6.250000000000002776e-02,-6.250000000000002776e-02,-2.500000000000001110e-01,-1.250000000000000555e-01,6.250000000000002776e-02,2.500000000000001110e-01,1.250000000000000833e-01,-3.125000000000001110e-01,-1.250000000000000555e-01,3.750000000000001665e-01,1.875000000000000833e-01,-2.500000000000001110e-01,-1.875000000000001110e-01,6.250000000000002776e-02,1.250000000000000555e-01,6.250000000000002776e-02,-1.875000000000001110e-01,-3.125000000000001665e-01,0.000000000000000000e+00,3.750000000000001665e-01,3.125000000000001110e-01,-6.250000000000002776e-02,-1.875000000000000833e-01,-6.250000000000002776e-02,6.250000000000002776e-02,6.250000000000002776e-02,-1.875000000000001110e-01,-4.625000000000001776e+00,-1.568750000000000533e+01,-1.318750000000000533e+01,2.624999999999999556e+00,-5.562500000000002665e+00,-3.625000000000000000e+00,3.425000000000001421e+01,2.568750000000001421e+01,-1.956250000000000711e+01,-2.256250000000001066e+01,-8.062500000000003553e+00,3.750000000000002665e+00,2.056250000000001066e+01,1.937500000000000711e+01,-2.875000000000001776e+00,-2.981250000000001066e+01,-2.300000000000000711e+01,2.087500000000001066e+01,2.500000000000001066e+01,-1.306250000000000711e+01,-1.706250000000000711e+01,6.625000000000003553e+00,4.937500000000001776e+00,-5.000000000000002665e+00,5.000000000000002665e+00,4.625000000000003553e+00,-6.312500000000001776e+00,-6.812500000000003553e+00,-2.375000000000001332e+00,1.137500000000000355e+01,1.831250000000000711e+01,-7.500000000000000000e-01,-1.625000000000000711e+01,-7.062500000000003553e+00,1.312500000000000222e+00,1.500000000000000666e+00,2.062500000000000888e+00,-4.375000000000005551e-01,5.125000000000001776e+00,8.937500000000003553e+00,3.125000000000004441e-01,-1.250000000000000444e+00,4.000000000000001776e+00,4.125000000000001776e+00,-7.000000000000003553e+00,-2.100000000000000711e+01,-7.125000000000002665e+00,2.387500000000001066e+01,1.525000000000000533e+01,-1.662500000000000711e+01,-5.250000000000003553e+00,2.037500000000001066e+01,1.687500000000003553e+00,-1.768750000000000711e+01,6.187500000000003553e+00,1.575000000000000711e+01,-1.275000000000000711e+01,-1.612500000000000711e+01,5.187500000000003553e+00,2.187500000000001776e+00,-5.437500000000002665e+00,-9.375000000000006661e-01,-3.312500000000001332e+00,3.750000000000004441e-01,5.937500000000001776e+00,5.312500000000001776e+00,1.200000000000000533e+01,8.125000000000000000e-01,-1.450000000000000711e+01,6.562500000000003553e+00,1.662500000000000711e+01,-1.268750000000000533e+01,-2.256250000000001066e+01,7.062500000000003553e+00,1.487500000000000711e+01,-1.656250000000000711e+01,-1.375000000000000533e+01,1.937500000000000711e+01,8.250000000000003553e+00,-1.800000000000000711e+01,-8.375000000000001776e+00,1.637500000000000711e+01,2.337500000000001066e+01,4.125000000000001776e+00,-1.143750000000000355e+01,2.125000000000001776e+00,1.450000000000000711e+01,-2.375000000000000000e+00,-1.562500000000000711e+01,-7.812500000000003553e+00,2.687500000000001332e+00,6.125000000000002665e+00,-2.812500000000001776e+00,-3.062500000000001776e+00,4.312500000000001776e+00,-4.437500000000002665e+00,-1.506250000000000711e+01,-6.250000000000001776e+00,1.100000000000000533e+01,2.250000000000000000e+00,-9.062500000000003553e+00,4.750000000000002665e+00,1.231250000000000533e+01,1.775000000000000711e+01,1.187500000000000711e+01,-2.200000000000001066e+01,-3.037500000000001421e+01,-8.687500000000003553e+00,5.875000000000002665e+00,1.462500000000000711e+01,7.437500000000002665e+00,-5.125000000000002665e+00,-7.687500000000003553e+00,-1.131250000000000533e+01,-7.500000000000000000e-01,1.493750000000000711e+01,1.100000000000000355e+01,2.625000000000000888e+00,3.125000000000001665e-01,-1.250000000000000555e-01,1.250000000000000555e-01,6.250000000000002776e-02,-6.250000000000002776e-02,0.000000000000000000e+00,-6.250000000000002776e-02,0.000000000000000000e+00,1.875000000000000833e-01,1.875000000000000833e-01,0.000000000000000000e+00,0.000000000000000000e+00,1.250000000000000555e-01,-1.875000000000000833e-01,-3.125000000000001110e-01,1.250000000000000833e-01,2.500000000000001110e-01,6.250000000000002776e-02,-6.250000000000002776e-02,-6.250000000000002776e-02,0.000000000000000000e+00,-1.875000000000001110e-01,-2.500000000000001110e-01,6.250000000000002776e-02,2.500000000000001110e-01,3.125000000000001665e-01,3.125000000000002220e-01,6.250000000000004163e-02,4.375000000000000555e-01,3.125000000000000888e+00,3.812500000000001776e+00,-3.625000000000000888e+00,-8.812500000000003553e+00,-2.625000000000000888e+00,2.937500000000001776e+00,1.937500000000001110e+00,7.500000000000003331e-01,6.875000000000002220e-01,6.250000000000002220e-01,3.125000000000001665e-01,-1.875000000000001110e-01,-6.250000000000005551e-02,3.750000000000001665e-01,1.875000000000000833e-01,-3.125000000000001110e-01,-4.375000000000002220e-01,-6.250000000000005551e-02,2.500000000000001110e-01,-2.500000000000001110e-01,-5.000000000000002220e-01,2.500000000000001110e-01,5.000000000000002220e-01,1.250000000000000555e-01,6.250000000000002776e-02,1.250000000000000555e-01,1.875000000000001110e-01,-6.250000000000002776e-02,-5.000000000000002220e-01,-3.125000000000001665e-01,-6.250000000000004163e-02,-1.250000000000000555e-01,1.250000000000000833e-01,3.125000000000001665e-01,1.250000000000000555e-01,0.000000000000000000e+00,0.000000000000000000e+00,6.250000000000002776e-02,2.500000000000001110e-01,3.750000000000002220e-01,6.250000000000002776e-02,-3.750000000000002220e-01,-1.250000000000000278e-01,2.500000000000001110e-01,-1.250000000000000555e-01,-6.250000000000003331e-01,-5.625000000000003331e-01,-6.250000000000005551e-02,1.875000000000000555e-01,-6.250000000000004163e-02,-6.250000000000001388e-02,3.750000000000001665e-01,5.000000000000002220e-01,1.250000000000000833e-01,-6.250000000000002776e-02,1.250000000000000555e-01,1.250000000000000555e-01,-1.250000000000000555e-01,-1.875000000000000833e-01,-6.250000000000002776e-02,-6.250000000000002776e-02,-1.875000000000000833e-01,-1.250000000000000555e-01,1.875000000000001110e-01,3.125000000000001665e-01,0.000000000000000000e+00,-2.500000000000001110e-01,-6.250000000000002776e-02,1.250000000000000555e-01,1.250000000000000555e-01,1.250000000000000555e-01,-6.250000000000002776e-02,-3.125000000000001665e-01,-1.875000000000001110e-01,1.875000000000001110e-01,3.125000000000001665e-01,6.250000000000002776e-02,-1.875000000000000833e-01,-1.875000000000000833e-01,-6.250000000000002776e-02,-6.250000000000002776e-02,6.250000000000002776e-02,4.375000000000002220e-01,3.750000000000002220e-01,-6.250000000000005551e-02,-3.125000000000002220e-01,-3.125000000000001665e-01,-6.250000000000002776e-02,1.250000000000000555e-01,1.250000000000000555e-01,1.875000000000000833e-01,1.250000000000000555e-01,-1.250000000000000555e-01,-1.875000000000000833e-01,0.000000000000000000e+00,1.875000000000000833e-01,6.250000000000002776e-02,-2.500000000000001110e-01,-1.250000000000000833e-01,2.500000000000001110e-01,2.875000000000000888e+00,7.500000000000002665e+00,9.625000000000003553e+00,6.375000000000003553e+00,-1.000000000000000355e+01,-1.843750000000000711e+01,1.025000000000000355e+01,3.112500000000001421e+01,1.812500000000000000e+00,-3.975000000000002132e+01,-3.825000000000001421e+01,3.187500000000003553e+00,2.537500000000001066e+01,2.000000000000000711e+01,1.437500000000000711e+01,4.375000000000008882e-01,-7.437500000000003553e+00,3.500000000000000444e+00,8.000000000000003553e+00,-7.937500000000001776e+00,-2.337500000000001066e+01,-1.075000000000000711e+01,1.131250000000000355e+01,2.056250000000000711e+01,1.068750000000000355e+01,-1.437500000000000533e+01,-4.687500000000000000e+00,2.412500000000001421e+01,6.000000000000001776e+00,-2.156250000000001421e+01,-1.775000000000001066e+01,-5.687500000000002665e+00,2.562500000000001332e+00,1.812500000000000888e+00,5.437500000000003553e+00,1.543750000000000711e+01,6.937500000000001776e+00,-1.356250000000000711e+01,-2.318750000000001066e+01,-7.062500000000003553e+00,1.481250000000000711e+01,1.525000000000000711e+01,8.562500000000003553e+00,7.500000000000002665e+00,4.062500000000000888e+00,-8.687500000000003553e+00,-1.356250000000000711e+01,-4.875000000000002665e+00,-1.125000000000000444e+00,4.562500000000002665e+00,1.375000000000000711e+01,6.562500000000001776e+00,-1.168750000000000533e+01,-1.306250000000000533e+01,7.000000000000001776e+00,1.206250000000000355e+01,-1.612500000000000711e+01,-2.418750000000001066e+01,8.812500000000003553e+00,1.768750000000000711e+01,-8.375000000000003553e+00,-1.718750000000000711e+01,2.500000000000001776e+00,2.506250000000001066e+01,1.943750000000000711e+01,-9.312500000000005329e+00,-1.625000000000001066e+01,-5.375000000000003553e+00,-1.368750000000000533e+01,-1.531250000000000711e+01,1.493750000000000533e+01,2.918750000000001421e+01,6.125000000000002665e+00,-1.031250000000000533e+01,-6.125000000000002665e+00,-4.375000000000001110e-01,1.687500000000000444e+00,-2.250000000000000888e+00,-9.812500000000005329e+00,-4.875000000000002665e+00,1.306250000000000711e+01,1.518750000000000711e+01,-8.562500000000005329e+00,-1.600000000000000711e+01,1.281250000000000533e+01,1.818750000000000711e+01,-1.293750000000000533e+01,-1.456250000000000533e+01,7.250000000000003553e+00,5.875000000000003553e+00,-5.625000000000001776e+00,-5.812500000000002665e+00,-1.437500000000000888e+00,1.875000000000000833e-01,6.250000000000002776e-02,-2.500000000000001110e-01,-1.875000000000001110e-01,6.250000000000002776e-02,6.250000000000002776e-02,-6.250000000000002776e-02,-1.250000000000000555e-01,0.000000000000000000e+00,1.250000000000000555e-01,1.250000000000000555e-01,1.875000000000000833e-01,1.250000000000000555e-01,-1.875000000000001110e-01,-2.500000000000001110e-01,6.250000000000002776e-02,6.250000000000002776e-02,-1.875000000000000833e-01,-1.250000000000000555e-01,6.250000000000002776e-02,2.500000000000001110e-01,1.875000000000001110e-01,-1.875000000000001110e-01,-2.500000000000001110e-01,-6.250000000000002776e-02,1.875000000000001110e-01,4.375000000000002220e-01,6.250000000000000000e-02,-5.625000000000003331e-01,-3.125000000000002220e-01,3.750000000000002220e-01,4.375000000000002220e-01,0.000000000000000000e+00,-3.750000000000001665e-01,-3.125000000000001110e-01,0.000000000000000000e+00,0.000000000000000000e+00,0.000000000000000000e+00,2.500000000000001110e-01,1.875000000000001110e-01,0.000000000000000000e+00,6.250000000000002776e-02,0.000000000000000000e+00,-1.250000000000000555e-01,-6.250000000000002776e-02,0.000000000000000000e+00,6.250000000000002776e-02,6.250000000000002776e-02,-1.875000000000001110e-01,-1.875000000000001110e-01,1.875000000000001110e-01,1.875000000000001110e-01,-6.250000000000002776e-02,-6.250000000000002776e-02,0.000000000000000000e+00,0.000000000000000000e+00,0.000000000000000000e+00,0.000000000000000000e+00,0.000000000000000000e+00,0.000000000000000000e+00,0.000000000000000000e+00,0.000000000000000000e+00,6.250000000000002776e-02,-1.687500000000000888e+00,-3.687500000000001776e+00,-1.062500000000000444e+00,-4.437500000000001776e+00,-8.687500000000003553e+00,8.750000000000005329e+00,1.643750000000000711e+01,-1.112500000000000533e+01,-2.731250000000001066e+01,1.937500000000003553e+00,3.437500000000001421e+01,1.512500000000000355e+01,-1.800000000000001066e+01,-1.581250000000000888e+01,-1.168750000000000711e+01,-1.031250000000000711e+01,1.487500000000000533e+01,2.631250000000001066e+01,-2.000000000000001776e+00,-2.200000000000000711e+01,-8.750000000000001776e+00,4.750000000000003553e+00,2.000000000000000888e+00,3.250000000000000888e+00,1.218750000000000533e+01,1.687500000000000000e+00,-1.625000000000000711e+01,-3.500000000000000000e+00,1.487500000000000711e+01,5.187500000000001776e+00,-2.875000000000001776e+00,8.125000000000006661e-01,1.875000000000003331e-01,4.187500000000001776e+00,3.125000000000000000e-01,-5.375000000000002665e+00,5.937500000000002665e+00,-6.250000000000000000e-01,-1.387500000000000711e+01,6.562500000000003553e+00,1.600000000000000711e+01,-1.043750000000000533e+01,-1.493750000000000711e+01,7.937500000000002665e+00,5.625000000000001776e+00,-1.312500000000000533e+01,-1.362500000000000533e+01,3.750000000000000000e-01,1.387500000000000533e+01,7.187500000000001776e+00,-6.312500000000003553e+00,2.687500000000001776e+00,7.250000000000003553e+00,-6.187500000000003553e+00,-7.125000000000003553e+00,6.375000000000003553e+00,1.225000000000000533e+01,2.750000000000000888e+00,-1.175000000000000355e+01,-9.000000000000003553e+00,1.093750000000000533e+01,1.318750000000000711e+01,5.000000000000001776e+00,6.500000000000001776e+00,-5.687500000000001776e+00,-1.193750000000000355e+01,6.437500000000002665e+00,1.456250000000000711e+01,1.225000000000000533e+01,2.375000000000000888e+00,-1.962500000000000711e+01,-1.206250000000000533e+01,1.575000000000000888e+01,1.143750000000000533e+01,-2.937500000000001776e+00,-9.437500000000003553e+00,-2.262500000000001066e+01,-1.575000000000000711e+01,7.500000000000001110e-01,-7.062500000000003553e+00,-2.750000000000000888e+00,1.281250000000000533e+01,6.187500000000001776e+00,6.562500000000003553e+00,5.250000000000002665e+00,-1.237500000000000711e+01,-9.375000000000017764e-01,1.443750000000000711e+01,-7.437500000000004441e+00,-1.556250000000000888e+01,4.750000000000001776e+00,1.325000000000000711e+01,9.687500000000003553e+00,1.875000000000000888e+00,-5.437500000000002665e+00,3.625000000000001776e+00,1.475000000000000711e+01,7.687500000000003553e+00,3.875000000000000888e+00,-3.125000000000017764e-01,-2.350000000000001066e+01,-2.425000000000000711e+01,5.812500000000003553e+00,1.837500000000000711e+01,6.250000000000000000e-02,-1.862500000000000711e+01,-6.750000000000003553e+00,1.162500000000000533e+01,8.187500000000003553e+00,-4.250000000000001776e+00,-1.381250000000000533e+01,-4.250000000000001776e+00,1.787500000000000711e+01,1.887500000000000711e+01,2.000000000000000000e+00,-7.312500000000003553e+00,-8.437500000000003553e+00,1.312500000000000888e+00,1.412500000000000711e+01,1.125000000000000000e+00,-1.637500000000000711e+01,-1.481250000000000533e+01,-1.050000000000000355e+01,-5.000000000000003553e+00,1.687500000000000444e+00,-3.124999999999991118e-01,-2.937500000000000888e+00,8.250000000000003553e+00,1.381250000000000533e+01,5.687500000000002665e+00,4.562500000000002665e+00,-7.500000000000000000e-01,-7.437500000000003553e+00,6.937500000000001776e+00,1.918750000000000711e+01,9.437500000000003553e+00,-5.875000000000003553e+00,-1.093750000000000711e+01,-4.562500000000001776e+00,-6.187500000000002665e+00,-1.106250000000000533e+01,7.000000000000003553e+00,1.275000000000000533e+01,-1.193750000000000711e+01,-9.750000000000005329e+00,1.893750000000000711e+01,1.662500000000000711e+01,-1.093750000000000533e+01,-1.475000000000000711e+01,1.312500000000000888e+00,-2.562500000000001776e+00,-1.256250000000000711e+01,3.687500000000000888e+00,1.650000000000000711e+01,-3.250000000000000000e+00,-1.612500000000000711e+01,3.000000000000000000e+00,1.281250000000000533e+01,-1.937500000000000888e+00,-1.275000000000000711e+01,-1.181250000000000711e+01,-2.375000000000001332e+00,4.625000000000002665e+00,5.937500000000003553e+00,1.281250000000000533e+01,8.937500000000003553e+00,-1.112500000000000533e+01,-1.706250000000000711e+01,3.812500000000000000e+00,1.906250000000000711e+01,6.875000000000000000e-01,-1.456250000000000711e+01,3.000000000000000000e+00,1.087500000000000533e+01,-4.062500000000001776e+00,1.750000000000000888e+00,1.375000000000000711e+01,-6.062500000000003553e+00,-1.968750000000001066e+01,-1.687500000000001776e+00,8.875000000000003553e+00,3.125000000000001776e+00,-3.812500000000001776e+00,-5.437500000000002665e+00,7.312500000000002665e+00,1.012500000000000355e+01,-1.312500000000000222e+00,3.125000000000000888e+00,1.562500000000000000e+00,-1.200000000000000533e+01,-1.812500000000000000e+00,1.200000000000000711e+01,2.562500000000000888e+00,-1.181250000000000533e+01,-1.143750000000000533e+01,5.500000000000001776e+00,9.562500000000003553e+00,-4.812500000000002665e+00,1.187500000000000888e+00,1.025000000000000533e+01,-7.125000000000001776e+00,-1.275000000000000533e+01,4.999999999999995559e-01,7.625000000000003553e+00,9.937500000000005329e+00,-1.125000000000000888e+00,-1.087500000000000533e+01,3.125000000000001776e+00,1.087500000000000533e+01,-2.312500000000000000e+00,-6.375000000000001776e+00,3.000000000000001332e+00,7.687500000000003553e+00,4.000000000000001776e+00,-4.562500000000001776e+00,-2.937500000000000888e+00,4.437500000000001776e+00,6.250000000000044409e-02,-1.000000000000000444e+00,5.125000000000001776e+00,6.875000000000004441e-01,-8.625000000000003553e+00,-1.125000000000000355e+01,-3.000000000000001776e+00,9.937500000000003553e+00,6.000000000000002665e+00,-1.312500000000000888e+00,-7.500000000000004441e-01,-7.125000000000003553e+00,-3.125000000000002220e+00,4.562500000000001776e+00,3.062500000000001776e+00,6.062500000000002665e+00,-4.562500000000001776e+00,-1.306250000000000533e+01,8.250000000000005329e+00,1.200000000000000711e+01,-1.056250000000000533e+01,-5.000000000000003553e+00,9.750000000000003553e+00,-3.250000000000001776e+00,-6.875000000000003553e+00,5.625000000000001776e+00,5.937500000000002665e+00,1.437500000000000666e+00,-2.687500000000001776e+00,-3.000000000000001776e+00,2.562500000000000888e+00,-2.125000000000000888e+00,-1.081250000000000533e+01,1.312500000000000000e+00,1.500000000000000711e+01,1.437500000000000888e+00,-1.106250000000000355e+01,-5.125000000000001776e+00,2.625000000000000888e+00,3.125000000000000888e+00,-5.062500000000002665e+00,-2.500000000000008882e-01,1.443750000000000711e+01,6.562500000000004441e+00,-8.937500000000003553e+00,-9.375000000000005329e+00,-4.875000000000002665e+00,-3.750000000000002220e-01,2.687500000000001332e+00,1.375000000000000666e+00,-1.875000000000000555e-01,3.437500000000001776e+00,6.875000000000003553e+00,-1.812500000000001332e+00,-5.562500000000002665e+00,9.375000000000005551e-01,-5.250000000000002665e+00,-7.125000000000003553e+00,5.000000000000001776e+00,9.500000000000003553e+00,5.875000000000002665e+00,-6.312500000000002665e+00,-1.731250000000000711e+01,-2.000000000000000000e+00,1.962500000000001066e+01,1.068750000000000711e+01,-7.187500000000003553e+00,-8.812500000000003553e+00,-7.500000000000003553e+00,2.312500000000001776e+00,1.512500000000000711e+01,7.562500000000002665e+00,-9.125000000000003553e+00,-1.681250000000000711e+01,-4.437500000000001776e+00,1.437500000000000711e+01,5.687500000000003553e+00,-1.218750000000000533e+01,-4.562500000000001776e+00,9.250000000000003553e+00,6.125000000000002665e+00,1.187500000000000222e+00,-2.125000000000000888e+00,-1.025000000000000533e+01,-2.500000000000000000e-01,1.406250000000000711e+01,-2.375000000000000000e+00,-1.493750000000000533e+01,1.125000000000000888e+00,9.625000000000003553e+00,2.250000000000000888e+00,-3.625000000000001332e+00,-1.625000000000000222e+00,3.875000000000001776e+00,-1.750000000000000888e+00,-1.812500000000000444e+00,6.187500000000002665e+00,-4.437500000000001776e+00,-5.937500000000002665e+00,1.062500000000000355e+01,1.375000000000000000e+00,-1.550000000000000711e+01,1.000000000000000000e+00,1.643750000000000711e+01,1.062500000000000000e+00,-7.687500000000004441e+00,-8.125000000000006661e-01,-5.437500000000001776e+00,-5.812500000000002665e+00,8.750000000000003553e+00,8.312500000000003553e+00,-6.750000000000003553e+00,-4.875000000000002665e+00,7.375000000000003553e+00,1.125000000000000888e+00,-1.218750000000000533e+01,-4.375000000000001776e+00,1.512500000000000711e+01,1.493750000000000711e+01,-4.187500000000001776e+00,-1.356250000000000711e+01,-9.437500000000005329e+00,5.625000000000000000e-01,9.312500000000003553e+00,2.250000000000000000e+00,-4.375000000000001776e+00,3.187500000000001332e+00,3.812500000000001776e+00,-6.437500000000002665e+00,-7.875000000000003553e+00,2.312500000000000888e+00,7.125000000000002665e+00,1.625000000000000222e+00,1.500000000000000666e+00,8.750000000000003553e+00,3.375000000000001332e+00,-7.312500000000003553e+00,-9.250000000000003553e+00,-8.000000000000003553e+00,1.937500000000001332e+00,7.687500000000003553e+00,4.125000000000001776e+00,5.250000000000001776e+00,-1.250000000000000444e+00,-5.312500000000001776e+00,7.500000000000003331e-01,-6.250000000000003553e+00,-1.081250000000000533e+01,6.812500000000001776e+00,1.981250000000000711e+01,3.750000000000002665e+00,-1.675000000000000711e+01,-5.812500000000003553e+00,9.000000000000003553e+00,-4.562500000000001776e+00,-1.112500000000000355e+01,4.937500000000002665e+00,1.243750000000000533e+01,6.250000000000000000e-01,-5.437500000000001776e+00,7.687500000000003553e+00,8.937500000000003553e+00,-7.000000000000003553e+00,-1.456250000000000711e+01,-9.187500000000003553e+00,7.875000000000002665e+00,1.631250000000000711e+01,8.750000000000017764e-01,-1.106250000000000355e+01,-2.375000000000000888e+00,1.750000000000001554e+00,-6.375000000000002665e+00,2.812500000000000888e+00,1.425000000000000711e+01,-1.062500000000000000e+00,-8.937500000000005329e+00,2.125000000000000888e+00,1.125000000000000888e+00,-3.312500000000001332e+00,1.562500000000000444e+00,-5.000000000000000000e-01,-9.125000000000003553e+00,-2.750000000000000888e+00,1.268750000000000533e+01,4.000000000000001776e+00,-1.281250000000000533e+01,-3.750000000000000000e-01,1.806250000000000711e+01,1.150000000000000533e+01,-5.000000000000002665e+00,-1.268750000000000711e+01,-9.000000000000003553e+00,5.500000000000002665e+00,7.312500000000003553e+00,-6.875000000000003553e+00,4.375000000000000000e-01,1.062500000000000533e+01,-2.937500000000001776e+00,-8.375000000000003553e+00,-3.062500000000001776e+00,-1.250000000000002220e-01,4.500000000000001776e+00,2.625000000000001332e+00,-5.062500000000001776e+00,-3.250000000000001332e+00,7.312500000000003553e+00,1.437500000000001776e+00,-1.137500000000000533e+01,-2.000000000000001776e+00,6.687500000000002665e+00,5.125000000000001776e+00,5.937500000000002665e+00,-6.437500000000001776e+00,-1.268750000000000533e+01,5.687500000000001776e+00,7.125000000000002665e+00,-5.937500000000002665e+00,-1.000000000000000444e+00,3.750000000000001776e+00,1.250000000000001110e-01,-1.437500000000000666e+00,3.250000000000001332e+00,1.006250000000000355e+01,-2.112500000000000711e+01,-7.725000000000002842e+01,-4.706250000000002132e+01
8.225000000000001421e+01,1.925000000000000355e+01,-3.050000000000000711e+01,3.425000000000000711e+01,-2.775000000000000711e+01,-4.500000000000001776e+00,2.525000000000000711e+01,-2.075000000000000711e+01,-5.500000000000001776e+00,2.350000000000000711e+01,-4.750000000000000888e+00,-6.000000000000000888e+00,1.725000000000000355e+01,-4.075000000000001421e+01,1.050000000000000355e+01,5.850000000000001421e+01,-4.925000000000000711e+01,1.275000000000000355e+01,-5.000000000000000000e-01,-2.125000000000000711e+01,1.350000000000000355e+01,1.325000000000000355e+01,5.500000000000000000e+00,-2.375000000000000355e+01,-1.225000000000000355e+01,7.100000000000001421e+01,-5.750000000000001421e+01,1.500000000000000355e+01,-4.500000000000000000e+00,-1.750000000000000355e+01,3.175000000000000711e+01,-3.150000000000000711e+01,-2.750000000000001776e+00,2.425000000000000711e+01,-2.675000000000000711e+01,2.975000000000000711e+01,-3.150000000000000711e+01,2.475000000000000711e+01,-2.075000000000000711e+01,2.350000000000000711e+01,-6.500000000000000888e+00,-1.575000000000000355e+01,2.675000000000000711e+01,5.250000000000000000e+00,-1.750000000000000355e+01,-1.225000000000000178e+01,1.500000000000000355e+01,-1.050000000000000355e+01,-2.375000000000000711e+01,6.450000000000001421e+01,-8.000000000000000000e+00,-2.675000000000000711e+01,-1.450000000000000355e+01,3.975000000000001421e+01,-1.300000000000000355e+01,-5.525000000000001421e+01,9.750000000000000000e+00,4.125000000000000711e+01,2.750000000000000000e+00,-1.625000000000000355e+01,2.450000000000000355e+01,-4.000000000000000000e+00,1.500000000000000000e+00,-1.400000000000000355e+01,-1.200000000000000178e+01,1.575000000000000355e+01,-6.250000000000001776e+00,-1.550000000000000355e+01,1.800000000000000355e+01,1.275000000000000355e+01,-2.675000000000000711e+01,2.450000000000000711e+01,-3.225000000000000711e+01,-2.000000000000000000e+00,7.175000000000001421e+01,-5.025000000000001421e+01,-1.375000000000000355e+01,2.675000000000000711e+01,-1.350000000000000355e+01,2.500000000000000555e-01,0.000000000000000000e+00,2.500000000000000555e-01,-2.500000000000000555e-01,0.000000000000000000e+00,-2.500000000000000555e-01,-2.500000000000000555e-01,-1.725000000000000355e+01,3.450000000000000711e+01,-1.500000000000000355e+01,-1.750000000000000444e+00,2.500000000000000555e-01,-1.500000000000000222e+00,5.000000000000000000e-01,-9.500000000000001776e+00,7.000000000000000888e+00,-3.225000000000000711e+01,5.375000000000001421e+01,1.425000000000000355e+01,-3.250000000000000711e+01,-2.250000000000000355e+01,2.100000000000000355e+01,-1.050000000000000355e+01,1.075000000000000355e+01,-2.500000000000000888e+00,1.350000000000000355e+01,-3.500000000000000000e+00,1.350000000000000178e+01,-1.675000000000000355e+01,-7.500000000000004441e-01,-2.250000000000000444e+00,0.000000000000000000e+00,-7.250000000000001776e+00,-1.575000000000000178e+01,2.125000000000000355e+01,3.350000000000000711e+01,-3.150000000000000711e+01,-2.500000000000000555e-01,-1.500000000000000444e+00,-2.750000000000000711e+01,3.075000000000000711e+01,2.675000000000000711e+01,-2.825000000000000711e+01,-2.500000000000000555e-01,-2.500000000000000555e-01,5.000000000000001110e-01,-2.500000000000000555e-01,0.000000000000000000e+00,0.000000000000000000e+00,2.500000000000000555e-01,-5.000000000000001110e-01,2.500000000000000555e-01,0.000000000000000000e+00,-2.500000000000000555e-01,7.500000000000002220e-01,-7.500000000000002220e-01,0.000000000000000000e+00,5.000000000000001110e-01,-2.500000000000000555e-01,2.500000000000000555e-01,-7.500000000000002220e-01,1.000000000000000222e+00,-1.000000000000000222e+00,1.000000000000000222e+00,-7.500000000000002220e-01,2.500000000000000555e-01,-2.500000000000000555e-01,2.500000000000000555e-01,2.500000000000000555e-01,-2.500000000000000555e-01,0.000000000000000000e+00,0.000000000000000000e+00,0.000000000000000000e+00,0.000000000000000000e+00,2.500000000000000555e-01,-7.500000000000002220e-01,7.500000000000002220e-01,-1.800000000000000355e+01,7.500000000000001776e+00,2.300000000000000711e+01,-5.525000000000001421e+01,4.875000000000000711e+01,2.250000000000000711e+01,-4.750000000000001421e+01,1.800000000000000355e+01,-4.000000000000000888e+00,-1.475000000000000355e+01,2.625000000000000711e+01,-3.500000000000000888e+00,1.750000000000000000e+00,1.250000000000000888e+00,-3.925000000000000711e+01,2.675000000000000711e+01,2.975000000000000711e+01,-4.025000000000000711e+01,1.475000000000000355e+01,-1.550000000000000355e+01,3.650000000000000711e+01,-4.525000000000001421e+01,2.900000000000000711e+01,5.000000000000001776e+00,-2.950000000000000711e+01,3.575000000000000711e+01,-4.025000000000001421e+01,3.225000000000000711e+01,-1.050000000000000355e+01,1.925000000000000355e+01,-2.950000000000000711e+01,9.250000000000003553e+00,8.500000000000001776e+00,-1.900000000000000355e+01,2.275000000000000711e+01,-1.425000000000000355e+01,-3.750000000000000000e+00,2.675000000000000711e+01,-2.975000000000000711e+01,2.350000000000000711e+01,-1.750000000000000355e+01,1.625000000000000355e+01,-8.250000000000001776e+00,-1.500000000000000444e+00,-2.000000000000000355e+01,2.175000000000000355e+01,1.875000000000000355e+01,-2.850000000000000711e+01,-4.500000000000001776e+00,2.575000000000000711e+01,-1.750000000000000000e+00,-1.950000000000000355e+01,-3.250000000000001776e+00,4.050000000000001421e+01,-3.800000000000000711e+01,4.500000000000000000e+00,2.500000000000008882e-01,1.900000000000000355e+01,-3.675000000000000711e+01,3.625000000000000711e+01,-2.250000000000000711e+01,-3.250000000000001776e+00,2.650000000000000711e+01,-3.125000000000000711e+01,2.525000000000000711e+01,5.000000000000001776e+00,-2.500000000000000711e+01,3.500000000000001776e+00,3.275000000000000711e+01,-3.075000000000000711e+01,4.000000000000000888e+00,-1.675000000000000355e+01,4.300000000000000711e+01,-2.850000000000000355e+01,-2.150000000000000711e+01,3.550000000000000711e+01,3.000000000000000000e+00,-3.300000000000000711e+01,2.650000000000000355e+01,-2.750000000000000355e+01,4.650000000000001421e+01,-2.850000000000000711e+01,1.200000000000000355e+01,-1.900000000000000355e+01,2.575000000000000711e+01,0.000000000000000000e+00,-3.250000000000000711e+01,3.650000000000000711e+01,-3.925000000000000711e+01,3.675000000000000711e+01,-1.425000000000000355e+01,-1.850000000000000355e+01,4.050000000000000711e+01,-4.300000000000000711e+01,3.450000000000000711e+01,-4.125000000000001421e+01,2.925000000000000711e+01,1.050000000000000355e+01,-4.300000000000001421e+01,4.225000000000001421e+01,-1.850000000000000355e+01,1.000000000000000000e+00,3.025000000000000711e+01,-2.425000000000000711e+01,-2.250000000000000355e+01,2.550000000000000355e+01,-2.175000000000000355e+01,1.350000000000000355e+01,2.050000000000000355e+01,-4.300000000000001421e+01,4.650000000000001421e+01,-4.400000000000000711e+01,1.775000000000000000e+01,4.750000000000001776e+00,1.000000000000000222e+00,2.500000000000000555e-01,2.500000000000000555e-01,-7.500000000000002220e-01,7.500000000000002220e-01,-2.500000000000000555e-01,-2.500000000000000555e-01,5.000000000000001110e-01,-5.000000000000001110e-01,2.500000000000000555e-01,0.000000000000000000e+00,0.000000000000000000e+00,2.500000000000000555e-01,-5.000000000000001110e-01,5.000000000000001110e-01,0.000000000000000000e+00,-7.500000000000002220e-01,7.500000000000002220e-01,-2.500000000000000555e-01,0.000000000000000000e+00,2.500000000000000555e-01,-5.000000000000001110e-01,5.000000000000001110e-01,-2.500000000000000555e-01,-2.500000000000000555e-01,2.500000000000000555e-01,0.000000000000000000e+00,0.000000000000000000e+00,2.500000000000000555e-01,0.000000000000000000e+00,-2.500000000000000555e-01,2.500000000000000555e-01,2.000000000000000444e+00,4.000000000000001776e+00,-1.350000000000000355e+01,7.250000000000001776e+00,-1.250000000000000222e+00,1.000000000000000222e+00,-2.500000000000000555e-01,5.000000000000001110e-01,-2.500000000000000555e-01,7.500000000000002220e-01,-7.500000000000002220e-01,2.500000000000000555e-01,0.000000000000000000e+00,5.000000000000001110e-01,-7.500000000000002220e-01,5.000000000000001110e-01,-7.500000000000002220e-01,7.500000000000002220e-01,0.000000000000000000e+00,-1.000000000000000222e+00,7.500000000000002220e-01,2.500000000000000555e-01,-5.000000000000001110e-01,5.000000000000001110e-01,-2.500000000000000555e-01,0.000000000000000000e+00,5.000000000000001110e-01,-7.500000000000002220e-01,0.000000000000000000e+00,5.000000000000001110e-01,-7.500000000000002220e-01,5.000000000000001110e-01,0.000000000000000000e+00,0.000000000000000000e+00,0.000000000000000000e+00,0.000000000000000000e+00,0.000000000000000000e+00,0.000000000000000000e+00,2.500000000000000555e-01,0.000000000000000000e+00,0.000000000000000000e+00,-7.500000000000002220e-01,1.250000000000000444e+00,-1.000000000000000222e+00,5.000000000000001110e-01,-7.500000000000002220e-01,2.500000000000000555e-01,2.500000000000000555e-01,-2.500000000000000555e-01,0.000000000000000000e+00,0.000000000000000000e+00,5.000000000000001110e-01,-2.500000000000000555e-01,0.000000000000000000e+00,0.000000000000000000e+00,2.500000000000000555e-01,-2.500000000000000555e-01,0.000000000000000000e+00,0.000000000000000000e+00,0.000000000000000000e+00,0.000000000000000000e+00,-2.500000000000000555e-01,2.500000000000000555e-01,0.000000000000000000e+00,2.500000000000000555e-01,-5.000000000000001110e-01,2.500000000000000555e-01,0.000000000000000000e+00,0.000000000000000000e+00,0.000000000000000000e+00,2.500000000000000555e-01,-5.000000000000001110e-01,2.500000000000000555e-01,-2.500000000000000555e-01,5.000000000000001110e-01,-2.500000000000000555e-01,0.000000000000000000e+00,0.000000000000000000e+00,-2.500000000000000555e-01,5.000000000000001110e-01,-7.500000000000002220e-01,7.500000000000002220e-01,0.000000000000000000e+00,-2.500000000000000555e-01,2.500000000000000555e-01,-5.000000000000001110e-01,2.500000000000000555e-01,0.000000000000000000e+00,0.000000000000000000e+00,0.000000000000000000e+00,2.500000000000000555e-01,-2.500000000000000555e-01,0.000000000000000000e+00,0.000000000000000000e+00,0.000000000000000000e+00,2.500000000000000555e-01,-2.500000000000000555e-01,-2.500000000000000555e-01,5.000000000000001110e-01,-2.500000000000000555e-01,2.500000000000000555e-01,1.025000000000000178e+01,-1.200000000000000178e+01,2.425000000000000355e+01,-4.075000000000000711e+01,1.525000000000000355e+01,2.475000000000000355e+01,-1.075000000000000178e+01,-1.250000000000000000e+00,-3.750000000000000711e+01,1.675000000000000711e+01,2.075000000000000355e+01,-1.950000000000000355e+01,2.550000000000000711e+01,-4.750000000000001776e+00,-1.925000000000000355e+01,2.475000000000000711e+01,-1.975000000000000355e+01,2.625000000000000355e+01,-3.425000000000000711e+01,2.000000000000000000e+00,1.875000000000000355e+01,-1.925000000000000355e+01,3.600000000000000711e+01,-2.325000000000000711e+01,-2.200000000000000355e+01,4.525000000000001421e+01,-1.075000000000000355e+01,-2.075000000000000355e+01,1.250000000000000355e+01,-1.400000000000000355e+01,3.750000000000001332e+00,1.700000000000000355e+01,-3.675000000000000711e+01,5.125000000000001421e+01,-3.450000000000000711e+01,2.225000000000000355e+01,-2.250000000000000711e+01,-1.100000000000000178e+01,3.175000000000000711e+01,-2.150000000000000711e+01,2.125000000000000711e+01,-1.100000000000000355e+01,5.000000000000000888e+00,1.250000000000000178e+01,-4.100000000000000711e+01,4.525000000000001421e+01,-4.425000000000001421e+01,3.750000000000000711e+01,-2.900000000000000711e+01,4.100000000000000711e+01,-4.075000000000000711e+01,2.175000000000000355e+01,-2.425000000000000711e+01,3.625000000000000711e+01,-1.775000000000000355e+01,-2.300000000000000355e+01,1.325000000000000355e+01,2.300000000000000355e+01,-2.650000000000000711e+01,8.750000000000001776e+00,-1.475000000000000355e+01,2.075000000000000711e+01,7.000000000000001776e+00,-2.000000000000000000e+00,-2.450000000000000711e+01,2.400000000000000711e+01,-1.300000000000000178e+01,-1.350000000000000355e+01,5.750000000000001776e+00,2.475000000000000711e+01,-6.750000000000001776e+00,-1.425000000000000355e+01,1.725000000000000355e+01,-2.250000000000000711e+01,2.575000000000000711e+01,-2.450000000000000711e+01,2.300000000000000711e+01,-3.450000000000000711e+01,3.300000000000000711e+01,-1.200000000000000355e+01,1.725000000000000355e+01,-3.375000000000000711e+01,1.225000000000000355e+01,3.250000000000000711e+01,-3.450000000000000711e+01,5.000000000000008882e-01,1.100000000000000178e+01,2.500000000000000000e-01,-5.500000000000000888e+00,-5.000000000000001110e-01,5.000000000000001110e-01,-5.000000000000001110e-01,7.500000000000002220e-01,-7.500000000000002220e-01,2.500000000000000555e-01,0.000000000000000000e+00,0.000000000000000000e+00,0.000000000000000000e+00,0.000000000000000000e+00,-2.500000000000000555e-01,5.000000000000001110e-01,-5.000000000000001110e-01,5.000000000000001110e-01,-2.500000000000000555e-01,2.500000000000000555e-01,-5.000000000000001110e-01,2.500000000000000555e-01,2.500000000000000555e-01,-5.000000000000001110e-01,2.500000000000000555e-01,0.000000000000000000e+00,-2.500000000000000555e-01,7.500000000000002220e-01,-7.500000000000002220e-01,2.500000000000000555e-01,0.000000000000000000e+00,-2.500000000000000555e-01,5.000000000000001110e-01,0.000000000000000000e+00,-2.500000000000000555e-01,-5.000000000000001110e-01,7.500000000000002220e-01,-2.500000000000000555e-01,2.500000000000000555e-01,-2.500000000000000555e-01,-2.500000000000000555e-01,2.500000000000000555e-01,0.000000000000000000e+00,-2.500000000000000555e-01,2.500000000000000555e-01,2.500000000000000555e-01,-5.000000000000001110e-01,5.000000000000001110e-01,-2.500000000000000555e-01,0.000000000000000000e+00,0.000000000000000000e+00,0.000000000000000000e+00,0.000000000000000000e+00,0.000000000000000000e+00,2.500000000000000555e-01,-7.500000000000002220e-01,7.500000000000002220e-01,-2.500000000000000555e-01,0.000000000000000000e+00,0.000000000000000000e+00,0.000000000000000000e+00,0.000000000000000000e+00,0.000000000000000000e+00,0.000000000000000000e+00,0.000000000000000000e+00,0.000000000000000000e+00,0.000000000000000000e+00,0.000000000000000000e+00,0.000000000000000000e+00,0.000000000000000000e+00,2.500000000000000555e-01,-7.750000000000001776e+00,1.475000000000000355e+01,-1.775000000000000355e+01,-4.500000000000001776e+00,3.850000000000000711e+01,-3.575000000000000711e+01,1.350000000000000355e+01,-3.350000000000000711e+01,4.825000000000001421e+01,-2.500000000000000000e+00,-2.150000000000000711e+01,2.000000000000000000e+00,1.075000000000000355e+01,-2.975000000000000711e+01,2.125000000000000711e+01,7.250000000000001776e+00,1.125000000000000355e+01,-3.850000000000000711e+01,2.825000000000000355e+01,-2.225000000000000355e+01,2.725000000000000711e+01,-3.100000000000000711e+01,2.925000000000000711e+01,-4.750000000000000888e+00,-1.100000000000000355e+01,-6.750000000000001776e+00,1.775000000000000355e+01,4.250000000000000888e+00,-2.600000000000000711e+01,3.500000000000000711e+01,-3.025000000000000711e+01,1.400000000000000355e+01,1.225000000000000355e+01,-3.025000000000000711e+01,2.300000000000000355e+01,5.000000000000000888e+00,-2.550000000000000711e+01,7.750000000000001776e+00,2.350000000000000711e+01,-1.725000000000000355e+01,-1.350000000000000355e+01,1.400000000000000355e+01,1.075000000000000178e+01,-2.400000000000000711e+01,1.150000000000000355e+01,-1.150000000000000355e+01,7.750000000000001776e+00,1.750000000000000355e+01,-2.650000000000000711e+01,1.025000000000000355e+01,1.500000000000000355e+01,-2.225000000000000711e+01,1.350000000000000355e+01,-1.550000000000000355e+01,2.650000000000000711e+01,-1.925000000000000711e+01,1.550000000000000355e+01,-2.600000000000000711e+01,1.450000000000000355e+01,1.925000000000000355e+01,-3.175000000000000711e+01,3.225000000000000711e+01,-1.000000000000000178e+01,-1.975000000000000711e+01,1.900000000000000355e+01,2.500000000000000888e+00,-9.250000000000001776e+00,2.400000000000000355e+01,-2.050000000000000355e+01,-1.800000000000000355e+01,2.975000000000000711e+01,-1.250000000000000000e+00,-1.800000000000000355e+01,2.425000000000000355e+01,-2.550000000000000711e+01,-8.000000000000001776e+00,1.550000000000000355e+01,7.500000000000002220e-01,-3.550000000000000711e+01,5.525000000000001421e+01,-3.750000000000000711e+01,1.100000000000000355e+01,2.025000000000000355e+01,-2.600000000000000711e+01,-3.000000000000001776e+00,2.650000000000000711e+01,-8.000000000000003553e+00,-3.125000000000000711e+01,4.025000000000001421e+01,-3.025000000000000711e+01,3.150000000000000711e+01,-2.125000000000000711e+01,1.550000000000000355e+01,-2.275000000000000711e+01,2.975000000000000711e+01,-8.750000000000001776e+00,-9.000000000000001776e+00,2.300000000000000355e+01,-1.725000000000000355e+01,-2.550000000000000355e+01,2.850000000000000711e+01,-1.200000000000000355e+01,1.950000000000000355e+01,-2.100000000000000711e+01,-1.325000000000000178e+01,3.850000000000000711e+01,-3.700000000000000711e+01,3.750000000000000711e+01,-3.600000000000000711e+01,1.150000000000000355e+01,1.750000000000000000e+00,1.350000000000000355e+01,-3.000000000000000000e+00,-1.200000000000000355e+01,1.825000000000000355e+01,-3.175000000000000711e+01,3.475000000000000711e+01,-4.250000000000000000e+00,-2.625000000000000711e+01,2.775000000000000711e+01,-3.675000000000000711e+01,3.050000000000000711e+01,-2.825000000000000711e+01,2.925000000000000711e+01,-2.600000000000000711e+01,9.750000000000001776e+00,1.650000000000000355e+01,-1.675000000000000355e+01,1.025000000000000178e+01,6.500000000000001776e+00,-1.875000000000000355e+01,8.750000000000001776e+00,1.150000000000000178e+01,-2.250000000000000000e+00,5.000000000000000000e-01,-5.500000000000000888e+00,-7.000000000000001776e+00,1.750000000000000355e+01,-2.475000000000000711e+01,2.750000000000000000e+00,3.025000000000000711e+01,-2.800000000000000711e+01,-4.750000000000000000e+00,1.550000000000000355e+01,9.250000000000003553e+00,-7.250000000000001776e+00,-1.725000000000000355e+01,1.625000000000000355e+01,-7.500000000000000000e-01,-1.300000000000000355e+01,-1.500000000000000000e+00,2.050000000000000355e+01,-5.500000000000000888e+00,-1.600000000000000355e+01,3.500000000000000000e+00,1.900000000000000711e+01,-1.550000000000000355e+01,1.250000000000000444e+00,7.500000000000000000e-01,-1.850000000000000355e+01,3.275000000000000711e+01,-3.375000000000000711e+01,3.025000000000000711e+01,-7.250000000000001776e+00,1.000000000000000444e+00,-1.200000000000000355e+01,-3.750000000000001776e+00,2.200000000000000711e+01,-3.250000000000000000e+00,-1.575000000000000355e+01,1.000000000000000000e+00,2.325000000000000711e+01,-2.075000000000000711e+01,-1.250000000000000000e+00,1.925000000000000355e+01,-2.750000000000000000e+00,-2.375000000000000711e+01,1.150000000000000355e+01,9.500000000000003553e+00,-1.600000000000000355e+01,2.025000000000000355e+01,-2.200000000000000355e+01,5.750000000000000888e+00,2.225000000000000355e+01,-2.650000000000000711e+01,1.200000000000000178e+01,1.100000000000000355e+01,-1.975000000000000711e+01,-2.250000000000000000e+00,2.350000000000000711e+01,-1.975000000000000355e+01,1.475000000000000355e+01,-2.200000000000000711e+01,7.750000000000002665e+00,1.600000000000000355e+01,-1.525000000000000355e+01,-5.750000000000000888e+00,2.350000000000000711e+01,-9.750000000000003553e+00,-2.275000000000000355e+01,3.275000000000000711e+01,-3.000000000000000711e+01,2.625000000000000711e+01,-2.750000000000000000e+00,-1.950000000000000711e+01,1.500000000000000355e+01,-1.750000000000000666e+00,1.025000000000000178e+01,-2.750000000000000711e+01,3.125000000000000711e+01,-2.475000000000000711e+01,2.325000000000000711e+01,-1.125000000000000355e+01,-1.075000000000000178e+01,2.400000000000000711e+01,-2.150000000000000355e+01,1.400000000000000355e+01,-1.200000000000000355e+01,2.200000000000000355e+01,-3.000000000000000711e+01,2.475000000000000711e+01,-2.950000000000000711e+01,2.250000000000000711e+01,6.000000000000001776e+00,-2.600000000000000711e+01,3.150000000000000711e+01,-2.175000000000000355e+01,-7.000000000000000888e+00,3.000000000000000711e+01,-3.500000000000000711e+01,2.800000000000000711e+01,-2.750000000000000000e+00,-2.275000000000000711e+01,1.225000000000000355e+01,1.825000000000000355e+01,-1.975000000000000355e+01,-8.750000000000000000e+00,2.600000000000000711e+01,-1.075000000000000355e+01,-1.925000000000000355e+01,3.325000000000000711e+01,-2.800000000000000711e+01,2.275000000000000711e+01,-1.300000000000000355e+01,0.000000000000000000e+00,4.250000000000000888e+00,2.500000000000000000e-01,-3.250000000000000888e+00,-1.400000000000000355e+01,2.700000000000000711e+01,-6.000000000000001776e+00,-1.875000000000000355e+01,2.275000000000000355e+01,-2.575000000000000711e+01,2.700000000000000711e+01,-1.525000000000000355e+01,-8.250000000000001776e+00,2.200000000000000355e+01,-5.500000000000000888e+00,-4.000000000000000000e+00,-4.500000000000000888e+00,6.250000000000001776e+00,-1.400000000000000355e+01,2.100000000000000355e+01,-2.200000000000000355e+01,2.250000000000000355e+01,-2.250000000000000355e+01,2.125000000000000355e+01,-4.250000000000000888e+00,-1.550000000000000355e+01,1.775000000000000355e+01,-4.500000000000000888e+00,-1.850000000000000355e+01,2.450000000000000711e+01,-1.525000000000000355e+01,1.250000000000000355e+01,0.000000000000000000e+00,-1.500000000000000355e+01,0.000000000000000000e+00,8.250000000000001776e+00,1.900000000000000355e+01,-3.200000000000000711e+01,2.375000000000000711e+01,-1.600000000000000355e+01,-4.750000000000000888e+00,2.200000000000000355e+01,-1.000000000000000178e+01,3.500000000000000444e+00,-7.000000000000001776e+00,-1.150000000000000355e+01,1.675000000000000355e+01,8.750000000000003553e+00,-2.500000000000000711e+01,1.475000000000000355e+01,-9.500000000000001776e+00,2.250000000000000711e+01,-3.000000000000000711e+01,3.275000000000000711e+01,-2.675000000000000711e+01,-5.000000000000000000e-01,2.050000000000000355e+01,-5.750000000000000888e+00,-1.500000000000000355e+01,3.500000000000000000e+00,1.875000000000000711e+01,-2.575000000000000711e+01,3.000000000000000711e+01,-3.500000000000000711e+01,2.975000000000000711e+01,-9.750000000000001776e+00,-1.400000000000000355e+01,2.350000000000000711e+01,-8.000000000000000000e+00,-1.850000000000000355e+01,2.425000000000000711e+01,-1.250000000000000000e+00,-1.600000000000000355e+01,-1.500000000000000000e+00,2.075000000000000355e+01,-4.750000000000000000e+00,-1.775000000000000355e+01,2.225000000000000355e+01,-1.500000000000000355e+01,-1.000000000000000000e+00,1.000000000000000000e+00,1.650000000000000355e+01,-1.800000000000000355e+01,3.250000000000000444e+00,1.000000000000000000e+00,1.250000000000000178e+01,-2.150000000000000355e+01,8.250000000000001776e+00,-3.750000000000001332e+00,2.150000000000000711e+01,-1.450000000000000355e+01,-4.500000000000000888e+00,6.000000000000001776e+00,-1.475000000000000355e+01,1.775000000000000355e+01,2.500000000000000000e-01,-1.725000000000000355e+01,2.025000000000000355e+01,-1.375000000000000355e+01,1.500000000000000355e+01,-2.600000000000000711e+01,2.300000000000000711e+01,-1.375000000000000355e+01,1.525000000000000355e+01,-1.600000000000000355e+01,1.100000000000000355e+01,1.075000000000000355e+01,-2.525000000000000711e+01,2.200000000000000355e+01,-1.975000000000000355e+01,2.500000000000000000e-01,2.275000000000000711e+01,-2.775000000000000711e+01,2.400000000000000711e+01,-4.250000000000000000e+00,-1.775000000000000355e+01,2.325000000000000355e+01,-1.475000000000000355e+01,-2.250000000000000000e+00,-2.750000000000000888e+00,1.700000000000000355e+01,-5.000000000000000000e-01,-7.500000000000001776e+00,-1.725000000000000355e+01,3.200000000000000711e+01,-1.725000000000000355e+01,-1.050000000000000355e+01,1.650000000000000355e+01,-1.050000000000000355e+01,2.200000000000000711e+01,-3.075000000000000711e+01,1.900000000000000355e+01,9.250000000000003553e+00,-1.925000000000000355e+01,1.200000000000000355e+01,-1.650000000000000355e+01,3.500000000000000000e+00,1.950000000000000711e+01,-1.350000000000000355e+01,4.750000000000000888e+00,-1.600000000000000355e+01,2.575000000000000711e+01,-2.200000000000000711e+01,-2.500000000000000000e-01,2.050000000000000711e+01,-7.000000000000002665e+00,-1.500000000000000355e+01,1.600000000000000355e+01,-2.250000000000000888e+00,-1.150000000000000355e+01,1.500000000000000355e+01,-1.125000000000000355e+01,9.500000000000001776e+00,-2.100000000000000355e+01,2.050000000000000355e+01,6.250000000000000888e+00,-2.275000000000000355e+01,8.500000000000000000e+00,5.750000000000001776e+00,9.250000000000003553e+00,-1.050000000000000355e+01,1.000000000000000000e+00,-3.750000000000000888e+00,-9.000000000000001776e+00,2.900000000000000711e+01,-2.600000000000000711e+01,-1.000000000000000000e+00,2.550000000000000711e+01,-1.925000000000000355e+01,-3.500000000000000444e+00,1.675000000000000355e+01,-2.800000000000000711e+01,3.250000000000000711e+01,-2.600000000000000711e+01,2.225000000000000711e+01,-2.450000000000000711e+01,1.575000000000000355e+01,8.000000000000000000e+00,-2.150000000000000355e+01,5.250000000000000888e+00,1.475000000000000355e+01,-2.050000000000000355e+01,2.075000000000000355e+01,-3.750000000000000000e+00,-1.850000000000000711e+01,8.250000000000003553e+00,2.150000000000000355e+01,-3.500000000000000711e+01,2.500000000000000711e+01,-8.000000000000001776e+00,-3.500000000000000888e+00,1.200000000000000355e+01,-1.950000000000000355e+01,2.225000000000000355e+01,-3.500000000000000000e+00,-1.325000000000000355e+01,-8.000000000000001421e+01
