1.356646250000000862e+02,1.444771250000000862e+02,1.491802500000000862e+02,1.515240000000000862e+02,1.514771250000000862e+02,1.486490000000000862e+02,1.424927500000000862e+02,1.351802500000000862e+02,1.262427500000000862e+02,1.174146250000000862e+02,1.097740000000000862e+02,1.037271250000000862e+02,9.846150000000008617e+01,9.433650000000005775e+01,9.121150000000005775e+01,8.771150000000004354e+01,8.444587500000004354e+01,8.053962500000004354e+01,7.691462500000004354e+01,7.177400000000004354e+01,6.600837500000004354e+01,6.071150000000004354e+01,5.589900000000004354e+01,5.168025000000004354e+01,4.749275000000003644e+01,4.402400000000002933e+01,3.933650000000002223e+01,3.469587500000002223e+01,2.993025000000002223e+01,2.316462500000001512e+01,1.475837500000000979e+01,5.039625000000002686e+00,-5.632250000000003531e+00,-1.727287500000000975e+01,-2.802287500000001330e+01,-3.853850000000002751e+01,-4.830412500000003462e+01,-5.664787500000004172e+01,-6.413225000000004172e+01,-7.130412500000004172e+01,-7.864787500000004172e+01,-8.719475000000005593e+01,-9.806975000000007014e+01,-1.118978750000000844e+02,-1.293041250000000844e+02,-1.486791250000000844e+02,-1.704135000000001128e+02,-1.937260000000001696e+02,-2.174447500000001696e+02,-2.388666250000001696e+02,-2.579916250000001696e+02,-2.724603750000001696e+02,-2.821478750000001696e+02,-2.883822500000001696e+02,-2.899291250000001696e+02,-2.867572500000001696e+02,-2.798353750000001696e+02,-2.717260000000001696e+02,-2.615228750000001696e+02,-2.507885000000001696e+02,-2.393978750000001696e+02,-2.274760000000001696e+02,-2.157885000000001696e+02,-2.058978750000001696e+02,-1.970541250000001696e+02,-1.877885000000001412e+02,-1.800228750000001128e+02,-1.731010000000000844e+02,-1.668666250000000844e+02,-1.623822500000000844e+02,-1.588510000000000844e+02,-1.542885000000000844e+02,-1.492103750000000844e+02,-1.445072500000000844e+02,-1.385853750000000844e+02,-1.318822500000000844e+02,-1.251478750000000844e+02,-1.161010000000000844e+02,-1.062572500000000844e+02,-9.631975000000008436e+01,-8.692912500000005593e+01,-7.850725000000004172e+01,-7.050725000000004172e+01,-6.321037500000004172e+01,-5.605412500000004172e+01,-5.105412500000004172e+01,-4.611662500000003462e+01,-4.183537500000002751e+01,-3.817912500000002041e+01,-3.355412500000002041e+01,-2.897600000000002041e+01,-2.461662500000001330e+01,-2.028850000000001330e+01,-1.464787500000000620e+01,-9.054125000000004420e+00,-3.679125000000001311e+00,3.070875000000004018e+00,9.492750000000008015e+00,1.614900000000001157e+01,2.361775000000001512e+01,3.152400000000002223e+01,3.875837500000002933e+01,4.593025000000003644e+01,5.399275000000004354e+01,6.122712500000004354e+01,6.889900000000004354e+01,7.647712500000004354e+01,8.386775000000005775e+01,9.111775000000005775e+01,9.943025000000008617e+01,1.067427500000000862e+02,1.128365000000000862e+02,1.192271250000000862e+02,1.249615000000000862e+02,1.288365000000000862e+02,1.311958750000000862e+02,1.319302500000000862e+02,1.300708750000000862e+02,1.286333750000000862e+02,1.273052500000000862e+02,1.250083750000000862e+02,1.221333750000000862e+02,1.199927500000000862e+02,1.183208750000000862e+02,1.170396250000000862e+02,1.161177500000000862e+02,1.139458750000000862e+02,1.106021250000000862e+02,1.056177500000000862e+02,9.925837500000008617e+01,9.189900000000007196e+01,8.382087500000005775e+01,7.491462500000004354e+01,6.707087500000004354e+01,6.013337500000004354e+01,5.394587500000004354e+01,4.982087500000003644e+01,4.850837500000003644e+01,4.971150000000004354e+01,5.280525000000004354e+01,5.902400000000004354e+01,6.650837500000004354e+01,7.593025000000004354e+01,8.744587500000005775e+01,1.007427500000000862e+02,1.147583750000000862e+02,1.300396250000000862e+02,1.465865000000000862e+02,1.626021250000000862e+02,1.792115000000001146e+02,1.953208750000001714e+02,2.117271250000001714e+02,2.280865000000001714e+02,2.447583750000001714e+02,2.605708750000001714e+02,2.747740000000001714e+02,2.889927500000001714e+02,3.023990000000001714e+02,3.157583750000001714e+02,3.286333750000001714e+02,3.415083750000001714e+02,3.541021250000001714e+02,3.668990000000002283e+02,3.806802500000003420e+02,3.953677500000003420e+02,4.101802500000003420e+02,4.249771250000003420e+02,4.398208750000003420e+02,4.527896250000003420e+02,4.634771250000003420e+02,4.722583750000003420e+02,4.799302500000003420e+02,4.846490000000003420e+02,4.877427500000003420e+02,4.898677500000003420e+02,4.900552500000003420e+02,4.901802500000003420e+02,4.902115000000003420e+02,4.902115000000003420e+02,4.887740000000003420e+02,4.880396250000003420e+02,4.873521250000003420e+02,4.857271250000003420e+02,4.842740000000003420e+02,4.823052500000003420e+02,4.805865000000003420e+02,4.776490000000003420e+02,4.756802500000003420e+02,4.726490000000003420e+02,4.684927500000003420e+02,4.648052500000003420e+02,4.603208750000003420e+02,4.553052500000003420e+02,4.500552500000003420e+02,4.464615000000003420e+02,4.415552500000003420e+02,4.373677500000003420e+02,4.334927500000003420e+02,4.280396250000003420e+02,4.226177500000003420e+02,4.171646250000003420e+02,4.113052500000003420e+02,4.029146250000003420e+02,3.944302500000003420e+02,3.853208750000003420e+02,3.766646250000002283e+02,3.694927500000002283e+02,3.618052500000001714e+02,3.540708750000001714e+02,3.461958750000001714e+02,3.395708750000001714e+02,3.337740000000001714e+02,3.271021250000001714e+02,3.195240000000001714e+02,3.113365000000001714e+02,3.040240000000001714e+02,2.968677500000001714e+02,2.898052500000001714e+02,2.829615000000001714e+02,2.749302500000001714e+02,2.683521250000001714e+02,2.626802500000001714e+02,2.561958750000001714e+02,2.495865000000001714e+02,2.439458750000001714e+02,2.378990000000001714e+02,2.317896250000001714e+02,2.273833750000001714e+02,2.225865000000001714e+02,2.179302500000001714e+02,2.144146250000001714e+02,2.108365000000001714e+02,2.068052500000001714e+02,2.037271250000001714e+02,2.009771250000001714e+02,1.981177500000001714e+02,1.956802500000001714e+02,1.924771250000001714e+02,1.894615000000001146e+02,1.870865000000001146e+02,1.840240000000000862e+02,1.805396250000000862e+02,1.772271250000000862e+02,1.728521250000000862e+02,1.675708750000000862e+02,1.625083750000000862e+02,1.562427500000000862e+02,1.484302500000000862e+02,1.401490000000000862e+02,1.317896250000000862e+02,1.215083750000000862e+02,1.102115000000000862e+02,9.832087500000008617e+01,8.560212500000005775e+01,7.393025000000004354e+01,6.210212500000004354e+01,5.057087500000002933e+01,3.816462500000002223e+01,2.789900000000001867e+01,1.928962500000001512e+01,1.182087500000000801e+01,6.414625000000004462e+00,1.320875000000002020e+00,-1.726000000000000201e+00,-3.679125000000001755e+00,-3.913500000000001755e+00,-5.601000000000002643e+00,-8.022875000000004420e+00,-1.116350000000000620e+01,-1.625725000000000975e+01,-2.260100000000001330e+01,-3.094475000000002041e+01,-4.067912500000002751e+01,-5.241350000000002751e+01,-6.416350000000004172e+01,-7.555412500000004172e+01,-8.628850000000005593e+01,-9.591350000000008436e+01,-1.053666250000000844e+02,-1.128197500000000844e+02,-1.184760000000000844e+02,-1.219447500000000844e+02,-1.230385000000000844e+02,-1.234135000000000844e+02,-1.227728750000000844e+02,-1.214447500000000844e+02,-1.188353750000000844e+02,-1.174916250000000844e+02,-1.178666250000000844e+02,-1.185697500000000844e+02,-1.213978750000000844e+02,-1.251010000000000844e+02,-1.295697500000000844e+02,-1.356322500000000844e+02,-1.418197500000000844e+02,-1.474291250000000844e+02,-1.507728750000000844e+02,-1.544447500000000844e+02,-1.561166250000000844e+02,-1.556635000000000844e+02,-1.541010000000000844e+02,-1.501322500000000844e+02,-1.454135000000000844e+02,-1.384447500000000844e+02,-1.317885000000000844e+02,-1.240385000000000844e+02,-1.163353750000000844e+02,-1.094447500000000844e+02,-1.037885000000000844e+02,-9.905412500000008436e+01,-9.480412500000005593e+01,-9.288225000000005593e+01,-9.203850000000004172e+01,-9.152287500000004172e+01,-9.231975000000005593e+01,-9.431975000000005593e+01,-9.546037500000005593e+01,-9.721037500000008436e+01,-9.958537500000008436e+01,-1.013510000000000844e+02,-1.024291250000000844e+02,-1.043978750000000844e+02,-1.053197500000000844e+02,-1.050072500000000844e+02,-1.044291250000000844e+02,-1.029447500000000844e+02,-1.007885000000000844e+02,-9.842912500000008436e+01,-9.486662500000008436e+01,-8.885100000000005593e+01,-8.199162500000004172e+01,-7.400725000000004172e+01,-6.594475000000004172e+01,-5.628850000000004172e+01,-4.496037500000002751e+01,-3.291350000000002041e+01,-2.124162500000001330e+01,-1.052287500000000620e+01,-1.007249999999999313e+00,7.289625000000005350e+00,1.508650000000000979e+01,2.099275000000001512e+01,2.460212500000001867e+01,2.682087500000002223e+01,2.732087500000002223e+01,2.516462500000001867e+01,2.196150000000001512e+01,1.738337500000001512e+01,1.163337500000000801e+01,4.649000000000003574e+00,-3.366625000000001755e+00,-1.225725000000000620e+01,-2.116350000000001330e+01,-2.824162500000002041e+01,-3.499162500000002041e+01,-4.161662500000002751e+01,-4.808537500000004172e+01,-5.419475000000004172e+01,-6.006975000000004172e+01,-6.492912500000004172e+01,-7.021037500000004172e+01,-7.764787500000004172e+01,-8.563225000000005593e+01,-9.344475000000007014e+01,-1.016010000000000844e+02,-1.103666250000000844e+02,-1.177728750000000844e+02,-1.241322500000000844e+02,-1.275697500000000844e+02,-1.258822500000000844e+02,-1.201635000000000844e+02,-1.114603750000000844e+02,-9.888225000000007014e+01,-8.381975000000005593e+01,-6.908537500000004172e+01,-5.688225000000003462e+01,-4.921037500000002751e+01,-4.786662500000002751e+01,-5.272600000000004172e+01,-6.281975000000004172e+01,-7.803850000000005593e+01,-9.588225000000005593e+01,-1.136947500000000844e+02,-1.293041250000000844e+02,-1.410385000000000844e+02,-1.479916250000000844e+02,-1.508510000000000844e+02,-1.505228750000000844e+02,-1.489603750000000844e+02,-1.470385000000000844e+02,-1.481322500000000844e+02,-1.549603750000000844e+02,-1.684447500000001128e+02,-1.898822500000001412e+02,-2.178822500000001696e+02,-2.505853750000001696e+02,-2.841478750000001696e+02,-3.166478750000002265e+02,-3.431010000000002265e+02,-3.552260000000002265e+02,-3.513666250000002265e+02,-3.294135000000002265e+02,-2.888197500000001696e+02,-2.308978750000001696e+02,-1.621166250000001128e+02,-8.727287500000007014e+01,-1.192912500000000975e+01,5.283650000000002933e+01,1.043052500000000578e+02,1.402740000000000862e+02,1.577115000000000862e+02,1.568677500000000862e+02,1.443208750000000862e+02,1.238365000000000862e+02,9.818025000000005775e+01,7.246150000000004354e+01,4.921150000000002933e+01,2.913337500000001867e+01,1.377400000000000979e+01,3.055250000000003574e+00,-6.413500000000001755e+00,-1.542912500000000620e+01,-2.369475000000001330e+01,-3.052287500000002041e+01,-3.802287500000002751e+01,-4.610100000000002751e+01,-5.274162500000004172e+01,-5.855412500000004172e+01,-6.149162500000004172e+01,-6.139787500000004172e+01,-5.878850000000004172e+01,-5.539787500000004172e+01,-4.925725000000003462e+01,-3.991350000000002751e+01,-3.019475000000002041e+01,-1.974162500000001330e+01,-1.049162500000000620e+01,-2.788500000000001755e+00,3.367750000000003130e+00,8.414625000000006239e+00,1.150837500000000979e+01,1.135212500000000979e+01,9.336500000000008015e+00,6.680250000000005350e+00,3.758375000000003574e+00,-3.197499999999990905e-01,-4.819750000000002643e+00,-8.663500000000006196e+00,-1.321037500000000797e+01,-1.610100000000000975e+01,-1.792912500000000975e+01,-1.994475000000000975e+01,-2.172600000000001330e+01,-2.208537500000001330e+01,-2.239787500000001330e+01,-2.371037500000001330e+01,-2.406975000000001330e+01,-2.494475000000002041e+01,-2.617912500000002041e+01,-2.758537500000002041e+01,-2.941350000000002041e+01,-3.197600000000002041e+01,-3.433537500000002041e+01,-3.550725000000002041e+01,-3.600725000000002041e+01,-3.714787500000002041e+01,-3.806975000000002041e+01,-3.906975000000002041e+01,-4.013225000000002041e+01,-3.996037500000002041e+01,-3.983537500000002041e+01,-4.025725000000002041e+01,-4.133537500000002041e+01,-4.163225000000002041e+01,-4.133537500000002041e+01,-4.122600000000002041e+01,-4.006975000000002041e+01,-4.035100000000002041e+01,-4.011662500000002041e+01,-3.969475000000002041e+01,-4.008537500000002041e+01,-4.071037500000002041e+01,-4.205412500000002041e+01,-4.231975000000002041e+01,-4.397600000000002041e+01,-4.511662500000002751e+01,-4.750725000000003462e+01,-5.050725000000004172e+01,-5.224162500000004172e+01,-5.408537500000004172e+01,-5.653850000000004172e+01,-5.958537500000004172e+01,-6.192912500000004172e+01,-6.380412500000004172e+01,-6.436662500000004172e+01,-6.402287500000004172e+01,-6.456975000000004172e+01,-6.427287500000004172e+01,-6.324162500000004172e+01,-6.261662500000004172e+01,-6.180412500000004172e+01,-6.188225000000004172e+01,-6.250725000000004172e+01,-6.421037500000004172e+01,-6.524162500000004172e+01,-6.658537500000004172e+01,-6.780412500000004172e+01,-6.819475000000004172e+01,-6.808537500000004172e+01,-6.746037500000004172e+01,-6.631975000000004172e+01,-6.446037500000004172e+01,-6.250725000000004172e+01,-6.074162500000004172e+01,-5.883537500000004172e+01,-5.744475000000004172e+01,-5.639787500000004172e+01,-5.471037500000004172e+01,-5.286662500000004172e+01,-5.014787500000004172e+01,-4.766350000000004172e+01,-4.536662500000002751e+01,-4.328850000000002041e+01,-4.077287500000002041e+01,-3.925725000000002041e+01,-3.830412500000002041e+01,-3.781975000000002041e+01,-3.867912500000002041e+01,-4.010100000000002041e+01,-4.097600000000002041e+01,-4.099162500000002041e+01,-4.172600000000002041e+01,-4.105412500000002041e+01,-4.000725000000002041e+01,-3.955412500000002041e+01,-3.846037500000002041e+01,-3.771037500000002041e+01,-3.830412500000002041e+01,-4.088225000000002041e+01,-4.374162500000002751e+01,-4.806975000000004172e+01,-5.327287500000004172e+01,-5.781975000000004172e+01,-6.181975000000004172e+01,-6.367912500000004172e+01,-6.369475000000004172e+01,-6.077287500000004172e+01,-5.533537500000004172e+01,-4.791350000000002751e+01,-3.916350000000002751e+01,-2.930412500000001685e+01,-2.035100000000001330e+01,-1.160100000000000620e+01,-3.476000000000001311e+00,2.836500000000003574e+00,7.727125000000006239e+00,1.168025000000000801e+01,1.474275000000001157e+01,1.661775000000001157e+01,1.821150000000001157e+01,1.821150000000001157e+01,1.782087500000001157e+01,1.632087500000001157e+01,1.358650000000001157e+01,9.524000000000008015e+00,4.211500000000004462e+00,-3.163500000000000423e+00,-1.086662500000000442e+01,-2.142912500000001330e+01,-3.455412500000002041e+01,-4.892912500000002751e+01,-6.602287500000004172e+01,-8.496037500000005593e+01,-1.052885000000000559e+02,-1.263822500000000844e+02,-1.501166250000000844e+02,-1.722885000000001128e+02,-1.941478750000001696e+02,-2.163041250000001696e+02,-2.362728750000001696e+02,-2.551478750000001696e+02,-2.733197500000001696e+02,-2.895541250000001696e+02,-3.037103750000001696e+02,-3.175072500000001696e+02,-3.302572500000001696e+02,-3.401791250000001696e+02,-3.493353750000001696e+02,-3.566791250000001696e+02,-3.615228750000001696e+02,-3.659135000000001696e+02,-3.691166250000001696e+02,-3.700541250000001696e+02,-3.685385000000001696e+02,-3.668041250000001696e+02,-3.632260000000001696e+02,-3.588197500000001696e+02,-3.545541250000001696e+02,-3.483041250000001696e+02,-3.404916250000001696e+02,-3.326010000000001696e+02,-3.244760000000001696e+02,-3.162885000000001696e+02,-3.094135000000001696e+02,-3.030385000000001696e+02,-2.972885000000001696e+02,-2.934760000000001696e+02,-2.913510000000001696e+02,-2.900697500000001696e+02,-2.909135000000001696e+02,-2.915697500000001696e+02,-2.920228750000001696e+02,-2.913510000000001696e+02,-2.886791250000001696e+02,-2.841791250000001696e+02,-2.775541250000001696e+02,-2.704291250000001696e+02,-2.606791250000001696e+02,-2.510228750000001696e+02,-2.399135000000001696e+02,-2.304916250000001696e+02,-2.226010000000001696e+02,-2.164760000000001696e+02,-2.110853750000001696e+02,-2.048978750000001696e+02,-1.990853750000001696e+02,-1.919447500000001696e+02,-1.844603750000001128e+02,-1.741947500000001128e+02,-1.624916250000000844e+02,-1.476478750000000844e+02,-1.330697500000000844e+02,-1.184135000000000844e+02,-1.041478750000000844e+02,-9.108537500000007014e+01,-7.924162500000005593e+01,-6.941350000000004172e+01,-5.963225000000004172e+01,-5.203850000000004172e+01,-4.375725000000002751e+01,-3.635100000000002041e+01,-3.008537500000002041e+01,-2.310100000000001330e+01,-1.660100000000000975e+01,-9.851000000000006196e+00,-4.835375000000002643e+00,-1.009999999999993125e-01,3.477125000000003130e+00,6.805250000000006239e+00,1.099275000000000801e+01,1.421150000000001157e+01,1.760212500000001157e+01,2.043025000000001512e+01,2.419587500000001867e+01,2.764900000000002223e+01,3.002400000000002223e+01,3.269587500000002223e+01,3.458650000000002223e+01,3.643025000000002223e+01,3.821150000000002223e+01,4.030525000000002223e+01,4.219587500000002223e+01,4.458650000000002933e+01,4.852400000000004354e+01,5.233650000000004354e+01,5.680525000000004354e+01,6.082087500000004354e+01,6.497712500000004354e+01,6.843025000000004354e+01,7.010212500000004354e+01,7.002400000000004354e+01,6.819587500000004354e+01,6.468025000000004354e+01,5.874275000000004354e+01,5.164900000000003644e+01,4.258650000000002933e+01,3.271150000000002223e+01,2.319587500000001512e+01,1.491462500000001157e+01,7.305250000000005350e+00,3.208750000000017977e-01,-4.585375000000002643e+00,-8.460375000000004420e+00,-1.013225000000000442e+01,-1.021037500000000442e+01,-8.601000000000004420e+00,-6.757250000000004420e+00,-4.663500000000002643e+00,-1.069749999999999979e+00,2.617750000000002242e+00,6.602125000000004462e+00,9.414625000000006239e+00,1.189900000000000801e+01,1.313337500000001157e+01,1.458650000000001157e+01,1.661775000000001157e+01,1.760212500000001157e+01,1.753962500000001157e+01,1.705525000000001157e+01,1.583650000000001157e+01,1.313337500000000979e+01,9.774000000000006239e+00,3.633375000000003130e+00,-4.585375000000001755e+00,-1.466350000000000620e+01,-2.578850000000001330e+01,-3.738225000000002041e+01,-4.913225000000002751e+01,-6.111662500000004172e+01,-7.396037500000004172e+01,-8.588225000000005593e+01,-9.886662500000008436e+01,-1.113353750000000844e+02,-1.236322500000000844e+02,-1.377572500000000844e+02,-1.517728750000000844e+02,-1.665541250000000844e+02,-1.813353750000001128e+02,-1.959916250000001696e+02,-2.100072500000001696e+02,-2.252260000000001696e+02,-2.409291250000001696e+02,-2.569135000000001696e+02,-2.754603750000001696e+02,-2.948666250000001696e+02,-3.151322500000001696e+02,-3.372728750000001696e+02,-3.596322500000002265e+02,-3.811791250000003402e+02,-4.029760000000003402e+02,-4.225072500000003402e+02,-4.382572500000003402e+02,-4.508978750000003402e+02,-4.608041250000003402e+02,-4.676010000000003402e+02,-4.722728750000003402e+02,-4.751166250000003402e+02,-4.757572500000003402e+02,-4.757728750000003402e+02,-4.757728750000003402e+02,-4.757885000000003402e+02,-4.758197500000003402e+02,-4.758510000000003402e+02,-4.759135000000003402e+02,-4.759760000000003402e+02,-4.760385000000003402e+02,-4.760853750000003402e+02,-4.761166250000003402e+02,-4.761635000000003402e+02,-4.761947500000003402e+02,-4.762103750000003402e+02,-4.762103750000003402e+02,-4.762103750000003402e+02,-4.762103750000003402e+02,-4.762103750000003402e+02,-4.762103750000003402e+02,-4.761947500000003402e+02,-4.761791250000003402e+02,-4.761322500000003402e+02,-4.744291250000003402e+02,-4.712103750000003402e+02,-4.652103750000003402e+02,-4.564760000000003402e+02,-4.443041250000003402e+02,-4.287416250000003402e+02,-4.084291250000003402e+02,-3.827260000000003402e+02,-3.550853750000002265e+02,-3.241947500000001696e+02,-2.927416250000001696e+02,-2.608822500000001696e+02,-2.291322500000001696e+02,-1.975853750000001696e+02,-1.682885000000001128e+02,-1.424603750000000844e+02,-1.171322500000000844e+02,-9.472600000000005593e+01,-7.300725000000004172e+01,-5.147600000000002751e+01,-3.166350000000002041e+01,-1.269475000000000620e+01,6.008375000000004462e+00,2.521150000000001512e+01,4.228962500000002933e+01,5.943025000000004354e+01,7.528962500000005775e+01,8.908650000000007196e+01,1.029615000000000862e+02,1.159615000000000862e+02,1.281177500000000862e+02,1.389771250000000862e+02,1.501021250000000862e+02,1.603521250000000862e+02,1.702740000000000862e+02,1.801021250000001146e+02,1.888365000000001714e+02,1.963052500000001714e+02,2.028208750000001714e+02,2.085083750000001714e+02,2.131490000000001714e+02,2.172271250000001714e+02,2.204615000000001714e+02,2.232271250000001714e+02,2.262583750000001714e+02,2.297271250000001714e+02,2.324146250000001714e+02,2.350708750000001714e+02,2.382427500000001714e+02,2.414458750000001714e+02,2.451021250000001714e+02,2.492271250000001714e+02,2.530708750000001714e+02,2.569927500000001714e+02,2.630552500000001714e+02,2.702427500000001714e+02,2.782271250000001714e+02,2.871177500000001714e+02,2.965083750000001714e+02,3.068365000000001714e+02,3.184458750000001714e+02,3.314458750000001714e+02,3.433052500000001714e+02,3.545396250000001714e+02,3.650708750000002283e+02,3.752427500000002283e+02,3.856333750000003420e+02,3.949615000000003420e+02,4.021333750000003420e+02,4.075083750000003420e+02,4.126958750000003420e+02,4.174302500000003420e+02,4.224927500000003420e+02,4.263833750000003420e+02,4.289146250000003420e+02,4.307271250000003420e+02,4.338833750000003420e+02,4.371333750000003420e+02,4.401646250000003420e+02,4.428833750000003420e+02,4.444146250000003420e+02,4.455708750000003420e+02,4.466021250000003420e+02,4.483833750000003420e+02,4.488990000000003420e+02,4.485240000000003420e+02,4.479146250000003420e+02,4.475552500000003420e+02,4.461490000000003420e+02,4.449458750000003420e+02,4.434615000000003420e+02,4.406490000000003420e+02,4.371021250000003420e+02,4.334771250000003420e+02,4.288208750000003420e+02,4.229302500000003420e+02,4.179146250000003420e+02,4.121958750000003420e+02,4.058052500000003420e+02,3.989771250000003420e+02,3.916958750000003420e+02,3.837115000000003420e+02,3.761490000000002283e+02,3.681802500000001714e+02,3.587427500000001714e+02,3.489771250000001714e+02,3.381333750000001714e+02,3.258208750000001714e+02,3.132896250000001714e+02,2.994146250000001714e+02,2.833521250000001714e+02,2.659615000000001714e+02,2.484146250000001714e+02,2.306333750000001714e+02,2.134927500000001714e+02,1.971958750000001714e+02,1.803365000000001146e+02,1.645552500000000862e+02,1.498677500000000862e+02,1.359302500000000862e+02,1.213208750000000862e+02,1.063521250000000862e+02,9.053962500000007196e+01,7.461775000000005775e+01,5.950837500000004354e+01,4.433650000000002933e+01,2.868025000000001512e+01,1.282087500000000801e+01,-2.726000000000000423e+00,-1.825725000000000975e+01,-3.314787500000001330e+01,-4.849162500000002751e+01,-6.442912500000004172e+01,-8.091350000000005593e+01,-9.736662500000007014e+01,-1.132416250000000844e+02,-1.274447500000000844e+02,-1.419135000000000844e+02,-1.563510000000000844e+02,-1.693197500000000844e+02,-1.815228750000001128e+02,-1.918197500000001696e+02,-1.992260000000001696e+02,-2.049447500000001696e+02,-2.100697500000001696e+02,-2.120228750000001696e+02,-2.117103750000001696e+02,-2.103666250000001696e+02,-2.071947500000001696e+02,-2.035697500000001696e+02,-2.008041250000001696e+02,-1.972572500000001696e+02,-1.937103750000001696e+02,-1.914916250000001128e+02,-1.891166250000001128e+02,-1.867885000000001128e+02,-1.845228750000000844e+02,-1.823666250000000844e+02,-1.795385000000000844e+02,-1.773822500000000844e+02,-1.751010000000000844e+02,-1.712260000000000844e+02,-1.678197500000000844e+02,-1.630853750000000844e+02,-1.587572500000000844e+02,-1.535853750000000844e+02,-1.482416250000000844e+02,-1.425697500000000844e+02,-1.354291250000000844e+02,-1.288197500000000844e+02,-1.219916250000000844e+02,-1.159135000000000844e+02,-1.093041250000000844e+02,-1.032728750000000844e+02,-9.711662500000008436e+01,-9.033537500000005593e+01,-8.547600000000004172e+01,-8.088225000000004172e+01,-7.560100000000004172e+01,-7.136662500000004172e+01,-6.669475000000004172e+01,-6.180412500000004172e+01,-5.756975000000004172e+01,-5.411662500000004172e+01,-4.922600000000004172e+01,-4.467912500000002751e+01,-4.063225000000002751e+01,-3.505412500000002041e+01,-3.075725000000002041e+01,-2.638225000000001685e+01,-2.164787500000001330e+01,-1.700725000000000975e+01,-1.341350000000000797e+01,-8.538500000000004420e+00,-3.772875000000000867e+00,-2.287499999999864642e-02,5.149000000000004462e+00,1.028962500000000801e+01,1.530525000000001157e+01,2.064900000000001512e+01,2.702400000000001867e+01,3.158650000000002223e+01,3.586775000000002223e+01,3.977400000000002223e+01,4.178962500000002223e+01,4.386775000000002223e+01,4.610212500000002933e+01,4.722712500000002933e+01,4.730525000000002933e+01,4.822712500000004354e+01,4.814900000000004354e+01,4.897712500000004354e+01,5.064900000000004354e+01,5.097712500000004354e+01,5.119587500000004354e+01,5.249275000000004354e+01,5.297712500000004354e+01,5.332087500000004354e+01,5.457087500000004354e+01,5.491462500000004354e+01,5.583650000000004354e+01,5.780525000000004354e+01,5.938337500000004354e+01,6.049275000000004354e+01,6.338337500000004354e+01,6.622712500000004354e+01,6.946150000000004354e+01,7.258650000000004354e+01,7.472712500000004354e+01,7.716462500000004354e+01,7.974275000000004354e+01,8.200837500000004354e+01,8.303962500000004354e+01,8.328962500000004354e+01,8.453962500000004354e+01,8.849275000000005775e+01,9.377400000000005775e+01,9.960212500000008617e+01,1.063521250000000862e+02,1.150552500000000862e+02,1.246490000000000862e+02
6.671875000000004441e+00,1.954687500000001421e+01,2.440625000000001776e+01,2.662500000000002132e+01,1.917187500000001421e+01,1.143750000000000711e+01,5.468750000000002665e+00,-2.031250000000002220e+00,-3.968750000000003109e+00,-7.015625000000003553e+00,-9.312500000000003553e+00,-7.453125000000003553e+00,-8.687500000000005329e+00,-5.562500000000002665e+00,-1.000000000000000666e+00,1.500000000000000888e+00,7.578125000000005329e+00,8.859375000000007105e+00,7.046875000000005329e+00,4.375000000000003553e+00,-2.046875000000001332e+00,-6.125000000000003553e+00,-6.375000000000004441e+00,-6.093750000000004441e+00,-3.406250000000002220e+00,2.500000000000001110e-01,1.250000000000000666e+00,4.703125000000003553e+00,7.906250000000005329e+00,9.796875000000007105e+00,1.189062500000000711e+01,9.359375000000007105e+00,5.593750000000003553e+00,-2.656250000000000000e-01,-6.828125000000003553e+00,-9.500000000000005329e+00,-1.198437500000000711e+01,-1.032812500000000711e+01,-4.906250000000003553e+00,-1.171875000000001332e+00,6.046875000000003553e+00,1.209375000000000711e+01,1.446875000000000888e+01,1.967187500000001421e+01,2.020312500000001421e+01,1.707812500000001421e+01,1.437500000000001066e+01,3.062500000000002665e+00,-8.968750000000007105e+00,-1.754687500000001421e+01,-2.798437500000001776e+01,-2.889062500000002132e+01,-2.570312500000002132e+01,-2.265625000000001421e+01,-1.404687500000000711e+01,-9.718750000000007105e+00,-6.640625000000005329e+00,-3.312500000000002665e+00,-4.265625000000003553e+00,-1.937500000000001776e+00,8.593750000000004441e-01,1.687500000000001554e+00,5.250000000000004441e+00,4.671875000000003553e+00,3.015625000000002220e+00,4.500000000000002665e+00,3.734375000000002220e+00,4.687500000000003553e+00,5.265625000000003553e+00,3.593750000000002665e+00,1.875000000000001332e+00,-6.250000000000005551e-02,-1.015625000000000444e+00,-4.156250000000002665e+00,-6.578125000000005329e+00,-8.156250000000005329e+00,-9.640625000000007105e+00,-5.812500000000004441e+00,-7.812500000000009992e-01,3.218750000000002220e+00,6.140625000000005329e+00,6.593750000000005329e+00,4.718750000000003553e+00,4.171875000000002665e+00,4.703125000000003553e+00,2.765625000000002665e+00,2.703125000000002220e+00,1.718750000000000000e-01,-2.546875000000001776e+00,-2.171875000000001776e+00,-2.875000000000001776e+00,-3.593749999999997780e-01,3.750000000000002220e-01,1.718750000000000000e-01,2.656250000000000000e-01,-3.171875000000002665e+00,-3.671875000000002665e+00,-3.406250000000001776e+00,-2.937500000000001776e+00,3.437500000000001110e-01,1.875000000000000888e+00,1.515625000000000444e+00,1.031250000000000222e+00,-5.937500000000004441e-01,-1.328125000000000666e+00,-5.000000000000002220e-01,1.093750000000000833e-01,1.343750000000000888e+00,5.937500000000003331e-01,-9.062500000000003331e-01,-9.687500000000003331e-01,-1.187500000000000444e+00,1.921875000000001110e+00,7.312500000000003553e+00,1.000000000000000533e+01,1.164062500000000711e+01,1.096875000000000711e+01,6.703125000000003553e+00,3.265625000000002220e+00,1.562500000000002220e-01,-4.234375000000003553e+00,-7.671875000000005329e+00,-8.093750000000005329e+00,-6.859375000000005329e+00,-1.453125000000001332e+00,6.718750000000003553e+00,1.032812500000000533e+01,1.229687500000000711e+01,1.059375000000000711e+01,5.078125000000002665e+00,3.437500000000002665e+00,1.328125000000001110e+00,-4.531249999999997224e-01,-1.546875000000000888e+00,-7.484375000000005329e+00,-1.185937500000000711e+01,-1.529687500000001066e+01,-1.560937500000001066e+01,-9.812500000000007105e+00,-6.343750000000003553e+00,-3.250000000000001776e+00,-3.796875000000002220e+00,-9.531250000000007105e+00,-1.123437500000000711e+01,-1.071875000000000533e+01,-7.046875000000003553e+00,9.843750000000006661e-01,4.312500000000002665e+00,4.546875000000002665e+00,1.687500000000001332e+00,-3.609375000000001776e+00,-3.390625000000001776e+00,-2.000000000000001332e+00,2.578125000000000888e+00,6.265625000000003553e+00,4.562500000000002665e+00,4.031250000000002665e+00,1.062500000000000888e+00,1.140625000000001332e+00,3.453125000000002665e+00,2.328125000000001776e+00,1.234375000000000888e+00,-4.500000000000002665e+00,-9.656250000000005329e+00,-1.003125000000000355e+01,-7.906250000000003553e+00,9.218750000000013323e-01,8.765625000000005329e+00,1.417187500000000711e+01,1.735937500000001066e+01,1.345312500000000711e+01,1.115625000000000711e+01,7.250000000000004441e+00,2.218750000000001332e+00,1.843750000000001332e+00,-1.093750000000000666e+00,-2.343750000000001776e+00,-2.220446049250313081e-16,1.249999999999997780e-01,2.437500000000000888e+00,5.109375000000002665e+00,3.109375000000001776e+00,2.734375000000001776e+00,-5.625000000000000000e-01,-4.281250000000002665e+00,-2.312500000000001776e+00,-2.000000000000001332e+00,2.781250000000001776e+00,7.375000000000004441e+00,6.843750000000003553e+00,6.031250000000003553e+00,1.765625000000001110e+00,-2.781250000000001776e+00,-5.031250000000003553e+00,-4.562500000000003553e+00,-2.906250000000002665e+00,-1.218750000000001110e+00,1.343750000000000666e+00,3.171875000000001776e+00,4.218750000000002665e+00,7.484375000000005329e+00,7.968750000000005329e+00,4.921875000000003553e+00,3.718750000000003553e+00,-2.109375000000001776e+00,-4.828125000000003553e+00,-4.718750000000003553e+00,-7.218750000000004441e+00,-3.859375000000001776e+00,-2.484375000000001332e+00,1.015625000000001332e+00,6.125000000000003553e+00,5.546875000000003553e+00,6.000000000000003553e+00,1.000000000000000000e+00,-3.312500000000002665e+00,-3.968750000000003553e+00,-6.468750000000005329e+00,-2.875000000000002665e+00,-1.562500000000004441e-01,6.718750000000002220e-01,4.343750000000002665e+00,3.140625000000002220e+00,-1.249999999999997502e-01,-1.484375000000000888e+00,-4.562500000000003553e+00,-5.765625000000003553e+00,-2.734375000000001776e+00,-7.500000000000002220e-01,-3.124999999999988898e-02,1.359375000000001110e+00,-6.249999999999977796e-02,-2.593750000000001776e+00,-1.140625000000001110e+00,-8.906250000000006661e-01,-9.687500000000006661e-01,1.281250000000000888e+00,-6.406250000000004441e-01,-1.500000000000001110e+00,3.125000000000000555e-01,5.625000000000004441e-01,3.109375000000002220e+00,4.609375000000003553e+00,3.546875000000002665e+00,2.390625000000001776e+00,5.156250000000000000e-01,1.031250000000000444e+00,2.781250000000001776e+00,5.625000000000003553e+00,8.546875000000005329e+00,7.078125000000004441e+00,4.687500000000003553e+00,7.656250000000004441e-01,-2.140625000000001776e+00,-2.343750000000001776e+00,-2.265625000000001776e+00,-1.234375000000000666e+00,-3.015625000000001776e+00,-3.937500000000002220e+00,-5.453125000000003553e+00,-7.296875000000004441e+00,-7.515625000000004441e+00,-9.234375000000005329e+00,-8.625000000000005329e+00,-7.421875000000005329e+00,-3.375000000000002220e+00,2.750000000000002220e+00,7.984375000000005329e+00,1.412500000000000888e+01,1.628125000000001066e+01,1.381250000000001066e+01,9.281250000000007105e+00,1.203125000000001776e+00,-5.375000000000002665e+00,-5.812500000000003553e+00,-4.859375000000002665e+00,-4.375000000000000000e-01,1.812500000000001110e+00,-2.546875000000001776e+00,-6.906250000000003553e+00,-1.375000000000000711e+01,-1.571875000000001066e+01,-1.262500000000000888e+01,-8.000000000000005329e+00,4.687499999999977796e-02,3.093750000000001776e+00,5.921875000000003553e+00,6.390625000000003553e+00,4.453125000000002665e+00,7.156250000000004441e+00,7.546875000000005329e+00,8.750000000000005329e+00,7.656250000000003553e+00,2.531250000000001776e+00,-3.156250000000001776e+00,-9.171875000000005329e+00,-1.026562500000000711e+01,-1.046875000000000711e+01,-7.359375000000004441e+00,-4.500000000000002665e+00,-5.000000000000003553e+00,-4.718750000000002665e+00,-7.125000000000003553e+00,-7.281250000000003553e+00,-5.375000000000003553e+00,-1.875000000000001332e+00,3.234375000000002220e+00,7.281250000000004441e+00,1.006250000000000533e+01,9.578125000000005329e+00,8.203125000000005329e+00,5.156250000000002665e+00,1.500000000000000888e+00,1.718750000000000833e-01,-5.937500000000004441e-01,4.062500000000003331e-01,2.109375000000001332e+00,3.296875000000001776e+00,2.734375000000001776e+00,-3.750000000000003331e-01,-2.171875000000001332e+00,-5.265625000000003553e+00,-6.406250000000003553e+00,-3.031250000000001776e+00,-2.734375000000001776e+00,-1.406250000000000888e+00,-1.875000000000002220e-01,-3.796875000000002220e+00,-3.921875000000002665e+00,-4.562500000000002665e+00,-7.484375000000005329e+00,-7.218750000000005329e+00,-8.781250000000005329e+00,-7.937500000000005329e+00,-3.078125000000001776e+00,1.562500000000000888e+00,5.703125000000003553e+00,7.234375000000005329e+00,6.718750000000005329e+00,4.984375000000003553e+00,5.750000000000003553e+00,7.718750000000005329e+00,7.984375000000005329e+00,9.140625000000007105e+00,6.890625000000005329e+00,4.671875000000003553e+00,5.562500000000003553e+00,5.703125000000003553e+00,8.390625000000007105e+00,7.625000000000006217e+00,3.578125000000002665e+00,-3.437500000000006661e-01,-6.562500000000005329e+00,-7.546875000000005329e+00,-6.421875000000005329e+00,-5.296875000000003553e+00,-1.140625000000000444e+00,5.312500000000007772e-01,2.718750000000002220e+00,4.890625000000003553e+00,4.046875000000002665e+00,3.984375000000002665e+00,1.468750000000000888e+00,7.187500000000001110e-01,2.312500000000001332e+00,7.656250000000007772e-01,9.218750000000005551e-01,-4.156250000000001776e+00,-1.409375000000000711e+01,-2.271875000000001421e+01,-3.306250000000002132e+01,-3.576562500000002132e+01,-2.878125000000002132e+01,-1.290625000000000888e+01,1.173437500000000888e+01,3.378125000000002132e+01,5.067187500000003553e+01,5.464062500000004263e+01,4.431250000000002842e+01,2.871875000000001421e+01,5.937500000000000888e+00,-1.240625000000001066e+01,-2.303125000000001776e+01,-3.067187500000002132e+01,-2.837500000000002132e+01,-2.573437500000001776e+01,-2.206250000000001421e+01,-1.264062500000000711e+01,-4.265625000000002665e+00,1.081250000000000533e+01,2.728125000000001421e+01,3.917187500000002132e+01,4.846875000000002842e+01,4.790625000000003553e+01,3.996875000000002842e+01,2.548437500000002132e+01,3.546875000000003553e+00,-2.270312500000001421e+01,-5.175000000000004263e+01,-8.112500000000005684e+01,-1.040468750000000711e+02,-1.165000000000000853e+02,-1.159687500000000853e+02,-9.220312500000007105e+01,-5.192187500000003553e+01,7.968750000000017764e-01,6.107812500000004263e+01,1.061250000000000711e+02,1.307187500000000853e+02,1.295000000000000853e+02,1.010625000000000568e+02,5.965625000000003553e+01,1.689062500000001066e+01,-1.581250000000001243e+01,-3.403125000000002132e+01,-3.700000000000002132e+01,-2.937500000000001776e+01,-1.960937500000001421e+01,-8.125000000000005329e+00,-6.562500000000004441e-01,2.375000000000001332e+00,4.890625000000002665e+00,3.343750000000001776e+00,2.484375000000001776e+00,6.093750000000006661e-01,-4.062500000000002665e+00,-6.984375000000005329e+00,-9.859375000000007105e+00,-1.173437500000000711e+01,-1.214062500000000888e+01,-1.237500000000001066e+01,-1.395312500000001066e+01,-1.284375000000000888e+01,-8.437500000000005329e+00,-2.906250000000001776e+00,5.265625000000003553e+00,1.089062500000000711e+01,1.337500000000001066e+01,1.321875000000000888e+01,1.092187500000000711e+01,7.828125000000005329e+00,4.671875000000002665e+00,4.062500000000002665e+00,2.781250000000001776e+00,3.203125000000002665e+00,3.093750000000002665e+00,-1.218750000000000444e+00,-2.875000000000001332e+00,-5.015625000000003553e+00,-6.750000000000004441e+00,-2.671875000000001776e+00,-1.093750000000000888e+00,-1.625000000000001110e+00,6.093750000000004441e-01,-2.078125000000001776e+00,-2.453125000000002665e+00,2.093750000000001332e+00,2.406250000000001776e+00,6.140625000000003553e+00,6.109375000000003553e+00,4.375000000000001110e-01,-1.250000000000001332e+00,-5.828125000000003553e+00,-5.718750000000003553e+00,-1.718750000000001110e+00,-1.765625000000001110e+00,1.093750000000000666e+00,9.687500000000006661e-01,5.312500000000000000e-01,2.421875000000001332e+00,1.671875000000001110e+00,1.406250000000000888e+00,-2.265625000000001332e+00,-4.218750000000002665e+00,-4.703125000000003553e+00,-4.000000000000002665e+00,1.531250000000000888e+00,3.062500000000001776e+00,5.015625000000003553e+00,4.093750000000002665e+00,4.843750000000003331e-01,-2.656250000000000000e-01,-2.171875000000001332e+00,-3.125000000000000000e-02,1.375000000000000888e+00,1.515625000000001110e+00,2.843750000000002220e+00,1.531250000000000888e+00,1.140625000000000888e+00,1.796875000000001332e+00,6.250000000000000000e-02,-2.140625000000001332e+00,-2.234375000000001332e+00,-4.359375000000003553e+00,-4.171875000000003553e+00,-1.890625000000001332e+00,-3.718750000000002665e+00,-2.328125000000001776e+00,-6.718750000000004441e-01,7.812500000000000000e-02,4.265625000000002665e+00,6.156250000000003553e+00,5.906250000000003553e+00,4.734375000000003553e+00,1.390625000000001110e+00,-2.890625000000001332e+00,-5.109375000000003553e+00,-7.156250000000004441e+00,-7.640625000000005329e+00,-4.203125000000002665e+00,-2.468750000000001332e+00,1.859375000000001554e+00,5.468750000000003553e+00,3.703125000000001776e+00,4.046875000000001776e+00,1.562499999999995559e-01,-3.828125000000002665e+00,-2.515625000000001776e+00,-4.109375000000002665e+00,-2.453125000000001332e+00,-4.375000000000002220e-01,-1.984375000000001332e+00,5.625000000000002220e-01,2.671875000000001776e+00,5.031250000000003553e+00,8.765625000000005329e+00,7.093750000000004441e+00,4.390625000000003553e+00,-3.750000000000000000e-01,-5.812500000000003553e+00,-6.109375000000003553e+00,-6.312500000000003553e+00,-4.171875000000003553e+00,-7.812500000000006661e-01,5.156250000000002220e-01,1.921875000000001110e+00,4.421875000000003553e+00,6.640625000000004441e+00,7.843750000000004441e+00,1.101562500000000711e+01,9.031250000000005329e+00,4.171875000000002665e+00,-5.937500000000000000e-01,-1.115625000000000711e+01,-1.723437500000001066e+01,-1.953125000000001421e+01,-2.064062500000001421e+01,-1.326562500000000711e+01,-5.937500000000003553e+00,-6.249999999999955591e-02,7.453125000000005329e+00,9.187500000000007105e+00,8.562500000000005329e+00,8.500000000000005329e+00,5.062500000000003553e+00,1.796875000000001332e+00,1.843750000000001332e+00,5.312500000000005551e-01,7.812500000000009992e-01,4.812500000000003553e+00,4.500000000000003553e+00,5.578125000000003553e+00,7.453125000000005329e+00,3.687500000000002665e+00,4.375000000000002665e+00,5.000000000000003553e+00,3.500000000000002665e+00,7.640625000000005329e+00,9.015625000000007105e+00,9.578125000000005329e+00,1.182812500000000711e+01,1.173437500000000711e+01,1.017187500000000711e+01,7.812500000000006217e+00,4.531250000000003553e+00,-2.171875000000002220e+00,-5.562500000000005329e+00,-7.078125000000005329e+00,-8.421875000000005329e+00,-5.328125000000003553e+00,-3.515625000000001776e+00,-3.343750000000001332e+00,-4.359375000000001776e+00,-5.890625000000003553e+00,-7.906250000000004441e+00,-8.468750000000005329e+00,-5.484375000000003553e+00,-4.703125000000003553e+00,-3.859375000000002665e+00,-5.390625000000003553e+00,-9.562500000000007105e+00,-1.054687500000000711e+01,-1.017187500000000711e+01,-5.000000000000002665e+00,-2.343749999999998335e-01,1.250000000000004718e-01,-4.062499999999998335e-01,-5.609375000000003553e+00,-9.359375000000007105e+00,-6.546875000000005329e+00,-4.000000000000003553e+00,1.249999999999997780e-01,5.437500000000003553e+00,4.625000000000003553e+00,5.062500000000003553e+00,8.250000000000005329e+00,7.687500000000005329e+00,1.031250000000000711e+01,1.046875000000000711e+01,4.187500000000003553e+00,9.375000000000022204e-02,-6.515625000000003553e+00,-1.175000000000000711e+01,-1.248437500000000888e+01,-1.335937500000001066e+01,-1.242187500000000888e+01,-9.171875000000007105e+00,-4.984375000000003553e+00,8.593750000000006661e-01,8.187500000000005329e+00,1.107812500000000711e+01,1.237500000000000711e+01,1.025000000000000711e+01,4.859375000000003553e+00,1.359375000000000666e+00,-5.203125000000002665e+00,-1.134375000000000711e+01,-1.570312500000001066e+01,-1.890625000000001066e+01,-1.504687500000000711e+01,-7.328125000000005329e+00,1.781249999999999556e+00,1.137500000000000711e+01,1.354687500000000711e+01,1.373437500000000711e+01,9.703125000000007105e+00,2.937500000000002665e+00,1.781250000000001776e+00,-2.625000000000001332e+00,-2.843750000000001332e+00,-1.312500000000000444e+00,-2.140625000000001332e+00,1.625000000000000888e+00,4.312500000000002665e+00,6.250000000000003553e+00,6.796875000000003553e+00,5.312500000000002665e+00,1.296875000000000222e+00,-1.343750000000001332e+00,-2.031250000000001332e+00,-3.562500000000002665e+00,-9.531250000000004441e-01,-5.312500000000000000e-01,-1.093750000000000000e-01,2.687500000000001776e+00,2.312500000000001776e+00,3.765625000000002220e+00,5.062500000000003553e+00,2.843750000000001776e+00,5.625000000000003331e-01,-2.343750000000001332e+00,-7.234375000000005329e+00,-7.750000000000005329e+00,-5.562500000000003553e+00,-3.500000000000002665e+00,2.406250000000001776e+00,4.578125000000003553e+00,4.421875000000002665e+00,5.281250000000002665e+00,3.734375000000002220e+00,5.625000000000003553e+00,9.953125000000005329e+00,1.278125000000000711e+01,1.478125000000001066e+01,1.175000000000000711e+01,4.500000000000003553e+00,-2.625000000000001776e+00,-9.109375000000007105e+00,-1.076562500000000711e+01,-9.281250000000007105e+00,-7.109375000000005329e+00,-4.328125000000002665e+00,-3.578125000000002665e+00,-3.781250000000002665e+00,-5.015625000000003553e+00,-6.000000000000004441e+00,-7.156250000000005329e+00,-6.062500000000003553e+00,-2.531250000000001776e+00,1.093750000000000888e+00,6.234375000000005329e+00,7.296875000000005329e+00,6.250000000000004441e+00,4.515625000000003553e+00,6.250000000000000000e-02,-1.656250000000001110e+00,-2.703125000000001776e+00,-4.015625000000002665e+00,-8.437500000000004441e-01,4.000000000000002665e+00,9.328125000000007105e+00,1.568750000000001066e+01,1.751562500000001066e+01,1.329687500000000711e+01,7.375000000000003553e+00,4.374999999999995559e-01,-6.593750000000005329e+00,-6.468750000000005329e+00,-5.421875000000003553e+00,-3.953125000000002665e+00,3.156250000000002665e+00,4.828125000000003553e+00,7.234375000000004441e+00,8.968750000000007105e+00,3.656250000000003109e+00,-1.562499999999955591e-02,-4.046875000000002665e+00,-5.953125000000003553e+00,-4.109375000000002665e+00,5.312500000000000000e-01,4.312500000000002665e+00,4.828125000000002665e+00,7.250000000000003553e+00,6.171875000000004441e+00,6.390625000000005329e+00,1.090625000000000711e+01,9.046875000000007105e+00,5.843750000000003553e+00,-4.218750000000026645e-01,-1.300000000000001066e+01,-2.046875000000001421e+01,-2.340625000000001776e+01,-2.214062500000001421e+01,-1.492187500000000711e+01,-8.250000000000003553e+00,-3.640625000000001776e+00,-7.968750000000004441e-01,-3.125000000000004163e-02,4.687500000000002776e-02,1.718750000000001110e-01,1.875000000000001110e-01,9.375000000000008327e-02,6.250000000000005551e-02,-6.250000000000004163e-02,-6.250000000000004163e-02,-6.938893903907228378e-18,-1.562500000000001735e-02,1.562500000000001041e-02,-6.250000000000002776e-02,-1.562500000000000833e-01,-1.406250000000000833e-01,-7.812500000000004163e-02,4.687500000000004163e-02,1.718750000000001110e-01,1.718750000000001110e-01,4.687500000000002776e-02,-9.375000000000006939e-02,-2.343750000000001665e-01,-2.812500000000002220e-01,-1.796875000000001332e+00,-4.828125000000003553e+00,-1.064062500000000711e+01,-1.918750000000001066e+01,-2.479687500000001421e+01,-2.773437500000002132e+01,-2.429687500000001776e+01,-1.543750000000001066e+01,-7.703125000000005329e+00,-1.781250000000001776e+00,3.281250000000001665e-01,1.968750000000000888e+00,3.468750000000001776e+00,9.234375000000003553e+00,1.487500000000000711e+01,1.492187500000000888e+01,1.471875000000001066e+01,7.062500000000006217e+00,-9.062499999999993339e-01,-4.375000000000002665e+00,-6.375000000000004441e+00,-2.531250000000002665e+00,3.203125000000001332e+00,8.125000000000005329e+00,9.546875000000007105e+00,7.906250000000005329e+00,4.234375000000003553e+00,9.375000000000004441e-01,5.625000000000007772e-01,2.312500000000001776e+00,4.781250000000003553e+00,3.984375000000002665e+00,2.859375000000001776e+00,-3.906250000000004441e-01,-3.125000000000002220e+00,-1.406249999999995559e-01,2.125000000000001776e+00,6.906250000000005329e+00,1.107812500000000711e+01,9.015625000000005329e+00,7.312500000000005329e+00,1.609375000000000888e+00,-4.125000000000002665e+00,-4.203125000000002665e+00,-5.546875000000003553e+00,-1.703125000000000444e+00,2.859375000000002220e+00,2.265625000000001776e+00,4.906250000000003553e+00,2.578125000000001776e+00,-2.328125000000000888e+00,-2.640625000000001776e+00,-7.109375000000003553e+00,-7.281250000000003553e+00,-3.468750000000002220e+00,-3.843750000000002220e+00,-1.015625000000000666e+00,-2.593750000000000888e+00,-6.234375000000003553e+00,-5.250000000000003553e+00,-5.921875000000003553e+00,-1.734375000000001332e+00,2.593750000000001776e+00,3.234375000000001776e+00,6.453125000000003553e+00,6.593750000000003553e+00,5.515625000000003553e+00,6.062500000000003553e+00,2.578125000000001332e+00,7.812499999999994449e-02,1.640625000000000888e+00,2.593750000000001776e+00,5.093750000000003553e+00,6.640625000000004441e+00,2.046875000000001776e+00,-2.078125000000000888e+00,-3.796875000000001776e+00,-5.234375000000002665e+00,-7.656250000000000000e-01,2.703125000000001776e+00,3.359375000000001776e+00,6.140625000000003553e+00,4.296875000000003553e+00,3.328125000000001776e+00,3.125000000000001776e+00,-1.562500000000000888e+00,-2.703125000000001776e+00,-3.031250000000001776e+00,-2.375000000000001332e+00,3.515625000000002665e+00,6.875000000000005329e+00,8.812500000000005329e+00,7.921875000000005329e+00,2.421875000000001332e+00,-8.593750000000006661e-01,-3.781250000000002665e+00,-3.328125000000001776e+00,1.453125000000000666e+00,3.218750000000001776e+00,4.984375000000003553e+00,5.765625000000003553e+00,1.875000000000001554e+00,1.062500000000000666e+00,6.562500000000002220e-01,-1.468750000000000444e+00,1.046875000000000888e+00,3.015625000000002220e+00,5.265625000000003553e+00,9.671875000000005329e+00,1.085937500000000533e+01,9.671875000000005329e+00,6.312500000000003553e+00,1.546875000000000888e+00,-3.546875000000001332e+00,-7.281250000000003553e+00,-8.984375000000003553e+00,-9.562500000000005329e+00,-6.468750000000003553e+00,-1.343750000000001332e+00,4.156250000000002665e+00,8.515625000000005329e+00,8.609375000000005329e+00,5.671875000000003553e+00,7.187500000000006661e-01,-4.671875000000002665e+00,-6.937500000000003553e+00,-7.468750000000005329e+00,-5.109375000000003553e+00,1.250000000000000222e+00,5.843750000000003553e+00,9.234375000000003553e+00,9.015625000000003553e+00,1.640625000000000888e+00,-4.687500000000003553e+00,-8.609375000000005329e+00,-9.484375000000005329e+00,-3.218750000000001776e+00,1.875000000000001776e+00,2.750000000000001776e+00,1.281250000000000666e+00,-4.140625000000003553e+00,-1.015625000000000711e+01,-1.300000000000001066e+01,-1.353125000000001066e+01,-1.403125000000001066e+01,-1.126562500000000711e+01,-7.140625000000005329e+00,-4.421875000000003553e+00,7.812500000000002220e-01,4.031250000000002665e+00,3.890625000000002665e+00,3.843750000000002665e+00,1.859375000000001332e+00,-4.218750000000002776e-01,-1.421875000000000888e+00,-6.250000000000004441e-01,-2.031250000000001665e-01,-2.343750000000001665e-01,1.062500000000000666e+00,-1.531250000000000888e+00,-1.687500000000000888e+00,-1.125000000000000888e+00,-2.843750000000002220e+00,-1.203125000000000888e+00,-3.343750000000002665e+00,-4.015625000000003553e+00,-3.234375000000001776e+00,-2.281250000000001332e+00,1.390625000000001110e+00,2.031250000000001776e+00,2.640625000000001776e+00,-3.749999999999997780e-01,-2.234375000000001332e+00,-8.281250000000002220e-01,-6.718749999999998890e-01,4.109375000000002665e+00,5.375000000000003553e+00,2.781250000000001776e+00,2.062500000000000888e+00,-1.234375000000000888e+00,-3.468750000000002665e+00,-1.421875000000000888e+00,3.124999999999988898e-02,7.812500000000013878e-02,2.875000000000001776e+00,2.015625000000000888e+00,-1.031250000000000444e+00,-7.343750000000006661e-01,-3.281250000000002665e+00,-3.781250000000003109e+00,-1.562500000000044409e-02,2.406250000000001332e+00,4.812500000000003553e+00,6.000000000000004441e+00,2.171875000000001332e+00,-3.015625000000001776e+00,-7.562500000000005329e+00,-9.203125000000007105e+00,-5.531250000000003553e+00,-6.250000000000044409e-02,7.000000000000004441e+00,9.937500000000007105e+00,7.406250000000005329e+00,4.687500000000003553e+00,6.718750000000006661e-01,-1.656250000000000888e+00,1.046875000000000888e+00,2.359375000000001776e+00,9.062500000000006661e-01,1.296875000000000888e+00,-1.312500000000000666e+00,-3.703125000000002220e+00,-3.125000000000000000e-01,6.718750000000005551e-01,5.781250000000003331e-01,3.281250000000001776e+00,7.343750000000000000e-01,-2.234375000000001776e+00,-1.718750000000002220e-01,-1.765625000000000888e+00,-1.687500000000000888e+00,1.656250000000001110e+00,-1.671875000000001110e+00,-2.906250000000002220e+00,-2.046875000000001776e+00,-5.015625000000003553e+00,-1.750000000000001776e+00,1.062500000000000444e+00,1.984375000000000888e+00,5.859375000000003553e+00,4.968750000000003553e+00,3.453125000000002220e+00,1.109375000000000888e+00,-1.890625000000000888e+00,-2.703125000000001776e+00,-5.031250000000002665e+00,-6.625000000000004441e+00,-1.226562500000000711e+01,-1.657812500000001066e+01,-1.346875000000001066e+01,-8.000000000000005329e+00
1.568750000000000533e+01,2.575000000000001066e+01,3.687500000000001776e+00,-1.250000000000000000e-01,1.112500000000000533e+01,6.687500000000003553e+00,-6.187500000000002665e+00,-4.375000000000002665e+00,4.250000000000001776e+00,-2.125000000000000444e+00,-6.187500000000002665e+00,-2.220446049250313081e-16,-3.000000000000001332e+00,-4.500000000000001776e+00,1.062500000000000444e+00,1.062500000000000444e+00,-5.000000000000003331e-01,2.625000000000000888e+00,9.812500000000003553e+00,7.125000000000003553e+00,-7.187500000000003553e+00,-8.562500000000003553e+00,-1.000000000000000444e+00,-2.562500000000001332e+00,1.875000000000000000e-01,6.000000000000002665e+00,-1.312500000000000444e+00,-5.875000000000002665e+00,1.687500000000001110e+00,7.312500000000003553e+00,6.375000000000002665e+00,3.375000000000000888e+00,1.062500000000000222e+00,-6.875000000000002220e-01,-3.750000000000001110e-01,-3.437500000000001776e+00,-9.687500000000003553e+00,-4.000000000000000888e+00,3.062500000000001332e+00,-2.000000000000001332e+00,-1.625000000000000888e+00,5.125000000000002665e+00,7.625000000000002665e+00,6.250000000000001776e+00,8.750000000000006661e-01,4.625000000000001776e+00,1.206250000000000355e+01,4.187500000000001776e+00,-1.562500000000000444e+00,-6.312500000000003553e+00,-1.975000000000000711e+01,-1.237500000000000533e+01,3.375000000000000888e+00,-4.187500000000002665e+00,-1.275000000000000533e+01,-3.500000000000000888e+00,8.500000000000003553e+00,4.312500000000001776e+00,-7.437500000000002665e+00,-6.000000000000001776e+00,-1.875000000000000555e-01,3.062500000000001332e+00,7.062500000000003553e+00,2.250000000000000888e+00,-2.437500000000001332e+00,-9.375000000000003331e-01,-3.437500000000001776e+00,2.687500000000000888e+00,1.237500000000000711e+01,8.125000000000008882e-01,-1.125000000000000355e+01,8.750000000000017764e-01,8.000000000000003553e+00,-3.812500000000001776e+00,-3.062500000000001776e+00,3.812500000000001776e+00,-7.187500000000002665e+00,-1.331250000000000711e+01,6.250000000000000000e-02,1.212500000000000711e+01,8.562500000000003553e+00,-3.312500000000001332e+00,-5.937500000000001776e+00,2.812500000000001332e+00,3.875000000000001776e+00,-1.875000000000000555e-01,4.687500000000001776e+00,1.687500000000000888e+00,-8.000000000000003553e+00,-2.500000000000000888e+00,5.125000000000001776e+00,-1.500000000000000888e+00,-5.312500000000002665e+00,5.750000000000002665e+00,6.312500000000003553e+00,-7.125000000000003553e+00,-4.375000000000002665e+00,3.187500000000001776e+00,-3.187500000000000888e+00,-4.187500000000001776e+00,4.375000000000001776e+00,6.750000000000002665e+00,1.062500000000000222e+00,-6.125000000000002665e+00,-5.875000000000001776e+00,3.625000000000001776e+00,6.937500000000001776e+00,-2.937500000000001332e+00,-6.437500000000001776e+00,5.750000000000003553e+00,7.000000000000003553e+00,-8.375000000000003553e+00,-8.875000000000003553e+00,3.500000000000000888e+00,8.437500000000003553e+00,1.143750000000000533e+01,5.625000000000002665e+00,-9.750000000000003553e+00,-4.625000000000001776e+00,1.131250000000000533e+01,3.750000000000001776e+00,-9.187500000000003553e+00,-5.125000000000001776e+00,-2.937500000000001776e+00,-6.062500000000003553e+00,6.875000000000000000e-01,1.225000000000000533e+01,1.287500000000000533e+01,-1.687500000000000888e+00,-7.812500000000003553e+00,3.937500000000000888e+00,3.375000000000000888e+00,-6.187500000000002665e+00,1.500000000000000000e+00,9.375000000000003553e+00,-2.562500000000000888e+00,-1.625000000000000711e+01,-1.062500000000000355e+01,-3.750000000000003331e-01,1.062500000000000222e+00,6.500000000000003553e+00,5.812500000000003553e+00,-7.375000000000003553e+00,-9.937500000000003553e+00,-4.750000000000001776e+00,-3.937500000000002665e+00,-5.000000000000000000e-01,6.125000000000003553e+00,1.062500000000000533e+01,4.875000000000001776e+00,-9.187500000000003553e+00,-1.331250000000000533e+01,-2.062500000000000000e+00,1.018750000000000533e+01,6.937500000000003553e+00,-6.250000000000001388e-02,2.750000000000001332e+00,-2.187500000000001332e+00,-1.012500000000000533e+01,-6.250000000000000000e-02,1.443750000000000711e+01,7.687500000000002665e+00,-1.037500000000000355e+01,-7.750000000000003553e+00,1.937500000000001332e+00,-7.750000000000002665e+00,-1.112500000000000533e+01,8.187500000000001776e+00,1.981250000000000711e+01,5.437500000000001776e+00,-6.187500000000003553e+00,2.937500000000001332e+00,5.125000000000002665e+00,6.250000000000000000e-02,2.312500000000000888e+00,-3.187500000000001776e+00,-6.062500000000003553e+00,4.062500000000001776e+00,3.437500000000001776e+00,-4.687500000000002665e+00,-1.125000000000000888e+00,7.062500000000002665e+00,6.312500000000002665e+00,-3.437500000000000888e+00,-5.750000000000001776e+00,-1.500000000000000888e+00,-2.875000000000001332e+00,8.125000000000008882e-01,4.750000000000002665e+00,3.187500000000001776e+00,6.937500000000002665e+00,2.937500000000000444e+00,-9.500000000000005329e+00,-5.250000000000002665e+00,4.375000000000001776e+00,-3.125000000000000444e+00,-4.125000000000000888e+00,8.937500000000003553e+00,3.062500000000001776e+00,-1.056250000000000533e+01,-3.750000000000008882e-01,1.175000000000000533e+01,7.937500000000003553e+00,6.249999999999997780e-01,-7.687500000000003553e+00,-7.812500000000003553e+00,1.250000000000000222e+00,5.937500000000002665e+00,1.312500000000000888e+00,-1.043750000000000355e+01,-8.812500000000003553e+00,7.875000000000003553e+00,1.462500000000000711e+01,5.250000000000002665e+00,-8.062500000000003553e+00,-7.937500000000003553e+00,6.250000000000006661e-01,3.187500000000001776e+00,1.875000000000000000e-01,-7.250000000000004441e+00,-2.750000000000001776e+00,1.050000000000000533e+01,3.937500000000001776e+00,-3.937500000000001776e+00,2.062500000000000888e+00,-4.062500000000002665e+00,-8.500000000000003553e+00,4.625000000000002665e+00,2.687500000000001776e+00,-7.125000000000003553e+00,5.000000000000001776e+00,1.000000000000000355e+01,-7.187500000000002665e+00,-1.181250000000000533e+01,1.937500000000000000e+00,1.087500000000000355e+01,2.312500000000000888e+00,-1.006250000000000533e+01,-6.875000000000017764e-01,8.375000000000003553e+00,-6.562500000000002665e+00,-7.375000000000002665e+00,1.318750000000000711e+01,9.875000000000003553e+00,-1.068750000000000355e+01,-6.250000000000001776e+00,9.000000000000005329e+00,1.062500000000000888e+00,-8.500000000000003553e+00,3.187500000000001776e+00,1.368750000000000711e+01,7.125000000000003553e+00,-6.562500000000003553e+00,-1.143750000000000533e+01,-2.562500000000000444e+00,7.937500000000003553e+00,6.437500000000002665e+00,-3.375000000000002665e+00,-7.187500000000004441e+00,-4.562500000000002665e+00,2.000000000000000888e+00,6.125000000000003553e+00,-3.812500000000002220e+00,-1.337500000000000711e+01,-3.625000000000001776e+00,8.312500000000003553e+00,-3.750000000000000000e-01,-7.437500000000002665e+00,6.812500000000002665e+00,1.375000000000000533e+01,4.312500000000001776e+00,1.687500000000001332e+00,3.500000000000001776e+00,-2.687500000000001776e+00,-1.150000000000000533e+01,-9.812500000000003553e+00,5.750000000000002665e+00,1.337500000000000533e+01,4.437500000000001776e+00,-5.000000000000001776e+00,-1.150000000000000533e+01,-1.106250000000000533e+01,-2.312500000000001332e+00,2.937500000000000888e+00,-2.500000000000004441e-01,-1.625000000000000888e+00,5.937500000000002665e+00,6.125000000000002665e+00,-1.312500000000000666e+00,-3.062500000000001332e+00,-3.375000000000001332e+00,4.625000000000001776e+00,1.568750000000000711e+01,5.625000000000001776e+00,-1.300000000000000533e+01,-9.125000000000003553e+00,3.312500000000001332e+00,-2.562500000000000444e+00,-7.250000000000002665e+00,1.187500000000000444e+00,4.375000000000001776e+00,-3.750000000000004441e-01,-3.687500000000001776e+00,-4.250000000000001776e+00,-5.812500000000001776e+00,-1.812500000000000444e+00,6.625000000000002665e+00,3.937500000000000888e+00,-2.750000000000001776e+00,5.000000000000002665e+00,1.112500000000000533e+01,-3.000000000000001776e+00,-8.437500000000003553e+00,6.375000000000003553e+00,4.187500000000001776e+00,-1.081250000000000533e+01,-1.875000000000000888e+00,1.268750000000000711e+01,2.625000000000001776e+00,-6.750000000000003553e+00,8.750000000000004441e-01,9.375000000000008882e-01,-5.000000000000001776e+00,-4.687500000000001776e+00,-2.562500000000000888e+00,6.375000000000003553e+00,8.500000000000003553e+00,-6.500000000000002665e+00,-1.043750000000000355e+01,-6.250000000000000000e-02,5.250000000000001776e+00,3.250000000000001332e+00,-5.500000000000001776e+00,-1.125000000000000355e+01,-6.187500000000003553e+00,3.375000000000001776e+00,1.206250000000000711e+01,9.312500000000003553e+00,-6.687500000000003553e+00,-9.500000000000003553e+00,7.437500000000003553e+00,8.812500000000003553e+00,-4.812500000000001776e+00,1.062500000000000888e+00,1.231250000000000711e+01,2.437500000000001776e+00,-1.150000000000000533e+01,-5.312500000000002665e+00,1.150000000000000355e+01,1.225000000000000355e+01,8.125000000000004441e-01,-5.125000000000001776e+00,-5.000000000000001776e+00,-3.687500000000001776e+00,-5.062500000000002665e+00,4.375000000000000000e-01,9.250000000000003553e+00,-1.562500000000000888e+00,-1.312500000000000711e+01,2.312500000000000000e+00,1.768750000000000711e+01,4.187500000000001776e+00,-1.306250000000000533e+01,-5.250000000000002665e+00,5.562500000000001776e+00,4.125000000000001776e+00,4.375000000000001776e+00,-1.187500000000000444e+00,-7.062500000000002665e+00,-1.250000000000000000e-01,-3.500000000000002665e+00,-2.025000000000000711e+01,-2.306250000000001066e+01,-8.500000000000005329e+00,4.875000000000002665e+00,1.412500000000000711e+01,2.481250000000001066e+01,2.400000000000001066e+01,1.418750000000000355e+01,8.625000000000001776e+00,6.250000000000004441e-01,-7.937500000000001776e+00,-1.450000000000000355e+01,-1.525000000000000711e+01,-3.562500000000001776e+00,5.000000000000000000e-01,-7.562500000000003553e+00,-1.006250000000000533e+01,-4.500000000000002665e+00,3.250000000000002220e+00,3.875000000000002220e+00,1.006250000000000355e+01,2.825000000000001066e+01,2.325000000000000711e+01,-1.562500000000002665e+00,3.750000000000000000e-01,1.962500000000000711e+01,7.125000000000001776e+00,-2.612500000000001066e+01,-3.187500000000001066e+01,-2.106250000000000711e+01,-3.081250000000001066e+01,-4.293750000000001421e+01,-3.887500000000001421e+01,-3.318750000000001421e+01,-5.250000000000001776e+00,3.687500000000001421e+01,4.056250000000001421e+01,3.675000000000001421e+01,5.875000000000002132e+01,5.175000000000002132e+01,6.000000000000005329e+00,-1.893750000000000711e+01,-1.550000000000000711e+01,-1.437500000000000711e+01,-1.093750000000000533e+01,-5.062500000000001776e+00,-9.250000000000003553e+00,-5.625000000000003553e+00,1.062500000000000533e+01,1.181250000000000711e+01,-6.187500000000001776e+00,-1.137500000000000533e+01,6.312500000000001776e+00,1.168750000000000533e+01,-1.812500000000001332e+00,-6.750000000000003553e+00,-6.562500000000003553e+00,-7.000000000000002665e+00,1.812500000000000888e+00,5.187500000000001776e+00,-6.375000000000003553e+00,-1.037500000000000533e+01,-5.875000000000003553e+00,-4.375000000000002665e+00,5.250000000000001776e+00,1.462500000000000711e+01,4.187500000000001776e+00,-7.562500000000003553e+00,2.687500000000001776e+00,1.393750000000000711e+01,2.500000000000001776e+00,-1.162500000000000533e+01,-4.437500000000001776e+00,9.812500000000005329e+00,6.500000000000003553e+00,-1.437500000000000444e+00,-9.375000000000002220e-01,-7.750000000000003553e+00,-7.625000000000003553e+00,7.125000000000003553e+00,3.062500000000001776e+00,-6.125000000000001776e+00,3.750000000000001332e+00,3.500000000000000444e+00,-6.312500000000003553e+00,-4.500000000000001776e+00,5.625000000000003331e-01,6.062500000000003553e+00,7.750000000000003553e+00,3.250000000000000888e+00,-3.250000000000001776e+00,-1.031250000000000533e+01,-5.000000000000002665e+00,3.750000000000002220e+00,2.937500000000001776e+00,4.500000000000001776e+00,6.250000000000000000e-01,-9.375000000000005329e+00,-3.937500000000002665e+00,1.018750000000000355e+01,9.125000000000003553e+00,-4.125000000000000888e+00,-8.625000000000003553e+00,-4.937500000000002665e+00,5.000000000000002220e-01,4.062500000000001776e+00,3.125000000000000000e-01,8.750000000000000000e-01,5.125000000000001776e+00,2.125000000000000888e+00,-3.500000000000001776e+00,-5.000000000000001776e+00,-2.125000000000000888e+00,1.625000000000000888e+00,7.625000000000002665e+00,5.437500000000001776e+00,-9.000000000000003553e+00,-8.125000000000003553e+00,8.312500000000003553e+00,9.750000000000003553e+00,-1.500000000000000888e+00,-9.062500000000003553e+00,-8.312500000000003553e+00,5.062500000000001776e+00,9.437500000000003553e+00,-5.687500000000002665e+00,-7.625000000000003553e+00,2.187500000000001332e+00,1.062500000000000888e+00,-6.875000000000001110e-01,2.750000000000001332e+00,4.625000000000001776e+00,4.000000000000001776e+00,-3.750000000000002220e-01,-4.500000000000001776e+00,-2.062500000000000444e+00,8.750000000000005551e-01,-1.750000000000000666e+00,-6.812500000000002665e+00,-4.187500000000001776e+00,7.375000000000003553e+00,5.312500000000002665e+00,-4.437500000000001776e+00,3.062500000000001776e+00,7.312500000000003553e+00,-3.750000000000001776e+00,-1.050000000000000355e+01,-4.250000000000000888e+00,9.125000000000003553e+00,6.625000000000002665e+00,-8.375000000000003553e+00,-5.500000000000002665e+00,3.625000000000002220e+00,1.250000000000000888e+00,1.812500000000000444e+00,8.000000000000003553e+00,6.062500000000001776e+00,-4.000000000000001776e+00,-6.187500000000002665e+00,-3.125000000000001776e+00,-4.937500000000001776e+00,1.750000000000000444e+00,7.562500000000002665e+00,-4.687500000000002665e+00,-7.187500000000003553e+00,8.062500000000003553e+00,6.187500000000002665e+00,-5.937500000000002665e+00,7.500000000000008882e-01,1.006250000000000355e+01,7.625000000000001776e+00,-8.125000000000013323e-01,-8.500000000000003553e+00,-5.312500000000001776e+00,-4.250000000000001776e+00,-1.056250000000000355e+01,-7.875000000000003553e+00,-1.625000000000000444e+00,5.250000000000001776e+00,9.375000000000003553e+00,-1.312500000000000000e+00,-3.937500000000001332e+00,9.250000000000003553e+00,6.375000000000002665e+00,-5.500000000000002665e+00,-3.500000000000001332e+00,5.000000000000003331e-01,2.375000000000000888e+00,2.500000000000000888e+00,-2.687500000000000888e+00,1.875000000000000888e+00,7.250000000000002665e+00,2.499999999999995559e-01,-8.750000000000008882e-01,-4.375000000000004441e-01,-1.812500000000000888e+00,5.000000000000001776e+00,3.687500000000001332e+00,-2.500000000000002220e-01,6.375000000000002665e+00,3.062500000000001776e+00,-3.437500000000001776e+00,8.000000000000001776e+00,9.875000000000005329e+00,-7.437500000000000888e+00,-7.375000000000001776e+00,1.000000000000000222e+00,-4.250000000000002665e+00,-3.125000000000002665e+00,2.937500000000000888e+00,-6.249999999999955591e-02,-3.125000000000002220e-01,1.125000000000000222e+00,-6.062500000000001776e+00,-6.000000000000001776e+00,1.187500000000000444e+00,-2.937500000000001332e+00,-1.687500000000000444e+00,9.437500000000003553e+00,2.250000000000000888e+00,-1.606250000000000711e+01,-1.300000000000000355e+01,3.812500000000000888e+00,5.812500000000001776e+00,4.125000000000001776e+00,6.750000000000003553e+00,-4.562500000000001776e+00,-1.306250000000000711e+01,-5.187500000000002665e+00,-1.250000000000000000e-01,5.375000000000001776e+00,8.625000000000003553e+00,-2.437500000000000444e+00,-4.250000000000001776e+00,3.312500000000001332e+00,5.625000000000000000e-01,3.562500000000001776e+00,9.125000000000003553e+00,3.250000000000001332e+00,-7.500000000000005551e-01,-3.937500000000001776e+00,-7.875000000000003553e+00,-4.562500000000001776e+00,-6.875000000000003331e-01,-7.500000000000001110e-01,-3.125000000000000888e+00,-7.062500000000003553e+00,-4.562500000000002665e+00,5.250000000000002665e+00,1.093750000000000355e+01,9.000000000000003553e+00,2.500000000000000000e-01,-5.750000000000003553e+00,-9.375000000000004441e-01,4.562500000000001776e+00,4.062500000000001776e+00,-5.562500000000003553e+00,-1.712500000000000711e+01,-1.193750000000000533e+01,2.250000000000000444e+00,5.812500000000003553e+00,2.812500000000001776e+00,5.875000000000001776e+00,1.037500000000000355e+01,2.062500000000000000e+00,-4.750000000000002665e+00,-6.250000000000000000e-01,-1.812500000000000666e+00,-3.750000000000004441e-01,3.187500000000001776e+00,-1.750000000000000222e+00,-3.750000000000001776e+00,-1.687500000000001332e+00,2.625000000000001332e+00,1.081250000000000533e+01,7.562500000000003553e+00,-8.500000000000003553e+00,-9.187500000000003553e+00,4.812500000000001776e+00,5.875000000000001776e+00,-4.625000000000001776e+00,-6.625000000000002665e+00,4.687500000000002665e+00,6.187500000000003553e+00,-5.562500000000002665e+00,-1.437500000000000888e+00,7.375000000000003553e+00,0.000000000000000000e+00,-1.000000000000000888e+00,5.562500000000002665e+00,-2.437500000000000000e+00,-1.131250000000000355e+01,-5.937500000000003553e+00,3.937500000000001332e+00,6.062500000000002665e+00,-1.125000000000000222e+00,-1.250000000000000000e-01,6.562500000000003553e+00,-6.250000000000000000e-02,-5.625000000000002665e+00,3.750000000000000000e-01,4.812500000000001776e+00,8.250000000000003553e+00,1.187500000000000533e+01,4.937500000000003553e+00,-9.312500000000003553e+00,-1.156250000000000533e+01,-6.250000000000008882e-01,1.250000000000000000e+00,-4.437500000000001776e+00,-6.250000000000000000e-02,3.812500000000001332e+00,-3.062500000000001332e+00,-5.250000000000001776e+00,1.875000000000001332e+00,2.187500000000001332e+00,-5.250000000000001776e+00,-8.125000000000003553e+00,-1.937500000000000888e+00,7.937500000000003553e+00,1.056250000000000355e+01,3.375000000000001776e+00,-7.125000000000003553e+00,-5.875000000000003553e+00,7.312500000000003553e+00,4.625000000000002665e+00,-8.750000000000003553e+00,-4.437500000000002665e+00,2.437500000000000888e+00,-6.875000000000003331e-01,4.562500000000001776e+00,1.337500000000000711e+01,1.081250000000000533e+01,1.062500000000000444e+00,-8.875000000000005329e+00,-7.250000000000003553e+00,3.125000000000001776e+00,-6.875000000000000000e-01,-5.312500000000001776e+00,2.250000000000000888e+00,1.312500000000000222e+00,1.375000000000000222e+00,7.187500000000003553e+00,3.625000000000001776e+00,8.125000000000011102e-01,-2.125000000000000000e+00,-1.043750000000000533e+01,-6.375000000000002665e+00,6.750000000000002665e+00,6.187500000000001776e+00,1.375000000000001110e+00,1.937500000000001332e+00,-2.937500000000001776e+00,-4.440892098500626162e-16,6.250000000000002665e+00,-1.000000000000000888e+00,5.062500000000003553e+00,1.562500000000000711e+01,-3.750000000000002665e+00,-2.225000000000000711e+01,-1.406250000000000355e+01,-2.437500000000000888e+00,2.500000000000001110e-01,-1.250000000000000833e-01,-3.125000000000001665e-01,-6.250000000000002776e-02,6.250000000000002776e-02,0.000000000000000000e+00,1.250000000000000555e-01,1.250000000000000555e-01,0.000000000000000000e+00,6.250000000000002776e-02,0.000000000000000000e+00,-1.875000000000000833e-01,-1.875000000000000833e-01,1.250000000000000833e-01,3.750000000000002220e-01,0.000000000000000000e+00,-3.750000000000002220e-01,-1.250000000000000833e-01,6.250000000000002776e-02,-6.250000000000002776e-02,6.250000000000002776e-02,3.125000000000001665e-01,1.875000000000001110e-01,-1.875000000000001110e-01,-3.125000000000001665e-01,-6.250000000000002776e-02,0.000000000000000000e+00,-1.875000000000000833e-01,1.250000000000000555e-01,4.375000000000002220e-01,-6.625000000000003553e+00,-1.950000000000001066e+01,-1.650000000000000711e+01,-5.624999999999982236e-01,6.062500000000003553e+00,6.750000000000001776e+00,3.937500000000001776e+00,-7.812500000000004441e+00,-1.031250000000000533e+01,5.375000000000003553e+00,1.118750000000000533e+01,6.812500000000001776e+00,9.187500000000003553e+00,1.937500000000001332e+00,-7.062500000000003553e+00,-2.625000000000001776e+00,-2.437500000000001776e+00,-5.500000000000003553e+00,5.625000000000000000e-01,5.687500000000002665e+00,5.937500000000002665e+00,8.687500000000003553e+00,2.500000000000000444e+00,-1.175000000000000533e+01,-7.250000000000003553e+00,9.250000000000003553e+00,6.625000000000003553e+00,-3.187500000000000888e+00,3.312500000000000888e+00,4.812500000000001776e+00,-7.375000000000002665e+00,-9.437500000000003553e+00,1.812500000000000888e+00,1.081250000000000355e+01,4.625000000000001776e+00,-3.250000000000001776e+00,5.312500000000002665e+00,8.687500000000003553e+00,-4.562500000000002665e+00,-1.300000000000000711e+01,-4.687500000000001776e+00,8.500000000000003553e+00,3.750000000000002220e+00,-4.312500000000001776e+00,3.875000000000001776e+00,2.750000000000001776e+00,-3.250000000000001332e+00,2.937500000000001332e+00,-9.375000000000000000e-01,-9.187500000000003553e+00,-5.312500000000001776e+00,1.875000000000001332e+00,7.562500000000003553e+00,4.000000000000001776e+00,-5.250000000000001776e+00,-8.812500000000003553e+00,-6.250000000000003553e+00,2.562500000000002220e+00,6.625000000000003553e+00,3.750000000000001332e+00,7.499999999999998890e-01,-6.062500000000003553e+00,-2.125000000000000888e+00,1.325000000000000711e+01,9.562500000000005329e+00,-7.812500000000003553e+00,-1.306250000000000711e+01,-3.500000000000001776e+00,1.293750000000000711e+01,1.425000000000000711e+01,-2.937500000000001776e+00,-7.625000000000004441e+00,-2.812500000000001776e+00,-6.625000000000002665e+00,-1.625000000000000000e+00,1.043750000000000533e+01,7.000000000000003553e+00,-6.687500000000003553e+00,-7.125000000000003553e+00,9.062500000000003553e+00,9.250000000000003553e+00,-6.687500000000002665e+00,-3.437500000000001332e+00,2.000000000000000888e+00,-7.750000000000003553e+00,-3.687500000000001776e+00,1.093750000000000533e+01,8.312500000000003553e+00,-2.250000000000001332e+00,1.625000000000000444e+00,5.312500000000001776e+00,-8.375000000000003553e+00,-1.206250000000000355e+01,3.875000000000002665e+00,1.100000000000000533e+01,4.812500000000002665e+00,-3.937500000000001332e+00,-4.812500000000002665e+00,5.562500000000001776e+00,3.187500000000001776e+00,-7.500000000000002665e+00,5.000000000000000000e-01,5.625000000000001776e+00,-4.062500000000001776e+00,-1.687500000000000444e+00,9.500000000000005329e+00,9.500000000000005329e+00,2.250000000000001332e+00,-4.187500000000001776e+00,-6.812500000000003553e+00,-4.375000000000004441e-01,5.062500000000001776e+00,-3.250000000000002220e+00,-1.206250000000000533e+01,-6.250000000000002665e+00,6.937500000000002665e+00,1.218750000000000533e+01,5.312500000000002665e+00,-3.187500000000001332e+00,-3.062500000000001332e+00,1.937500000000000444e+00,-8.750000000000004441e-01,-8.437500000000003553e+00,-3.437500000000000888e+00,4.000000000000001776e+00,-1.812500000000000888e+00,1.875000000000004441e-01,1.400000000000000533e+01,1.206250000000000355e+01,-7.125000000000003553e+00,-2.000000000000000711e+01,-8.750000000000001776e+00,9.437500000000005329e+00,4.812500000000001776e+00,-6.250000000000000000e-01,9.812500000000005329e+00,9.375000000000000000e-01,-1.850000000000000711e+01,-6.750000000000001776e+00,9.750000000000003553e+00,-2.125000000000001776e+00,-1.268750000000000711e+01,-6.125000000000003553e+00,2.312500000000000888e+00,7.187500000000003553e+00,1.312500000000000000e+00,-5.312500000000002665e+00,4.187500000000002665e+00,7.875000000000003553e+00,-5.062500000000003553e+00,-6.687500000000003553e+00,2.937500000000001776e+00,1.000000000000000888e+00,-1.125000000000000444e+00,4.250000000000001776e+00,4.375000000000004441e-01,-4.937500000000001776e+00,-2.625000000000000888e+00,1.187500000000000444e+00,3.312500000000001776e+00,1.250000000000002220e-01,-2.625000000000001332e+00,-3.500000000000001776e+00,-4.125000000000001776e+00,6.250000000000000000e-02,5.562500000000002665e+00,6.125000000000002665e+00,5.625000000000000000e-01,-5.437500000000002665e+00,-8.375000000000003553e+00,-1.187500000000000000e+00,1.050000000000000355e+01,3.875000000000000888e+00,-2.875000000000001776e+00,4.562500000000001776e+00,-2.125000000000000888e+00,-9.812500000000003553e+00,3.250000000000001776e+00,5.812500000000003553e+00,-4.187500000000001776e+00,-3.750000000000004441e-01,2.937500000000001332e+00,1.437500000000000888e+00,2.812500000000001776e+00,-5.437500000000002665e+00,-7.312500000000003553e+00,4.687500000000001776e+00,1.875000000000000000e+00,-4.625000000000001776e+00,7.062500000000003553e+00,1.062500000000000355e+01,-3.437500000000001776e+00,-8.812500000000003553e+00,-4.812500000000002665e+00,-6.000000000000003553e+00,-2.312500000000001776e+00,8.750000000000003553e+00,8.000000000000003553e+00,3.500000000000001776e+00,4.312500000000001776e+00,-5.687500000000002665e+00,-1.143750000000000533e+01,2.375000000000000888e+00,8.937500000000003553e+00,4.562500000000001776e+00,1.000000000000000666e+00,-9.062500000000003553e+00,-6.750000000000002665e+00,8.687500000000003553e+00,1.875000000000001776e+00,-6.250000000000001776e+00,5.250000000000003553e+00,3.312500000000002220e+00,-3.562500000000001332e+00,8.750000000000007772e-01,-4.875000000000002665e+00,-4.125000000000002665e+00,9.062500000000003553e+00,3.562500000000001776e+00,-5.062500000000002665e+00,-3.062500000000001332e+00,-4.437500000000001776e+00,-1.875000000000000000e-01,5.125000000000001776e+00,8.125000000000004441e-01,-2.750000000000000888e+00,-4.375000000000002220e-01,7.312500000000003553e+00,8.625000000000003553e+00,-5.375000000000002665e+00,-1.506250000000000711e+01,-2.687500000000001776e+00,1.387500000000000533e+01,8.937500000000003553e+00,-1.000000000000000355e+01,-2.556250000000001066e+01,-1.812500000000000711e+01
2.175000000000000711e+01,2.200000000000000711e+01,-2.150000000000000711e+01,7.750000000000001776e+00,3.000000000000000888e+00,5.000000000000000888e+00,-3.000000000000000888e+00,-1.100000000000000178e+01,1.425000000000000355e+01,-1.500000000000000000e+00,-1.550000000000000355e+01,1.650000000000000355e+01,-6.000000000000001776e+00,-1.150000000000000178e+01,1.950000000000000355e+01,-1.950000000000000355e+01,1.725000000000000355e+01,-1.425000000000000355e+01,1.000000000000000355e+01,6.500000000000000888e+00,-7.000000000000000888e+00,-8.250000000000001776e+00,1.025000000000000178e+01,-4.250000000000000888e+00,-8.500000000000001776e+00,1.650000000000000355e+01,-7.500000000000001776e+00,-6.750000000000000888e+00,9.250000000000001776e+00,-6.500000000000001776e+00,1.175000000000000178e+01,-9.000000000000001776e+00,7.750000000000001776e+00,-4.000000000000000888e+00,-2.000000000000000444e+00,7.250000000000001776e+00,-1.025000000000000178e+01,-4.250000000000000888e+00,1.275000000000000355e+01,-7.750000000000001776e+00,-6.000000000000001776e+00,1.575000000000000355e+01,-1.525000000000000355e+01,1.875000000000000711e+01,-1.000000000000000355e+01,-2.250000000000000444e+00,1.275000000000000355e+01,2.250000000000000000e+00,-1.825000000000000355e+01,2.750000000000000711e+01,-2.850000000000000711e+01,-5.500000000000000888e+00,2.225000000000000711e+01,-1.900000000000000711e+01,6.500000000000001776e+00,-1.225000000000000178e+01,1.275000000000000178e+01,1.500000000000000222e+00,-6.000000000000001776e+00,-6.500000000000000888e+00,1.350000000000000355e+01,-1.650000000000000355e+01,1.625000000000000355e+01,-1.250000000000000444e+00,-1.175000000000000178e+01,1.500000000000000355e+01,-1.050000000000000178e+01,-3.500000000000000888e+00,1.500000000000000355e+01,-1.250000000000000888e+00,-1.100000000000000355e+01,-1.750000000000000000e+00,1.800000000000000355e+01,-1.275000000000000178e+01,-7.000000000000001776e+00,1.900000000000000355e+01,-1.325000000000000355e+01,-5.000000000000000888e+00,1.750000000000000000e+00,3.750000000000000888e+00,8.000000000000001776e+00,-8.000000000000001776e+00,1.500000000000000444e+00,-7.000000000000001776e+00,1.925000000000000355e+01,-2.175000000000000355e+01,1.350000000000000178e+01,5.750000000000001776e+00,-1.750000000000000355e+01,1.000000000000000178e+01,-3.500000000000000888e+00,8.250000000000001776e+00,-1.400000000000000355e+01,4.500000000000000888e+00,1.525000000000000355e+01,-1.725000000000000355e+01,-1.250000000000000000e+00,1.450000000000000355e+01,-1.425000000000000355e+01,5.000000000000001776e+00,-4.000000000000001776e+00,1.175000000000000355e+01,-1.125000000000000178e+01,1.250000000000000355e+01,-2.125000000000000711e+01,1.875000000000000355e+01,-9.750000000000001776e+00,1.350000000000000355e+01,-2.150000000000000711e+01,1.350000000000000355e+01,5.000000000000000888e+00,-5.500000000000000888e+00,-1.250000000000000355e+01,1.600000000000000355e+01,-7.500000000000001776e+00,3.500000000000000888e+00,1.325000000000000355e+01,-1.425000000000000355e+01,-6.500000000000001776e+00,1.600000000000000355e+01,2.500000000000000000e-01,-1.150000000000000355e+01,2.000000000000000444e+00,7.250000000000001776e+00,-1.575000000000000355e+01,1.125000000000000178e+01,-5.750000000000000888e+00,1.400000000000000355e+01,-1.750000000000000000e+00,-1.375000000000000355e+01,8.500000000000001776e+00,1.025000000000000355e+01,-1.950000000000000711e+01,9.750000000000001776e+00,3.750000000000001332e+00,2.500000000000000000e-01,-5.500000000000001776e+00,-1.450000000000000355e+01,2.125000000000000711e+01,-1.875000000000000355e+01,9.500000000000001776e+00,8.250000000000001776e+00,-1.025000000000000355e+01,-4.500000000000000888e+00,7.500000000000001776e+00,-1.000000000000000178e+01,4.250000000000000000e+00,1.750000000000000888e+00,-2.000000000000000888e+00,1.500000000000000355e+01,-1.675000000000000355e+01,2.750000000000000888e+00,-5.250000000000000888e+00,3.250000000000000000e+00,1.600000000000000355e+01,-2.450000000000000711e+01,2.200000000000000711e+01,-8.500000000000001776e+00,-5.000000000000001776e+00,-1.250000000000000000e+00,6.500000000000001776e+00,9.750000000000001776e+00,-1.025000000000000178e+01,-1.150000000000000355e+01,2.050000000000000711e+01,-1.275000000000000355e+01,-8.000000000000001776e+00,7.000000000000001776e+00,6.000000000000001776e+00,1.150000000000000178e+01,-2.275000000000000711e+01,1.275000000000000355e+01,8.750000000000001776e+00,-2.025000000000000355e+01,2.075000000000000355e+01,-9.000000000000001776e+00,-7.000000000000001776e+00,6.500000000000001776e+00,7.000000000000001776e+00,-1.375000000000000355e+01,7.750000000000001776e+00,-1.750000000000000444e+00,4.000000000000000888e+00,5.500000000000000888e+00,-2.150000000000000711e+01,2.500000000000000711e+01,-2.000000000000000711e+01,4.500000000000000888e+00,1.200000000000000355e+01,-1.675000000000000355e+01,1.600000000000000355e+01,-3.250000000000000888e+00,-2.500000000000000000e-01,-1.500000000000000355e+01,2.050000000000000355e+01,-8.750000000000001776e+00,-1.025000000000000178e+01,1.400000000000000355e+01,3.500000000000000888e+00,-1.250000000000000355e+01,-4.500000000000000888e+00,2.275000000000000711e+01,-1.900000000000000355e+01,1.700000000000000355e+01,-8.750000000000003553e+00,-1.125000000000000355e+01,1.775000000000000355e+01,-1.675000000000000355e+01,1.925000000000000711e+01,-1.250000000000000355e+01,-1.100000000000000178e+01,1.700000000000000355e+01,-6.500000000000001776e+00,1.200000000000000178e+01,-7.500000000000000888e+00,-1.200000000000000355e+01,1.925000000000000355e+01,-1.875000000000000355e+01,1.750000000000000355e+01,-9.750000000000001776e+00,-9.500000000000001776e+00,1.625000000000000355e+01,2.500000000000000000e+00,-1.775000000000000355e+01,1.625000000000000355e+01,-5.000000000000000000e-01,-1.875000000000000355e+01,1.450000000000000355e+01,6.250000000000000888e+00,-1.800000000000000355e+01,6.000000000000001776e+00,1.600000000000000355e+01,-1.425000000000000355e+01,-5.000000000000000888e+00,6.750000000000000888e+00,-3.250000000000000888e+00,1.450000000000000355e+01,-1.700000000000000355e+01,-3.500000000000000888e+00,2.100000000000000711e+01,-1.225000000000000355e+01,-1.250000000000000355e+01,1.675000000000000355e+01,6.500000000000000888e+00,-1.150000000000000178e+01,-8.000000000000001776e+00,1.550000000000000355e+01,5.000000000000000000e-01,-1.550000000000000355e+01,9.250000000000001776e+00,4.500000000000001776e+00,7.500000000000000000e-01,3.250000000000000000e+00,-1.625000000000000355e+01,1.175000000000000355e+01,-9.000000000000001776e+00,1.700000000000000355e+01,-1.300000000000000355e+01,0.000000000000000000e+00,5.500000000000001776e+00,-1.575000000000000355e+01,2.475000000000000711e+01,-1.850000000000000355e+01,7.500000000000001776e+00,-1.750000000000000355e+01,2.075000000000000711e+01,-4.000000000000000888e+00,-1.275000000000000355e+01,8.000000000000001776e+00,1.000000000000000178e+01,-5.750000000000001776e+00,-1.250000000000000000e+00,8.750000000000001776e+00,-7.750000000000001776e+00,3.250000000000000444e+00,-1.100000000000000178e+01,7.500000000000000000e-01,1.850000000000000355e+01,-1.475000000000000355e+01,9.500000000000001776e+00,-6.500000000000001776e+00,-1.050000000000000178e+01,1.175000000000000355e+01,-1.175000000000000355e+01,1.575000000000000355e+01,-1.725000000000000355e+01,8.750000000000001776e+00,1.075000000000000178e+01,-1.850000000000000355e+01,1.625000000000000355e+01,-1.100000000000000355e+01,-2.500000000000000888e+00,1.600000000000000355e+01,-2.750000000000000000e+00,-1.250000000000000000e+00,-1.750000000000000355e+01,2.050000000000000355e+01,-5.750000000000000888e+00,-1.550000000000000355e+01,2.175000000000000711e+01,-2.050000000000000355e+01,2.400000000000000711e+01,-2.700000000000000711e+01,2.275000000000000711e+01,-1.925000000000000355e+01,7.500000000000000888e+00,-1.750000000000000000e+00,9.000000000000001776e+00,-9.750000000000001776e+00,2.500000000000000000e-01,1.225000000000000355e+01,-5.000000000000000000e-01,-1.825000000000000355e+01,1.475000000000000355e+01,6.500000000000000888e+00,-1.550000000000000355e+01,-1.000000000000000000e+00,1.300000000000000355e+01,2.000000000000000000e+00,-1.575000000000000355e+01,1.050000000000000178e+01,4.500000000000001776e+00,-1.650000000000000355e+01,1.650000000000000355e+01,-1.550000000000000355e+01,5.750000000000001776e+00,1.025000000000000178e+01,-4.500000000000000888e+00,-1.700000000000000355e+01,2.225000000000000711e+01,-2.100000000000000711e+01,2.275000000000000711e+01,-1.600000000000000355e+01,2.250000000000000000e+00,-5.000000000000000888e+00,2.750000000000000888e+00,1.250000000000000000e+00,9.750000000000001776e+00,-4.250000000000000888e+00,-1.200000000000000178e+01,6.500000000000000888e+00,1.525000000000000355e+01,-1.800000000000000355e+01,1.750000000000000888e+00,1.425000000000000355e+01,-6.500000000000001776e+00,7.500000000000004441e-01,-1.300000000000000355e+01,1.325000000000000355e+01,7.250000000000000888e+00,-1.125000000000000178e+01,1.050000000000000178e+01,-1.350000000000000355e+01,8.250000000000001776e+00,-2.750000000000000444e+00,-9.750000000000001776e+00,1.575000000000000355e+01,0.000000000000000000e+00,-1.575000000000000355e+01,3.500000000000000888e+00,1.225000000000000355e+01,2.250000000000000000e+00,-1.000000000000000178e+01,-9.250000000000001776e+00,2.350000000000000711e+01,-2.175000000000000711e+01,1.525000000000000355e+01,1.250000000000000000e+00,-1.550000000000000355e+01,1.050000000000000355e+01,2.500000000000000888e+00,-1.275000000000000355e+01,-4.500000000000000000e+00,-7.000000000000001776e+00,1.125000000000000178e+01,-6.250000000000001776e+00,9.500000000000003553e+00,1.800000000000000355e+01,-1.600000000000000355e+01,2.025000000000000355e+01,-9.750000000000001776e+00,-2.000000000000000000e+00,4.000000000000000000e+00,-1.700000000000000355e+01,3.750000000000000444e+00,1.200000000000000178e+01,-2.075000000000000355e+01,1.500000000000000355e+01,-1.750000000000000355e+01,1.075000000000000355e+01,4.750000000000000888e+00,-1.550000000000000355e+01,2.350000000000000711e+01,9.500000000000001776e+00,-8.750000000000001776e+00,-7.500000000000000888e+00,1.475000000000000355e+01,1.300000000000000355e+01,-2.325000000000000711e+01,-8.000000000000001776e+00,2.500000000000000555e-01,-5.000000000000001110e-01,-2.850000000000000711e+01,7.500000000000000000e-01,-2.000000000000000000e+00,-3.750000000000000711e+01,5.475000000000001421e+01,-7.750000000000000000e+00,2.000000000000000000e+00,1.925000000000000355e+01,3.425000000000000711e+01,-1.775000000000000355e+01,-6.500000000000001776e+00,2.500000000000000000e-01,-1.000000000000000000e+00,-1.575000000000000355e+01,1.700000000000000355e+01,-1.350000000000000178e+01,-4.250000000000001776e+00,8.750000000000001776e+00,5.000000000000001776e+00,5.000000000000000000e-01,-1.550000000000000355e+01,5.500000000000001776e+00,1.850000000000000355e+01,-2.025000000000000355e+01,1.025000000000000355e+01,-6.250000000000001776e+00,-1.000000000000000222e+00,-5.500000000000001776e+00,1.475000000000000355e+01,-8.500000000000001776e+00,-1.075000000000000178e+01,1.500000000000000355e+01,-1.775000000000000355e+01,9.000000000000003553e+00,3.750000000000000888e+00,8.000000000000001776e+00,-1.425000000000000355e+01,1.750000000000000888e+00,1.250000000000000355e+01,-7.500000000000000000e-01,-9.000000000000001776e+00,-1.250000000000000444e+00,3.000000000000000888e+00,1.450000000000000355e+01,-2.275000000000000711e+01,1.925000000000000355e+01,-7.250000000000001776e+00,-1.375000000000000178e+01,1.325000000000000178e+01,8.750000000000001776e+00,-2.375000000000000711e+01,1.550000000000000355e+01,7.750000000000001776e+00,-2.275000000000000711e+01,2.025000000000000711e+01,-1.625000000000000355e+01,8.750000000000001776e+00,6.500000000000001776e+00,-9.500000000000001776e+00,1.125000000000000178e+01,-9.750000000000001776e+00,-1.000000000000000178e+01,2.175000000000000355e+01,-1.925000000000000355e+01,1.125000000000000178e+01,5.250000000000001776e+00,-1.525000000000000355e+01,6.250000000000001776e+00,-3.250000000000000888e+00,1.550000000000000355e+01,-1.150000000000000178e+01,-3.750000000000000888e+00,8.750000000000001776e+00,-1.650000000000000355e+01,2.025000000000000355e+01,-1.125000000000000178e+01,-3.000000000000000444e+00,1.625000000000000355e+01,-1.875000000000000355e+01,2.125000000000000711e+01,-2.600000000000000711e+01,2.125000000000000711e+01,-1.525000000000000355e+01,7.750000000000001776e+00,8.000000000000001776e+00,-8.250000000000001776e+00,-9.000000000000001776e+00,9.750000000000001776e+00,7.500000000000001776e+00,-1.100000000000000178e+01,8.000000000000001776e+00,-1.175000000000000355e+01,-7.500000000000000000e-01,1.925000000000000711e+01,-1.325000000000000355e+01,-1.000000000000000178e+01,2.050000000000000355e+01,-1.875000000000000355e+01,1.400000000000000355e+01,-1.125000000000000355e+01,1.275000000000000355e+01,-9.750000000000003553e+00,1.200000000000000355e+01,-1.325000000000000355e+01,5.750000000000000888e+00,2.500000000000002220e-01,-2.750000000000000888e+00,3.250000000000000888e+00,-1.025000000000000178e+01,5.000000000000000888e+00,1.450000000000000355e+01,-2.075000000000000355e+01,7.500000000000001776e+00,1.375000000000000178e+01,-1.925000000000000355e+01,1.450000000000000355e+01,-2.000000000000000711e+01,1.425000000000000355e+01,7.250000000000001776e+00,-1.250000000000000355e+01,-4.000000000000000888e+00,1.425000000000000355e+01,-1.225000000000000355e+01,6.500000000000001776e+00,-5.000000000000001110e-01,5.000000000000000888e+00,1.250000000000000888e+00,-1.525000000000000355e+01,1.800000000000000355e+01,-1.525000000000000355e+01,2.500000000000000000e-01,1.400000000000000355e+01,-7.500000000000001776e+00,-9.500000000000001776e+00,8.000000000000001776e+00,1.225000000000000178e+01,-1.925000000000000355e+01,5.750000000000001776e+00,1.175000000000000178e+01,-1.375000000000000355e+01,2.100000000000000355e+01,-2.375000000000000711e+01,9.000000000000001776e+00,2.250000000000000444e+00,-1.025000000000000355e+01,-1.750000000000000000e+00,8.250000000000001776e+00,-1.525000000000000355e+01,2.225000000000000711e+01,-7.750000000000001776e+00,-1.225000000000000355e+01,1.650000000000000355e+01,5.000000000000000000e-01,-7.250000000000001776e+00,-2.250000000000000444e+00,1.200000000000000355e+01,-2.000000000000000711e+01,2.625000000000000711e+01,-2.125000000000000711e+01,5.500000000000001776e+00,9.750000000000001776e+00,-5.750000000000001776e+00,-7.250000000000001776e+00,2.000000000000000355e+01,-2.675000000000000711e+01,2.000000000000000711e+01,5.000000000000000000e-01,-1.500000000000000355e+01,1.850000000000000355e+01,-7.000000000000000888e+00,2.000000000000000888e+00,-1.275000000000000355e+01,3.475000000000000711e+01,-3.150000000000000711e+01,6.000000000000001776e+00,9.000000000000003553e+00,-1.025000000000000355e+01,-1.500000000000000444e+00,8.500000000000001776e+00,-5.500000000000000888e+00,-1.000000000000000444e+00,4.250000000000001776e+00,1.250000000000000000e+00,-1.650000000000000355e+01,1.825000000000000355e+01,-7.250000000000001776e+00,-1.100000000000000178e+01,1.925000000000000355e+01,-7.000000000000000888e+00,1.500000000000000000e+00,-2.100000000000000355e+01,1.950000000000000355e+01,-3.000000000000000888e+00,-7.250000000000001776e+00,1.325000000000000355e+01,-5.000000000000000000e-01,-1.850000000000000711e+01,1.300000000000000355e+01,-4.500000000000000888e+00,-6.250000000000000888e+00,1.800000000000000355e+01,-8.000000000000001776e+00,-1.200000000000000355e+01,2.050000000000000711e+01,-1.300000000000000355e+01,-1.750000000000000888e+00,1.725000000000000355e+01,-1.275000000000000178e+01,4.000000000000000888e+00,6.250000000000001776e+00,-1.825000000000000355e+01,1.650000000000000355e+01,-1.700000000000000355e+01,1.750000000000000355e+01,-1.850000000000000355e+01,1.750000000000000355e+01,-2.450000000000000711e+01,2.125000000000000355e+01,-7.750000000000001776e+00,5.000000000000000888e+00,9.750000000000001776e+00,-2.325000000000000711e+01,2.325000000000000711e+01,-2.050000000000000355e+01,2.200000000000000355e+01,-1.650000000000000355e+01,9.000000000000001776e+00,-2.675000000000000355e+01,2.850000000000000355e+01,-2.075000000000000355e+01,1.900000000000000355e+01,-1.550000000000000355e+01,1.375000000000000178e+01,6.250000000000001776e+00,-2.300000000000000711e+01,2.325000000000000711e+01,-1.275000000000000355e+01,-5.250000000000000888e+00,2.025000000000000355e+01,-2.325000000000000711e+01,1.800000000000000355e+01,-1.525000000000000355e+01,1.075000000000000178e+01,-7.000000000000001776e+00,1.700000000000000355e+01,-1.050000000000000178e+01,-1.250000000000000355e+01,1.800000000000000711e+01,-8.750000000000001776e+00,6.750000000000001776e+00,-1.050000000000000355e+01,0.000000000000000000e+00,1.825000000000000355e+01,-1.900000000000000355e+01,1.750000000000000888e+00,1.175000000000000355e+01,-5.500000000000001776e+00,-7.000000000000001776e+00,1.225000000000000355e+01,-7.500000000000008882e-01,-1.475000000000000355e+01,1.175000000000000178e+01,-1.300000000000000178e+01,1.750000000000000355e+01,-8.500000000000001776e+00,-6.500000000000001776e+00,1.550000000000000355e+01,-7.000000000000001776e+00,-4.250000000000000888e+00,3.250000000000000888e+00,2.500000000000000888e+00,-4.000000000000000888e+00,1.150000000000000178e+01,-2.250000000000000000e+00,1.000000000000000000e+00,-1.275000000000000355e+01,5.250000000000000888e+00,7.500000000000001776e+00,-1.400000000000000355e+01,7.750000000000001776e+00,0.000000000000000000e+00,1.750000000000000444e+00,-8.750000000000001776e+00,4.500000000000000888e+00,6.500000000000000888e+00,-1.225000000000000355e+01,9.500000000000003553e+00,-1.600000000000000355e+01,1.700000000000000355e+01,-5.500000000000001776e+00,6.250000000000001776e+00,-1.750000000000000000e+00,-1.200000000000000355e+01,1.050000000000000178e+01,7.250000000000001776e+00,-1.300000000000000355e+01,-3.000000000000000888e+00,1.550000000000000355e+01,-1.700000000000000355e+01,9.750000000000001776e+00,1.250000000000000222e+00,7.250000000000001776e+00,-5.000000000000000888e+00,5.000000000000000888e+00,-1.600000000000000355e+01,1.125000000000000355e+01,7.000000000000000888e+00,-2.400000000000000711e+01,2.225000000000000711e+01,-5.500000000000000888e+00,-1.350000000000000355e+01,2.725000000000000711e+01,-2.275000000000000355e+01,1.575000000000000355e+01,-7.500000000000000888e+00,2.500000000000000888e+00,-1.375000000000000355e+01,1.250000000000000355e+01,4.500000000000000888e+00,-1.350000000000000355e+01,1.550000000000000355e+01,-6.000000000000000888e+00,-1.175000000000000355e+01,2.275000000000000711e+01,-1.200000000000000355e+01,-1.050000000000000355e+01,3.075000000000000711e+01,-1.450000000000000533e+01,-1.000000000000000178e+01,-5.000000000000001110e-01,2.500000000000000555e-01,2.500000000000000555e-01,-2.500000000000000555e-01,0.000000000000000000e+00,-2.500000000000000555e-01,5.000000000000001110e-01,-5.000000000000001110e-01,2.500000000000000555e-01,2.500000000000000555e-01,-5.000000000000001110e-01,5.000000000000001110e-01,-2.500000000000000555e-01,0.000000000000000000e+00,0.000000000000000000e+00,-2.500000000000000555e-01,5.000000000000001110e-01,0.000000000000000000e+00,-5.000000000000001110e-01,2.500000000000000555e-01,0.000000000000000000e+00,0.000000000000000000e+00,-2.500000000000000555e-01,5.000000000000001110e-01,-2.500000000000000555e-01,2.500000000000000555e-01,-5.000000000000001110e-01,2.500000000000000555e-01,0.000000000000000000e+00,0.000000000000000000e+00,-5.000000000000001110e-01,1.000000000000000222e+00,-5.000000000000001110e-01,-2.500000000000000555e-01,-2.600000000000000711e+01,2.850000000000000711e+01,-2.250000000000000355e+01,2.100000000000000355e+01,-1.275000000000000355e+01,1.350000000000000355e+01,-2.325000000000000355e+01,1.075000000000000178e+01,1.400000000000000355e+01,-1.950000000000000355e+01,1.900000000000000355e+01,1.500000000000000444e+00,-1.925000000000000355e+01,1.925000000000000355e+01,-1.475000000000000355e+01,8.500000000000001776e+00,-1.300000000000000355e+01,1.875000000000000355e+01,-1.400000000000000355e+01,9.750000000000001776e+00,6.750000000000001776e+00,-1.350000000000000355e+01,-1.500000000000000000e+00,3.250000000000000888e+00,1.425000000000000355e+01,-2.000000000000000355e+01,9.500000000000001776e+00,9.000000000000001776e+00,-1.400000000000000355e+01,3.250000000000000888e+00,-4.000000000000000888e+00,5.750000000000001776e+00,9.250000000000001776e+00,-1.550000000000000355e+01,6.000000000000001776e+00,1.325000000000000178e+01,-1.500000000000000355e+01,6.750000000000001776e+00,-1.425000000000000178e+01,1.125000000000000178e+01,9.750000000000001776e+00,-2.225000000000000711e+01,1.475000000000000355e+01,7.000000000000001776e+00,-2.175000000000000711e+01,1.925000000000000711e+01,-2.250000000000000888e+00,-1.475000000000000355e+01,1.350000000000000355e+01,-1.250000000000000355e+01,9.000000000000001776e+00,7.250000000000001776e+00,-1.625000000000000355e+01,1.400000000000000355e+01,-1.750000000000000355e+01,8.500000000000003553e+00,6.250000000000001776e+00,-9.750000000000001776e+00,1.150000000000000355e+01,-6.000000000000001776e+00,-9.250000000000001776e+00,1.250000000000000178e+01,9.500000000000001776e+00,-1.700000000000000355e+01,8.500000000000001776e+00,-1.375000000000000355e+01,1.025000000000000355e+01,1.050000000000000178e+01,-5.250000000000000888e+00,-1.225000000000000355e+01,1.650000000000000355e+01,-1.250000000000000355e+01,-6.000000000000000888e+00,1.875000000000000355e+01,-1.200000000000000355e+01,1.375000000000000355e+01,-2.400000000000000711e+01,1.600000000000000355e+01,8.500000000000001776e+00,-1.150000000000000178e+01,-8.000000000000001776e+00,2.425000000000000711e+01,-2.525000000000000711e+01,7.000000000000000888e+00,3.500000000000000888e+00,6.000000000000001776e+00,-4.000000000000001776e+00,-7.750000000000001776e+00,1.850000000000000355e+01,-1.100000000000000355e+01,-1.075000000000000178e+01,9.250000000000001776e+00,4.750000000000000888e+00,-5.000000000000000888e+00,9.250000000000001776e+00,-1.600000000000000355e+01,8.000000000000001776e+00,1.275000000000000355e+01,-2.200000000000000711e+01,8.250000000000001776e+00,1.000000000000000178e+01,-1.225000000000000178e+01,5.000000000000002220e-01,7.000000000000000888e+00,1.250000000000000888e+00,1.250000000000000000e+00,-3.000000000000000888e+00,1.500000000000000888e+00,-1.100000000000000355e+01,1.850000000000000355e+01,-1.275000000000000355e+01,2.750000000000000444e+00,-1.050000000000000355e+01,9.750000000000003553e+00,7.500000000000000000e-01,5.500000000000000888e+00,-6.250000000000000888e+00,5.000000000000000000e-01,0.000000000000000000e+00,4.250000000000000888e+00,-5.000000000000000888e+00,-9.500000000000003553e+00,1.725000000000000355e+01,-1.000000000000000178e+01,-4.500000000000000888e+00,1.125000000000000355e+01,5.500000000000001776e+00,-5.500000000000001776e+00,-3.250000000000000888e+00,-1.575000000000000355e+01,1.900000000000000355e+01,2.000000000000000000e+00,-1.800000000000000355e+01,1.900000000000000355e+01,2.500000000000001776e+00,-1.475000000000000355e+01,-1.025000000000000178e+01,2.650000000000000711e+01,-1.500000000000000355e+01,-4.250000000000000888e+00,2.750000000000000444e+00,-2.750000000000000444e+00,2.000000000000000444e+00,1.100000000000000178e+01,-1.900000000000000355e+01,1.000000000000000178e+01,6.750000000000001776e+00,-5.250000000000001776e+00,-9.000000000000001776e+00,1.025000000000000178e+01,5.000000000000000000e-01,-1.050000000000000178e+01,1.100000000000000355e+01,2.250000000000000000e+00,-1.650000000000000355e+01,2.075000000000000355e+01,-2.375000000000000711e+01,2.375000000000000711e+01,-1.425000000000000355e+01,2.000000000000000444e+00,6.750000000000001776e+00,-1.625000000000000355e+01,1.675000000000000355e+01,-1.500000000000000355e+01,1.800000000000000355e+01,-1.050000000000000178e+01,1.750000000000000222e+00,1.250000000000000222e+00,-1.325000000000000355e+01,1.550000000000000355e+01,6.000000000000001776e+00,-2.325000000000000711e+01,2.375000000000000711e+01,-6.500000000000001776e+00,-1.125000000000000178e+01,3.750000000000000888e+00,1.550000000000000355e+01,-2.000000000000000355e+01,6.500000000000000888e+00,1.150000000000000355e+01,-2.200000000000000711e+01,2.475000000000000711e+01,-1.375000000000000178e+01,-5.750000000000001776e+00,6.750000000000001776e+00,8.500000000000001776e+00,-1.900000000000000711e+01,1.125000000000000355e+01,9.750000000000001776e+00,-1.075000000000000178e+01,1.000000000000000222e+00,-3.500000000000000888e+00,6.000000000000001776e+00,-1.550000000000000355e+01,1.500000000000000355e+01,3.250000000000000888e+00,-1.200000000000000355e+01,1.600000000000000355e+01,-6.000000000000001776e+00,-1.000000000000000178e+01,1.250000000000000000e+00,1.725000000000000355e+01,-2.100000000000000355e+01,2.125000000000000355e+01,-1.100000000000000178e+01,-1.275000000000000355e+01,1.675000000000000355e+01,5.250000000000000888e+00,-2.475000000000000711e+01,2.075000000000000355e+01,2.750000000000000888e+00,-2.075000000000000711e+01,2.150000000000000711e+01,-7.500000000000001776e+00,-1.525000000000000355e+01,2.125000000000000711e+01,-1.500000000000000000e+00,-1.675000000000000355e+01,2.050000000000000355e+01,-1.700000000000000355e+01,1.250000000000000000e+00,1.400000000000000355e+01,-1.675000000000000355e+01,1.550000000000000355e+01,-1.550000000000000355e+01,1.100000000000000178e+01,2.000000000000000444e+00,1.750000000000000888e+00,-1.300000000000000355e+01,1.000000000000000000e+00,4.750000000000001776e+00,1.450000000000000355e+01,-2.200000000000000711e+01,1.675000000000000355e+01,-3.775000000000000711e+01
