-3.320966250000002447e+02,-3.763622500000003583e+02,-4.140497500000003583e+02,-4.460028750000003583e+02,-4.716591250000003583e+02,-4.915028750000003583e+02,-5.045653750000003583e+02,-5.115810000000003583e+02,-5.116435000000003583e+02,-5.117060000000003583e+02,-5.117685000000003583e+02,-5.118153750000003583e+02,-5.118466250000003583e+02,-5.118935000000003583e+02,-5.119247500000003583e+02,-5.119403750000003583e+02,-5.119403750000003583e+02,-5.119403750000003583e+02,-5.119403750000003583e+02,-5.119403750000003583e+02,-5.119403750000003583e+02,-5.119247500000003583e+02,-5.119091250000003583e+02,-5.118622500000003583e+02,-5.101591250000003583e+02,-5.069403750000003583e+02,-5.009403750000003583e+02,-4.922060000000003583e+02,-4.800341250000003583e+02,-4.644716250000003583e+02,-4.441591250000003583e+02,-4.184560000000003583e+02,-3.908153750000003583e+02,-3.599247500000002447e+02,-3.284716250000002447e+02,-2.966122500000001878e+02,-2.648622500000001878e+02,-2.333153750000001878e+02,-2.040185000000001878e+02,-1.781903750000001310e+02,-1.528622500000001025e+02,-1.304560000000001025e+02,-1.087372500000001025e+02,-8.720600000000007412e+01,-6.739350000000005991e+01,-4.842475000000004570e+01,-2.972162500000003860e+01,-1.051850000000002261e+01,6.559624999999988049e+00,2.370024999999999693e+01,3.955962500000001114e+01,5.335650000000001114e+01,6.723150000000002535e+01,8.023150000000003956e+01,9.238775000000005377e+01,1.032471250000000680e+02,1.143721250000000680e+02,1.246221250000000680e+02,1.345440000000000680e+02,1.443721250000000680e+02,1.531065000000000680e+02,1.605752500000000680e+02,1.670908750000000680e+02,1.727783750000000680e+02,1.774190000000000680e+02,1.814971250000000680e+02,1.847315000000000680e+02,1.874971250000000680e+02,1.905283750000000964e+02,1.939971250000001532e+02,1.966846250000001532e+02,1.993408750000001532e+02,2.025127500000001532e+02,2.057158750000001532e+02,2.093721250000001532e+02,2.134971250000001532e+02,2.173408750000001532e+02,2.212627500000001532e+02,2.273252500000001532e+02,2.345127500000001532e+02,2.424971250000001532e+02,2.513877500000001532e+02,2.607783750000001532e+02,2.711065000000001532e+02,2.827158750000001532e+02,2.957158750000001532e+02,3.075752500000001532e+02,3.188096250000001532e+02,3.293408750000001532e+02,3.395127500000001532e+02,3.499033750000001532e+02,3.592315000000001532e+02,3.664033750000001532e+02,3.717783750000002101e+02,3.769658750000002101e+02,3.817002500000003238e+02,3.867627500000003238e+02,3.906533750000003238e+02,3.931846250000003238e+02,3.949971250000003238e+02,3.981533750000003238e+02,4.014033750000003238e+02,4.044346250000003238e+02,4.071533750000003238e+02,4.086846250000003238e+02,4.098408750000003238e+02,4.108721250000003238e+02,4.126533750000003238e+02,4.131690000000003238e+02,4.127940000000003238e+02,4.121846250000003238e+02,4.118252500000003238e+02,4.104190000000003238e+02,4.092158750000003238e+02,4.077315000000003238e+02,4.049190000000003238e+02,4.013721250000003238e+02,3.977471250000003238e+02,3.930908750000003238e+02,3.872002500000003238e+02,3.821846250000003238e+02,3.764658750000002101e+02,3.700752500000001532e+02,3.632471250000001532e+02,3.559658750000001532e+02,3.479815000000001532e+02,3.404190000000001532e+02,3.324502500000001532e+02,3.230127500000001532e+02,3.132471250000001532e+02,3.024033750000001532e+02,2.900908750000001532e+02,2.775596250000001532e+02,2.636846250000001532e+02,2.476221250000001532e+02,2.302315000000001532e+02,2.126846250000001532e+02,1.949033750000001532e+02,1.777627500000000964e+02,1.614658750000000680e+02,1.446065000000000680e+02,1.288252500000000680e+02,1.141377500000000680e+02,1.002002500000000680e+02,8.559087500000003956e+01,7.062212500000002535e+01,5.480962500000001825e+01,3.888775000000001114e+01,2.377837499999999693e+01,8.606499999999989825e+00,-7.049750000000020833e+00,-2.290912500000003149e+01,-3.845600000000003860e+01,-5.398725000000004570e+01,-6.887787500000005991e+01,-8.422162500000007412e+01,-1.001591250000000883e+02,-1.166435000000001025e+02,-1.330966250000001025e+02,-1.489716250000001025e+02,-1.631747500000001025e+02,-1.776435000000001310e+02,-1.920810000000001878e+02,-2.050497500000001878e+02,-2.172528750000001878e+02,-2.275497500000001878e+02,-2.349560000000001878e+02,-2.406747500000001878e+02,-2.457997500000001878e+02,-2.477528750000001878e+02,-2.474403750000001878e+02,-2.460966250000001878e+02,-2.429247500000001878e+02,-2.392997500000001878e+02,-2.365341250000001878e+02,-2.329872500000001878e+02,-2.294403750000001878e+02,-2.272216250000001878e+02,-2.248466250000001878e+02,-2.225185000000001878e+02,-2.202528750000001878e+02,-2.180966250000001878e+02,-2.152685000000001878e+02,-2.131122500000001878e+02,-2.108310000000001878e+02,-2.069560000000001878e+02,-2.035497500000001878e+02,-1.988153750000001878e+02,-1.944872500000001878e+02,-1.893153750000001310e+02,-1.839716250000001025e+02,-1.782997500000001025e+02,-1.711591250000001025e+02,-1.645497500000001025e+02,-1.577216250000001025e+02,-1.516435000000001025e+02,-1.450341250000001025e+02,-1.390028750000001025e+02,-1.328466250000001025e+02,-1.260653750000001025e+02,-1.212060000000001025e+02,-1.166122500000001025e+02,-1.113310000000001025e+02,-1.070966250000001025e+02,-1.024247500000001025e+02,-9.753412500000010255e+01,-9.329975000000007412e+01,-8.984662500000005991e+01,-8.495600000000005991e+01,-8.040912500000005991e+01,-7.636225000000005991e+01,-7.078412500000005991e+01,-6.648725000000005991e+01,-6.211225000000005991e+01,-5.737787500000005991e+01,-5.273725000000005991e+01,-4.914350000000005991e+01,-4.426850000000004570e+01,-3.950287500000003860e+01,-3.575287500000003860e+01,-3.058100000000003860e+01,-2.544037500000003504e+01,-2.042475000000003149e+01,-1.508100000000002794e+01,-8.706000000000022609e+00,-4.143500000000019057e+00,1.377499999999827196e-01,4.043999999999985384e+00,6.059624999999986272e+00,8.137749999999988049e+00,1.037212499999998983e+01,1.149712499999998983e+01,1.157524999999998983e+01,1.249712499999999338e+01,1.241899999999999338e+01,1.324712499999999338e+01,1.491899999999999338e+01,1.524712499999999338e+01,1.546587499999999338e+01,1.676274999999999338e+01,1.724712499999999338e+01,1.759087499999999338e+01,1.884087499999999338e+01,1.918462499999999338e+01,2.010649999999999338e+01,2.207524999999999693e+01,2.365337500000000048e+01,2.476275000000000404e+01,2.765337500000000404e+01,3.049712500000000404e+01,3.373150000000000404e+01,3.685650000000000404e+01,3.899712500000000404e+01,4.143462500000000404e+01,4.401275000000001114e+01,4.627837500000001114e+01,4.730962500000001114e+01,4.755962500000001114e+01,4.715337500000001114e+01,4.698150000000001114e+01,4.696587500000001114e+01,4.613775000000001114e+01,4.429400000000000404e+01,4.326275000000000404e+01,4.223150000000000404e+01,4.226275000000000404e+01,4.265337500000000404e+01,4.334087500000000404e+01,4.334087500000000404e+01,4.299712500000000404e+01,4.388775000000000404e+01,4.352837500000000404e+01,4.259087500000000404e+01,4.018462500000000404e+01,3.659087500000000404e+01,3.245025000000000404e+01,2.974712500000000404e+01,2.696587500000000404e+01,2.266900000000000048e+01,1.880962499999999693e+01,1.546587499999999338e+01,1.313774999999999338e+01,1.152837499999999160e+01,1.029399999999998983e+01,7.481499999999988049e+00,5.700249999999987160e+00,5.731499999999987160e+00,5.965874999999987160e+00,7.293999999999988049e+00,8.559624999999988049e+00,9.762749999999989825e+00,1.063774999999998983e+01,1.235649999999998983e+01,1.254399999999998983e+01,1.162212499999998983e+01,9.856499999999989825e+00,6.887749999999987160e+00,3.122124999999984496e+00,1.377499999999827474e-01,-3.206000000000019945e+00,-6.409125000000022609e+00,-8.190375000000022609e+00,-1.029975000000002439e+01,-1.103412500000002439e+01,-1.251850000000002616e+01,-1.301850000000002794e+01,-1.528412500000002794e+01,-1.729975000000002794e+01,-1.997162500000003149e+01,-2.403412500000003504e+01,-2.745600000000003860e+01,-3.290912500000003860e+01,-3.753412500000003860e+01,-4.247162500000004570e+01,-4.600287500000005281e+01,-5.008100000000005991e+01,-5.420600000000005991e+01,-5.676850000000005991e+01,-5.965912500000005991e+01,-6.109662500000005991e+01,-6.179975000000005991e+01,-6.342475000000005991e+01,-6.570600000000005991e+01,-6.642475000000005991e+01,-6.678412500000005991e+01,-6.783100000000005991e+01,-6.890912500000005991e+01,-6.934662500000005991e+01,-7.112787500000005991e+01,-7.197162500000005991e+01,-7.192475000000005991e+01,-7.290912500000005991e+01,-7.434662500000005991e+01,-7.687787500000005991e+01,-7.878412500000005991e+01,-8.195600000000005991e+01,-8.489350000000005991e+01,-8.812787500000007412e+01,-9.239350000000007412e+01,-9.742475000000010255e+01,-1.018153750000001025e+02,-1.052997500000001025e+02,-1.100185000000001025e+02,-1.139403750000001025e+02,-1.171903750000001025e+02,-1.197997500000001025e+02,-1.226747500000001025e+02,-1.241278750000001025e+02,-1.260810000000001025e+02,-1.274403750000001025e+02,-1.278935000000001025e+02,-1.301122500000001025e+02,-1.327216250000001025e+02,-1.358778750000001025e+02,-1.385966250000001025e+02,-1.431747500000001025e+02,-1.475653750000001025e+02,-1.537997500000001025e+02,-1.607997500000001025e+02,-1.658466250000001025e+02,-1.712528750000001025e+02,-1.775966250000001025e+02,-1.833778750000001310e+02,-1.870028750000001310e+02,-1.903778750000001310e+02,-1.923935000000001878e+02,-1.932060000000001878e+02,-1.950966250000001878e+02,-1.968935000000001878e+02,-1.971278750000001878e+02,-1.976747500000001878e+02,-1.999091250000001878e+02,-2.030185000000001878e+02,-2.053778750000001878e+02,-2.089403750000001878e+02,-2.123466250000001878e+02,-2.143310000000001878e+02,-2.172216250000001878e+02,-2.207216250000001878e+02,-2.223622500000001878e+02,-2.221122500000001878e+02,-2.217060000000001878e+02,-2.190966250000001878e+02,-2.149872500000001878e+02,-2.116278750000001878e+02,-2.063622500000001878e+02,-1.994403750000001878e+02,-1.924716250000001878e+02,-1.859716250000001310e+02,-1.799247500000001310e+02,-1.749091250000001025e+02,-1.697528750000001025e+02,-1.645028750000001025e+02,-1.601278750000001025e+02,-1.565341250000001025e+02,-1.532372500000001025e+02,-1.498622500000001025e+02,-1.470185000000001025e+02,-1.442060000000001025e+02,-1.420966250000001025e+02,-1.396122500000001025e+02,-1.372528750000001025e+02,-1.340185000000001025e+02,-1.320653750000001025e+02,-1.304872500000001025e+02,-1.284560000000001025e+02,-1.265653750000001025e+02,-1.248622500000001025e+02,-1.229247500000001025e+02,-1.212685000000001025e+02,-1.211591250000001025e+02,-1.193310000000001025e+02,-1.182372500000001025e+02,-1.168310000000001025e+02,-1.155810000000001025e+02,-1.136122500000001025e+02,-1.115185000000001025e+02,-1.087372500000001025e+02,-1.031278750000001025e+02,-9.828412500000010255e+01,-9.148725000000007412e+01,-8.334662500000007412e+01,-7.378412500000005991e+01,-6.458100000000005991e+01,-5.606537500000005991e+01,-4.873725000000005281e+01,-4.390912500000004570e+01,-3.956537500000003860e+01,-3.665912500000003860e+01,-3.737787500000003860e+01,-4.034662500000004570e+01,-4.619037500000005281e+01,-5.337787500000005991e+01,-6.069037500000005991e+01,-6.951850000000005991e+01,-7.837787500000005991e+01,-8.940912500000007412e+01,-9.933100000000010255e+01,-1.095185000000001025e+02,-1.183622500000001025e+02,-1.275185000000001025e+02,-1.370653750000001025e+02,-1.453153750000001025e+02,-1.534872500000001025e+02,-1.592997500000001025e+02,-1.637372500000001025e+02,-1.665341250000001025e+02,-1.676435000000001025e+02,-1.656278750000001025e+02,-1.622060000000001025e+02,-1.573778750000001025e+02,-1.513778750000001025e+02,-1.441747500000001025e+02,-1.364872500000001025e+02,-1.285341250000001025e+02,-1.202372500000001025e+02,-1.124403750000001025e+02,-1.029403750000001025e+02,-9.286225000000010255e+01,-8.384662500000007412e+01,-7.512787500000005991e+01,-6.781537500000005991e+01,-6.012787500000005991e+01,-5.164350000000005991e+01,-4.448725000000004570e+01,-3.965912500000003860e+01,-3.615912500000003860e+01,-3.092475000000003860e+01,-2.633100000000003860e+01,-2.098725000000003149e+01,-1.656537500000002794e+01,-1.367475000000002616e+01,-1.059662500000002439e+01,-7.190375000000020833e+00,-3.362250000000019057e+00,-1.612250000000018169e+00,1.533749999999827196e-01,1.247124999999983386e+00,1.168999999999983386e+00,7.158749999999830527e-01,7.627499999999830527e-01,1.059624999999983386e+00,3.877499999999830527e-01,-5.653750000000176135e-01,-3.096625000000019057e+00,-5.643500000000020833e+00,-7.456000000000022609e+00,-1.076850000000002439e+01,-1.514350000000002794e+01,-2.112787500000003149e+01,-2.758100000000003860e+01,-3.256537500000003860e+01,-3.647162500000003860e+01,-3.944037500000003860e+01,-4.229975000000003860e+01,-4.197162500000003860e+01,-4.084662500000003860e+01,-3.676850000000003860e+01,-3.092475000000003860e+01,-2.504975000000003149e+01,-1.744037500000002794e+01,-1.073725000000002439e+01,-2.643500000000019945e+00,4.512749999999985384e+00,1.168462499999998983e+01,1.673149999999999338e+01,2.180962499999999693e+01,2.605962500000000404e+01,2.804400000000000404e+01,3.107525000000000404e+01,3.363775000000000404e+01,3.496587500000000404e+01,3.734087500000000404e+01,4.109087500000000404e+01,4.290337500000001114e+01,4.479400000000001114e+01,4.759087500000001825e+01,4.849712500000002535e+01,4.759087500000001825e+01,4.766900000000002535e+01,4.610650000000001825e+01,4.284087500000001114e+01,4.020025000000000404e+01,3.663775000000000404e+01,3.207525000000000404e+01,2.921587500000000404e+01,2.677837500000000404e+01,2.371587500000000048e+01,1.985649999999999693e+01,1.687212499999999338e+01,1.523149999999999338e+01,1.430962499999999338e+01,1.529399999999999338e+01,1.534087499999999338e+01,1.732524999999999693e+01,1.918462499999999693e+01,2.365337499999999693e+01,2.826275000000000404e+01,3.132525000000000404e+01,3.585650000000000404e+01,3.990337500000001114e+01,4.438775000000001114e+01,4.821587500000002535e+01,5.313775000000002535e+01,5.587212500000002535e+01,5.796587500000002535e+01,6.149712500000002535e+01,6.457525000000002535e+01,6.691900000000002535e+01,6.891900000000002535e+01,7.015337500000002535e+01,7.010650000000002535e+01,7.171587500000002535e+01,7.488775000000002535e+01,7.684087500000002535e+01,7.777837500000002535e+01,7.843462500000002535e+01,7.979400000000002535e+01,8.098150000000002535e+01,8.441900000000002535e+01,8.721587500000002535e+01,8.955962500000003956e+01,9.368462500000003956e+01,9.782525000000006798e+01,1.033408750000000680e+02,1.090440000000000680e+02,1.161690000000000680e+02,1.211065000000000680e+02,1.265596250000000680e+02,1.308721250000000680e+02,1.342627500000000680e+02,1.393721250000000680e+02,1.450596250000000680e+02,1.509346250000000680e+02,1.564033750000000680e+02,1.630283750000000680e+02,1.689033750000000680e+02,1.764033750000000680e+02,1.846221250000000964e+02,1.912627500000001248e+02,1.953252500000001532e+02,1.973565000000001532e+02,1.970596250000001532e+02,1.950596250000001532e+02,1.918096250000001532e+02,1.866377500000000964e+02,1.784971250000000964e+02,1.691690000000000680e+02,1.603408750000000680e+02,1.531533750000000680e+02,1.469033750000000680e+02,1.421846250000000680e+02,1.397940000000000680e+02,1.371065000000000680e+02,1.366377500000000680e+02,1.387627500000000680e+02,1.409658750000000680e+02,1.420908750000000680e+02,1.450283750000000680e+02,1.474033750000000680e+02,1.479033750000000680e+02,1.488877500000000680e+02,1.469033750000000680e+02,1.416690000000000680e+02,1.348877500000000680e+02,1.279971250000000680e+02,1.185440000000000680e+02,1.075440000000000680e+02,9.735650000000005377e+01,8.787212500000003956e+01,8.163775000000002535e+01,7.845025000000002535e+01,7.841900000000002535e+01,7.907525000000002535e+01,8.204400000000002535e+01,8.799712500000003956e+01,9.326275000000003956e+01,9.809087500000006798e+01,1.037627500000000680e+02,1.082315000000000680e+02,1.119190000000000680e+02,1.154033750000000680e+02,1.172471250000000680e+02,1.173877500000000680e+02,1.180127500000000680e+02,1.192002500000000680e+02,1.181065000000000680e+02,1.155440000000000680e+02,1.119502500000000680e+02,1.096846250000000680e+02,1.081377500000000680e+02,1.062002500000000680e+02,1.051690000000000680e+02,1.041690000000000680e+02,1.032627500000000680e+02,1.046533750000000680e+02,1.064033750000000680e+02,1.068096250000000680e+02,1.067783750000000680e+02,1.083721250000000680e+02,1.081690000000000680e+02,1.074971250000000680e+02,1.085440000000000680e+02,1.085283750000000680e+02,1.085752500000000680e+02,1.091065000000000680e+02,1.104033750000000680e+02,1.101377500000000680e+02,1.116065000000000680e+02,1.123877500000000680e+02,1.117158750000000680e+02,1.119190000000000680e+02,1.127002500000000680e+02,1.117158750000000680e+02,1.102940000000000680e+02,1.098252500000000680e+02,1.078096250000000680e+02,1.057158750000000680e+02,1.024033750000000680e+02,9.666900000000006798e+01,8.930962500000003956e+01,8.385650000000003956e+01,7.705962500000002535e+01,6.860650000000002535e+01,6.030962500000002535e+01,5.399712500000002535e+01,5.015337500000002535e+01,4.885650000000002535e+01,4.845025000000002535e+01,4.690337500000001114e+01,4.810650000000001825e+01,5.062212500000002535e+01,5.485650000000002535e+01,5.774712500000002535e+01,5.873150000000002535e+01,5.929400000000002535e+01,6.160650000000002535e+01,6.512212500000002535e+01,6.632525000000002535e+01,6.845025000000002535e+01,6.868462500000002535e+01,6.955962500000002535e+01,7.154400000000002535e+01,7.368462500000002535e+01,7.382525000000002535e+01,7.266900000000002535e+01,7.310650000000002535e+01,7.201275000000002535e+01,7.235650000000002535e+01,7.227837500000002535e+01,7.241900000000002535e+01,7.141900000000002535e+01,7.132525000000002535e+01,7.232525000000002535e+01,7.282525000000002535e+01,7.373150000000002535e+01,7.395025000000002535e+01,7.298150000000002535e+01,7.138775000000002535e+01,7.004400000000002535e+01,6.804400000000002535e+01,6.595025000000002535e+01,6.359087500000002535e+01,6.130962500000002535e+01,5.848150000000002535e+01,5.779400000000002535e+01,5.741900000000002535e+01,5.760650000000002535e+01,5.843462500000002535e+01,5.901275000000002535e+01,6.012212500000002535e+01,6.318462500000002535e+01,6.793462500000002535e+01,7.210650000000002535e+01,7.640337500000002535e+01,8.080962500000002535e+01,8.480962500000002535e+01,8.877837500000002535e+01,9.260650000000002535e+01,9.410650000000002535e+01,9.420025000000002535e+01,9.288775000000002535e+01,9.130962500000002535e+01,9.012212500000002535e+01,8.823150000000002535e+01,8.643462500000002535e+01,8.280962500000002535e+01,7.855962500000002535e+01,7.463775000000002535e+01,7.202837500000002535e+01,6.902837500000002535e+01,6.357525000000002535e+01,5.866900000000002535e+01,5.355962500000002535e+01,4.954400000000002535e+01,4.605962500000001825e+01,4.174712500000001114e+01,3.666900000000000404e+01,3.129400000000000404e+01,2.843462500000000404e+01,2.443462500000000048e+01,1.985649999999999693e+01,1.645024999999999338e+01,1.329399999999999160e+01,9.950249999999989825e+00,6.168999999999986272e+00,2.840874999999984496e+00,-1.784125000000018391e+00,-4.846625000000020833e+00,-7.862250000000022609e+00,-1.148725000000002439e+01,-1.458100000000002794e+01,-1.558100000000002794e+01,-1.506537500000002794e+01,-1.395600000000002794e+01,-1.179975000000002439e+01,-8.706000000000020833e+00,-4.487250000000019945e+00,-3.622500000000170584e-01,4.731499999999986272e+00,8.075249999999988049e+00,1.134087499999998983e+01,1.462212499999999338e+01,1.690337499999999338e+01,1.741899999999999338e+01,1.837212499999999338e+01,1.909087499999999338e+01,1.866899999999999338e+01,1.899712499999999338e+01,1.860649999999999338e+01,1.868462499999999338e+01,1.943462499999999338e+01,2.118462499999999338e+01,2.115337499999999338e+01,2.145024999999999338e+01,2.137212499999999338e+01,2.099712499999999338e+01,2.021587499999999338e+01,1.790337499999999338e+01,1.520024999999999338e+01,1.151274999999998983e+01,9.543999999999988049e+00,6.903374999999986272e+00,4.793999999999985384e+00,3.168999999999984496e+00,2.200249999999984052e+00,3.075249999999984496e+00,4.481499999999985384e+00,7.122124999999987160e+00,9.247124999999988049e+00,1.245024999999998983e+01,1.612212499999999338e+01,1.995024999999999693e+01,2.496587500000000048e+01,2.920025000000000404e+01,3.499712500000000404e+01,4.054400000000001114e+01,4.621587500000001825e+01,5.323150000000002535e+01,6.060650000000002535e+01,6.924712500000002535e+01,7.735650000000002535e+01,8.618462500000003956e+01,9.273150000000005377e+01,9.966900000000006798e+01,1.070596250000000680e+02,1.125283750000000680e+02,1.167783750000000680e+02,1.195752500000000680e+02,1.213252500000000680e+02,1.213408750000000680e+02,1.228408750000000680e+02,1.234971250000000680e+02,1.233252500000000680e+02,1.229502500000000680e+02,1.230440000000000680e+02,1.224190000000000680e+02,1.228252500000000680e+02,1.252315000000000680e+02,1.262002500000000680e+02,1.274346250000000680e+02,1.287627500000000680e+02,1.305752500000000680e+02,1.322783750000000680e+02,1.354815000000000680e+02,1.378408750000000680e+02,1.381533750000000680e+02,1.395440000000000680e+02,1.408565000000000680e+02,1.417158750000000680e+02,1.423721250000000680e+02,1.432471250000000680e+02,1.429815000000000680e+02,1.431221250000000680e+02,1.447940000000000680e+02,1.453096250000000680e+02,1.460908750000000680e+02,1.467158750000000680e+02,1.480752500000000680e+02,1.486065000000000680e+02,1.482627500000000680e+02,1.474033750000000680e+02,1.450440000000000680e+02,1.424502500000000680e+02,1.391690000000000680e+02,1.369346250000000680e+02,1.327940000000000680e+02,1.290440000000000680e+02,1.268252500000000680e+02,1.239658750000000680e+02,1.216065000000000680e+02,1.206065000000000680e+02,1.195440000000000680e+02,1.173877500000000680e+02,1.161533750000000680e+02,1.146533750000000680e+02,1.120908750000000680e+02,1.101533750000000680e+02,1.084190000000000680e+02,1.056690000000000680e+02,1.026221250000000680e+02,9.938775000000006798e+01,9.695025000000006798e+01,9.446587500000005377e+01,9.218462500000003956e+01,8.971587500000002535e+01,8.602837500000002535e+01,8.148150000000002535e+01,7.766900000000002535e+01,7.393462500000002535e+01,6.827837500000002535e+01,6.223150000000002535e+01,5.548150000000002535e+01,4.941900000000002535e+01,4.476275000000001114e+01,4.088775000000000404e+01,3.546587500000000404e+01,3.013775000000000404e+01,2.641900000000000404e+01,2.337212500000000048e+01,2.104399999999999693e+01,1.799712499999999693e+01,1.420024999999999338e+01,1.065337499999998983e+01,8.090874999999988049e+00,5.293999999999986272e+00,1.465874999999983608e+00,-2.768500000000019057e+00,-7.440375000000022609e+00,-1.219037500000002439e+01,-1.715912500000002794e+01,-2.269037500000003149e+01,-2.811225000000003860e+01,-3.229975000000003860e+01,-3.615912500000003860e+01,-3.973725000000003860e+01,-4.265912500000003860e+01,-4.525287500000004570e+01,-4.717475000000005281e+01,-4.878412500000005991e+01,-4.954975000000005991e+01,-5.094037500000005991e+01,-5.239350000000005991e+01,-5.411225000000005991e+01,-5.533100000000005991e+01,-5.687787500000005991e+01,-5.839350000000005991e+01,-5.878412500000005991e+01,-6.003412500000005991e+01,-6.115912500000005991e+01,-6.147162500000005991e+01,-6.094037500000005991e+01,-6.153412500000005991e+01,-6.089350000000005991e+01,-5.987787500000005991e+01,-5.992475000000005991e+01,-5.948725000000005991e+01,-5.917475000000005991e+01,-5.858100000000005991e+01,-5.869037500000005991e+01,-5.734662500000005991e+01,-5.733100000000005991e+01,-5.808100000000005991e+01,-5.801850000000005991e+01,-5.837787500000005991e+01,-5.847162500000005991e+01,-6.004975000000005991e+01,-6.139350000000005991e+01,-6.428412500000005991e+01,-6.597162500000005991e+01,-6.675287500000005991e+01,-6.887787500000005991e+01,-7.100287500000005991e+01,-7.369037500000005991e+01,-7.545600000000005991e+01,-7.723725000000005991e+01,-7.808100000000005991e+01,-8.029975000000005991e+01,-8.278412500000005991e+01,-8.445600000000005991e+01,-8.572162500000005991e+01,-8.689350000000005991e+01,-8.815912500000005991e+01,-8.881537500000005991e+01,-8.933100000000005991e+01,-8.914350000000005991e+01,-8.900287500000005991e+01,-8.786225000000005991e+01,-8.664350000000005991e+01,-8.501850000000005991e+01,-8.273725000000005991e+01,-8.133100000000005991e+01,-8.053412500000005991e+01,-7.920600000000005991e+01,-7.775287500000005991e+01,-7.794037500000005991e+01,-7.761225000000005991e+01,-7.719037500000005991e+01,-7.776850000000005991e+01,-7.764350000000005991e+01,-7.739350000000005991e+01,-7.761225000000005991e+01,-7.831537500000005991e+01,-7.839350000000005991e+01,-7.948725000000005991e+01,-8.129975000000005991e+01,-8.300287500000005991e+01,-8.520600000000005991e+01,-8.706537500000005991e+01,-8.879975000000005991e+01,-9.140912500000007412e+01,-9.354975000000007412e+01,-9.619037500000008833e+01,-9.870600000000010255e+01,-1.005028750000001025e+02,-1.023153750000001025e+02,-1.047372500000001025e+02,-1.073153750000001025e+02,-1.085185000000001025e+02,-1.109403750000001025e+02,-1.125341250000001025e+02,-1.137528750000001025e+02,-1.154560000000001025e+02,-1.171903750000001025e+02,-1.184716250000001025e+02,-1.197060000000001025e+02,-1.207060000000001025e+02,-1.208153750000001025e+02,-1.206591250000001025e+02,-1.202216250000001025e+02,-1.192372500000001025e+02,-1.182216250000001025e+02,-1.160185000000001025e+02,-1.202685000000001025e+02,-1.315497500000001025e+02,-1.485966250000001025e+02,-1.721903750000001310e+02,-2.017997500000001878e+02,-2.386435000000001878e+02,-2.813153750000001878e+02
-2.017187500000001421e+01,-5.521875000000003553e+01,-6.953125000000004263e+01,-6.545312500000004263e+01,-3.967187500000002842e+01,-1.982812500000001421e+01,-6.890625000000005329e+00,6.250000000000005551e-02,-6.250000000000004163e-02,-6.250000000000004163e-02,-6.938893903907228378e-18,-1.562500000000001735e-02,1.562500000000001041e-02,-6.250000000000002776e-02,-1.562500000000000833e-01,-1.406250000000000833e-01,-7.812500000000004163e-02,4.687500000000004163e-02,1.718750000000001110e-01,1.718750000000001110e-01,4.687500000000002776e-02,-9.375000000000006939e-02,-2.343750000000001665e-01,-2.812500000000002220e-01,-1.796875000000001332e+00,-4.828125000000003553e+00,-1.064062500000000711e+01,-1.918750000000001066e+01,-2.479687500000001421e+01,-2.773437500000002132e+01,-2.429687500000001776e+01,-1.543750000000001066e+01,-7.703125000000005329e+00,-1.781250000000001776e+00,3.281250000000001665e-01,1.968750000000000888e+00,3.468750000000001776e+00,9.234375000000003553e+00,1.487500000000000711e+01,1.492187500000000888e+01,1.471875000000001066e+01,7.062500000000006217e+00,-9.062499999999993339e-01,-4.375000000000002665e+00,-6.375000000000004441e+00,-2.531250000000002665e+00,3.203125000000001332e+00,8.125000000000005329e+00,9.546875000000007105e+00,7.906250000000005329e+00,4.234375000000003553e+00,9.375000000000004441e-01,5.625000000000007772e-01,2.312500000000001776e+00,4.781250000000003553e+00,3.984375000000002665e+00,2.859375000000001776e+00,-3.906250000000004441e-01,-3.125000000000002220e+00,-1.406249999999995559e-01,2.125000000000001776e+00,6.906250000000005329e+00,1.107812500000000711e+01,9.015625000000005329e+00,7.312500000000005329e+00,1.609375000000000888e+00,-4.125000000000002665e+00,-4.203125000000002665e+00,-5.546875000000003553e+00,-1.703125000000000444e+00,2.859375000000002220e+00,2.265625000000001776e+00,4.906250000000003553e+00,2.578125000000001776e+00,-2.328125000000000888e+00,-2.640625000000001776e+00,-7.109375000000003553e+00,-7.281250000000003553e+00,-3.468750000000002220e+00,-3.843750000000002220e+00,-1.015625000000000666e+00,-2.593750000000000888e+00,-6.234375000000003553e+00,-5.250000000000003553e+00,-5.921875000000003553e+00,-1.734375000000001332e+00,2.593750000000001776e+00,3.234375000000001776e+00,6.453125000000003553e+00,6.593750000000003553e+00,5.515625000000003553e+00,6.062500000000003553e+00,2.578125000000001332e+00,7.812499999999994449e-02,1.640625000000000888e+00,2.593750000000001776e+00,5.093750000000003553e+00,6.640625000000004441e+00,2.046875000000001776e+00,-2.078125000000000888e+00,-3.796875000000001776e+00,-5.234375000000002665e+00,-7.656250000000000000e-01,2.703125000000001776e+00,3.359375000000001776e+00,6.140625000000003553e+00,4.296875000000003553e+00,3.328125000000001776e+00,3.125000000000001776e+00,-1.562500000000000888e+00,-2.703125000000001776e+00,-3.031250000000001776e+00,-2.375000000000001332e+00,3.515625000000002665e+00,6.875000000000005329e+00,8.812500000000005329e+00,7.921875000000005329e+00,2.421875000000001332e+00,-8.593750000000006661e-01,-3.781250000000002665e+00,-3.328125000000001776e+00,1.453125000000000666e+00,3.218750000000001776e+00,4.984375000000003553e+00,5.765625000000003553e+00,1.875000000000001554e+00,1.062500000000000666e+00,6.562500000000002220e-01,-1.468750000000000444e+00,1.046875000000000888e+00,3.015625000000002220e+00,5.265625000000003553e+00,9.671875000000005329e+00,1.085937500000000533e+01,9.671875000000005329e+00,6.312500000000003553e+00,1.546875000000000888e+00,-3.546875000000001332e+00,-7.281250000000003553e+00,-8.984375000000003553e+00,-9.562500000000005329e+00,-6.468750000000003553e+00,-1.343750000000001332e+00,4.156250000000002665e+00,8.515625000000005329e+00,8.609375000000005329e+00,5.671875000000003553e+00,7.187500000000006661e-01,-4.671875000000002665e+00,-6.937500000000003553e+00,-7.468750000000005329e+00,-5.109375000000003553e+00,1.250000000000000222e+00,5.843750000000003553e+00,9.234375000000003553e+00,9.015625000000003553e+00,1.640625000000000888e+00,-4.687500000000003553e+00,-8.609375000000005329e+00,-9.484375000000005329e+00,-3.218750000000001776e+00,1.875000000000001776e+00,2.750000000000001776e+00,1.281250000000000666e+00,-4.140625000000003553e+00,-1.015625000000000711e+01,-1.300000000000001066e+01,-1.353125000000001066e+01,-1.403125000000001066e+01,-1.126562500000000711e+01,-7.140625000000005329e+00,-4.421875000000003553e+00,7.812500000000002220e-01,4.031250000000002665e+00,3.890625000000002665e+00,3.843750000000002665e+00,1.859375000000001332e+00,-4.218750000000002776e-01,-1.421875000000000888e+00,-6.250000000000004441e-01,-2.031250000000001665e-01,-2.343750000000001665e-01,1.062500000000000666e+00,-1.531250000000000888e+00,-1.687500000000000888e+00,-1.125000000000000888e+00,-2.843750000000002220e+00,-1.203125000000000888e+00,-3.343750000000002665e+00,-4.015625000000003553e+00,-3.234375000000001776e+00,-2.281250000000001332e+00,1.390625000000001110e+00,2.031250000000001776e+00,2.640625000000001776e+00,-3.749999999999997780e-01,-2.234375000000001332e+00,-8.281250000000002220e-01,-6.718749999999998890e-01,4.109375000000002665e+00,5.375000000000003553e+00,2.781250000000001776e+00,2.062500000000000888e+00,-1.234375000000000888e+00,-3.468750000000002665e+00,-1.421875000000000888e+00,3.124999999999988898e-02,7.812500000000013878e-02,2.875000000000001776e+00,2.015625000000000888e+00,-1.031250000000000444e+00,-7.343750000000006661e-01,-3.281250000000002665e+00,-3.781250000000003109e+00,-1.562500000000044409e-02,2.406250000000001332e+00,4.812500000000003553e+00,6.000000000000004441e+00,2.171875000000001332e+00,-3.015625000000001776e+00,-7.562500000000005329e+00,-9.203125000000007105e+00,-5.531250000000003553e+00,-6.250000000000044409e-02,7.000000000000004441e+00,9.937500000000007105e+00,7.406250000000005329e+00,4.687500000000003553e+00,6.718750000000006661e-01,-1.656250000000000888e+00,1.046875000000000888e+00,2.359375000000001776e+00,9.062500000000006661e-01,1.296875000000000888e+00,-1.312500000000000666e+00,-3.703125000000002220e+00,-3.125000000000000000e-01,6.718750000000005551e-01,5.781250000000003331e-01,3.281250000000001776e+00,7.343750000000000000e-01,-2.234375000000001776e+00,-1.718750000000002220e-01,-1.765625000000000888e+00,-1.687500000000000888e+00,1.656250000000001110e+00,-1.671875000000001110e+00,-2.906250000000002220e+00,-2.046875000000001776e+00,-5.015625000000003553e+00,-1.750000000000001776e+00,1.062500000000000444e+00,1.984375000000000888e+00,5.859375000000003553e+00,4.968750000000003553e+00,3.453125000000002220e+00,1.109375000000000888e+00,-1.890625000000000888e+00,-1.046875000000000666e+00,7.500000000000008882e-01,4.453125000000003553e+00,5.468750000000003553e+00,3.125000000000002665e+00,-5.312500000000002220e-01,-5.625000000000003553e+00,-6.593750000000004441e+00,-6.421875000000004441e+00,-3.484375000000002665e+00,9.531250000000007772e-01,3.109375000000001776e+00,6.843750000000003553e+00,7.390625000000003553e+00,5.578125000000003553e+00,3.921875000000002665e+00,1.265625000000000666e+00,-3.125000000000001388e-02,-1.562500000000001388e-02,-5.468750000000004441e-01,-2.750000000000001776e+00,-4.765625000000003553e+00,-4.109375000000002665e+00,-2.218750000000001332e+00,1.453125000000000888e+00,4.437500000000002665e+00,1.937500000000001332e+00,-1.406250000000000666e+00,-5.500000000000003553e+00,-8.296875000000005329e+00,-7.562500000000005329e+00,-5.265625000000003553e+00,-2.812500000000004441e-01,3.156250000000002220e+00,7.937500000000007105e+00,1.081250000000000888e+01,8.234375000000007105e+00,7.437500000000005329e+00,2.218750000000001776e+00,-2.953125000000002220e+00,-2.843750000000001776e+00,-5.750000000000003553e+00,-4.546875000000002665e+00,-3.015625000000001776e+00,-3.593750000000001776e+00,-1.171875000000000666e+00,-3.125000000000001110e-01,2.500000000000001332e+00,4.578125000000002665e+00,6.531250000000003553e+00,6.515625000000003553e+00,4.203125000000001776e+00,1.625000000000000444e+00,-2.546875000000002220e+00,-2.609375000000001776e+00,-3.484375000000001776e+00,-1.453125000000000444e+00,1.250000000000004441e-01,-2.187500000000001332e+00,-1.375000000000001110e+00,-3.609375000000002665e+00,-3.859375000000002665e+00,-2.093750000000000888e+00,-1.406250000000000666e+00,1.062500000000000666e+00,1.906250000000001332e+00,3.765625000000002220e+00,1.937500000000001332e+00,-1.359375000000000444e+00,-2.359375000000001332e+00,-6.078125000000003553e+00,-2.734375000000001776e+00,1.468750000000000888e+00,3.453125000000002220e+00,7.265625000000005329e+00,4.296875000000002665e+00,2.265625000000001776e+00,9.375000000000007772e-01,-1.125000000000000666e+00,4.843750000000002220e-01,7.500000000000003331e-01,1.093750000000000666e+00,1.359375000000000888e+00,6.562500000000004441e-01,2.500000000000003331e-01,-2.078125000000001332e+00,-3.140625000000001776e+00,-4.468750000000003553e+00,-6.218750000000004441e+00,-3.265625000000002220e+00,-1.562500000000000888e+00,1.421875000000001110e+00,4.750000000000003553e+00,4.406250000000002665e+00,4.015625000000001776e+00,2.421875000000001332e+00,2.203125000000001332e+00,1.531250000000001110e+00,1.734375000000001332e+00,3.218750000000001776e+00,2.343750000000001332e+00,2.140625000000001332e+00,1.359375000000000444e+00,-2.984375000000001776e+00,-6.515625000000005329e+00,-7.328125000000005329e+00,-9.015625000000005329e+00,-6.250000000000004441e+00,-2.062500000000001332e+00,-5.468750000000003331e-01,4.062500000000002665e+00,5.421875000000003553e+00,5.281250000000003553e+00,5.140625000000003553e+00,5.000000000000004441e-01,-1.078125000000000666e+00,-1.703125000000001332e+00,-2.109375000000001776e+00,1.250000000000000555e-01,3.281250000000002220e-01,-1.359375000000000666e+00,-3.343750000000001776e+00,-4.281250000000002665e+00,-6.937500000000003553e+00,-8.984375000000005329e+00,-8.593750000000005329e+00,-9.828125000000007105e+00,-6.281250000000003553e+00,1.296875000000000888e+00,5.390625000000003553e+00,8.765625000000005329e+00,8.406250000000003553e+00,1.515625000000000666e+00,-2.390625000000001332e+00,-3.515625000000001776e+00,-3.890625000000002220e+00,1.828125000000000888e+00,5.593750000000003553e+00,5.093750000000002665e+00,6.062500000000003553e+00,8.750000000000008882e-01,-3.421875000000001776e+00,-2.281250000000001332e+00,-4.890625000000003553e+00,-1.437500000000001332e+00,2.359375000000001332e+00,5.937500000000004441e-01,4.687500000000002665e+00,4.734375000000002665e+00,1.531250000000001332e+00,2.656250000000002220e+00,-2.875000000000002220e+00,-5.984375000000004441e+00,-3.750000000000002665e+00,-3.031250000000002665e+00,3.812500000000001776e+00,7.062500000000003553e+00,5.781250000000003553e+00,1.375000000000001332e+00,-8.406250000000005329e+00,-1.501562500000001066e+01,-1.742187500000001066e+01,-1.303125000000000711e+01,-4.296875000000002665e+00,6.078125000000003553e+00,1.068750000000000711e+01,9.296875000000005329e+00,7.781250000000005329e+00,2.328125000000001776e+00,4.734375000000002665e+00,1.045312500000000711e+01,1.198437500000000711e+01,1.557812500000001066e+01,1.148437500000000711e+01,5.921875000000003553e+00,2.921875000000002220e+00,-7.500000000000013323e-01,-2.140625000000002220e+00,-2.984375000000001776e+00,-2.500000000000001776e+00,-3.250000000000001776e+00,5.937500000000008882e-01,2.125000000000001776e+00,1.171875000000001554e+00,3.046875000000002220e+00,-3.906250000000002220e+00,-7.593750000000005329e+00,-1.090625000000000711e+01,-1.742187500000001066e+01,-1.375000000000000711e+01,-1.239062500000000711e+01,-7.562500000000005329e+00,1.421875000000001554e+00,9.843750000000013323e-01,4.593750000000003553e+00,1.843750000000000888e+00,-5.109375000000003553e+00,-3.093750000000002665e+00,-7.078125000000005329e+00,-3.953125000000003109e+00,1.968750000000000888e+00,-4.687500000000001388e-02,3.984375000000003109e+00,4.484375000000003553e+00,4.109375000000003553e+00,7.375000000000005329e+00,5.781250000000003553e+00,1.953125000000000888e+00,-1.421875000000001554e+00,-3.218750000000002220e+00,-3.062500000000002220e+00,1.093750000000000222e+00,3.109375000000001776e+00,2.531250000000001776e+00,2.765625000000001776e+00,7.343750000000006661e-01,1.593750000000001110e+00,3.343750000000002220e+00,2.515625000000001776e+00,2.796875000000001776e+00,2.375000000000001776e+00,5.156250000000003331e-01,2.343750000000001776e+00,2.296875000000001776e+00,-1.031250000000000444e+00,-7.656250000000001110e-01,-2.734375000000001332e+00,-8.750000000000000000e-01,6.750000000000003553e+00,9.937500000000007105e+00,1.131250000000000711e+01,8.234375000000005329e+00,-1.875000000000000000e-01,-7.515625000000004441e+00,-1.060937500000000711e+01,-1.276562500000000888e+01,-1.178125000000000711e+01,-7.296875000000005329e+00,-7.046875000000005329e+00,-3.687500000000002665e+00,-2.343750000000000888e+00,-4.218750000000001776e+00,-3.078125000000001776e+00,-3.218750000000001776e+00,-4.375000000000004441e-01,3.093750000000001776e+00,7.484375000000004441e+00,8.687500000000005329e+00,7.046875000000005329e+00,6.046875000000003553e+00,8.750000000000006661e-01,-1.031250000000000444e+00,-1.031250000000000666e+00,-2.546875000000001776e+00,-2.171875000000001776e+00,-2.296875000000001776e+00,-2.421875000000001776e+00,-1.875000000000001554e+00,2.515625000000001776e+00,8.234375000000007105e+00,1.045312500000000711e+01,1.325000000000000888e+01,8.875000000000007105e+00,-1.109375000000001332e+00,-6.406250000000005329e+00,-1.071875000000000711e+01,-7.718750000000006217e+00,1.953125000000001110e+00,8.390625000000005329e+00,1.007812500000000711e+01,4.750000000000002665e+00,-4.078125000000002665e+00,-1.225000000000000711e+01,-1.295312500000000711e+01,-9.437500000000005329e+00,-4.609375000000002665e+00,2.468750000000001332e+00,1.546875000000000444e+00,1.203125000000000444e+00,-1.156250000000001332e+00,-4.593750000000003553e+00,-1.937500000000000888e+00,-8.593750000000004441e-01,3.718750000000002665e+00,3.828125000000002665e+00,1.718750000000000444e+00,7.968750000000000000e-01,-3.734375000000002665e+00,5.468750000000004441e-01,4.343750000000003553e+00,4.187500000000003553e+00,6.375000000000005329e+00,-2.968750000000000000e-01,-4.500000000000003553e+00,-2.921875000000001776e+00,-4.031250000000002665e+00,2.015625000000001332e+00,2.515625000000001776e+00,-2.656250000000006661e-01,2.750000000000001332e+00,-1.187500000000000444e+00,5.000000000000008882e-01,1.390625000000001332e+00,-6.328125000000003553e+00,-8.203125000000005329e+00,-1.028125000000000711e+01,-9.859375000000007105e+00,1.874999999999986677e-01,7.812500000000004441e+00,1.018750000000000533e+01,1.123437500000000711e+01,3.609375000000002220e+00,-3.031250000000001776e+00,-5.078125000000003553e+00,-7.890625000000005329e+00,-5.640625000000003553e+00,-5.796875000000003553e+00,-5.421875000000003553e+00,-7.968750000000007772e-01,2.265625000000000888e+00,8.546875000000005329e+00,1.134375000000000711e+01,6.906250000000003553e+00,5.625000000000003553e+00,4.484375000000002665e+00,7.171875000000004441e+00,1.692187500000001066e+01,1.815625000000001421e+01,1.348437500000001066e+01,4.000000000000003553e+00,-1.279687500000000711e+01,-1.917187500000001421e+01,-1.842187500000001066e+01,-1.407812500000000711e+01,-2.250000000000001332e+00,2.750000000000001776e+00,2.031250000000001332e+00,5.937500000000001110e-01,-4.421875000000003553e+00,-7.359375000000005329e+00,-4.296875000000002665e+00,8.281250000000009992e-01,5.328125000000003553e+00,1.015625000000000711e+01,1.307812500000000888e+01,1.212500000000000711e+01,1.371875000000000711e+01,1.473437500000001066e+01,8.375000000000005329e+00,3.312500000000001776e+00,-8.250000000000005329e+00,-2.039062500000001421e+01,-2.128125000000001421e+01,-2.378125000000001421e+01,-1.581250000000001066e+01,-5.281250000000003553e+00,-3.125000000000001332e+00,5.609375000000003553e+00,6.093750000000003553e+00,3.140625000000002665e+00,6.218750000000004441e+00,1.875000000000001110e+00,-1.874999999999997780e-01,7.031250000000006661e-01,-1.078125000000000444e+00,1.718750000000001332e+00,6.843750000000003553e+00,8.968750000000005329e+00,8.562500000000005329e+00,5.687500000000003553e+00,-1.343750000000000000e+00,-5.328125000000003553e+00,-5.218750000000003553e+00,-5.593750000000003553e+00,-3.437500000000002220e+00,-2.312500000000001776e+00,-3.218750000000002665e+00,-2.296875000000001776e+00,2.031250000000001110e-01,1.796875000000001110e+00,3.265625000000001776e+00,4.921875000000002665e+00,2.500000000000001332e+00,6.718750000000005551e-01,-1.562500000000000888e+00,-3.984375000000002665e+00,-3.843750000000002665e+00,-4.062500000000002665e+00,-2.343750000000002220e-01,1.593750000000001110e+00,2.562500000000001332e+00,5.781250000000003553e+00,2.578125000000001776e+00,6.250000000000003331e-01,6.562500000000003331e-01,-3.546875000000002665e+00,-2.187500000000001776e+00,1.031250000000000666e+00,2.109375000000001776e+00,6.640625000000004441e+00,8.265625000000005329e+00,8.375000000000005329e+00,8.734375000000005329e+00,6.125000000000004441e+00,3.109375000000002665e+00,-2.875000000000001776e+00,-9.078125000000005329e+00,-1.089062500000000711e+01,-1.292187500000000888e+01,-1.093750000000000711e+01,-7.718750000000006217e+00,-7.109375000000005329e+00,-2.125000000000001332e+00,3.234375000000002220e+00,6.250000000000004441e+00,7.171875000000005329e+00,4.500000000000003553e+00,-2.437500000000001776e+00,-5.125000000000003553e+00,-3.765625000000002665e+00,-3.843750000000003109e+00,1.156250000000000444e+00,3.671875000000002665e+00,3.296875000000001776e+00,5.562500000000003553e+00,4.046875000000003553e+00,-2.812500000000004441e-01,-1.500000000000001110e+00,-3.625000000000003109e+00,-2.343750000000002220e+00,3.500000000000002220e+00,3.203125000000001776e+00,3.937500000000002665e+00,-4.375000000000000000e-01,-7.156250000000005329e+00,-5.343750000000003553e+00,-5.343750000000003553e+00,3.125000000000000000e-01,7.156250000000005329e+00,6.875000000000005329e+00,8.593750000000007105e+00,5.812500000000003553e+00,1.375000000000000888e+00,-7.187500000000002220e-01,-5.484375000000003553e+00,-6.890625000000004441e+00,-6.250000000000004441e+00,-4.312500000000003553e+00,7.500000000000002220e-01,2.937500000000001776e+00,1.609375000000000666e+00,-3.125000000000027756e-02,-4.890625000000002665e+00,-8.265625000000005329e+00,-6.515625000000003553e+00,-7.500000000000004441e+00,-4.546875000000002665e+00,1.546875000000001776e+00,4.046875000000003553e+00,1.145312500000000711e+01,1.406250000000000888e+01,9.500000000000005329e+00,5.906250000000003553e+00,-2.843750000000002220e+00,-6.078125000000004441e+00,-3.265625000000002220e+00,-5.000000000000006661e-01,4.796875000000003553e+00,5.296875000000003553e+00,4.609375000000002665e+00,2.718750000000001776e+00,1.203125000000000666e+00,7.656250000000003331e-01,-2.531250000000001776e+00,-2.562500000000001776e+00,-3.140625000000001776e+00,-1.125000000000000222e+00,2.984375000000002665e+00,3.359375000000002665e+00,3.500000000000002665e+00,2.500000000000002220e-01,-3.328125000000002665e+00,-3.765625000000002665e+00,-3.937500000000002665e+00,-2.781250000000001776e+00,1.187500000000000888e+00,1.343750000000000888e+00,1.250000000000000666e+00,4.078125000000002665e+00,8.906250000000004441e-01,1.390625000000000444e+00,1.781250000000000666e+00,-4.656250000000003553e+00,-5.250000000000003553e+00,-8.187500000000007105e+00,-1.164062500000000711e+01,-6.625000000000003553e+00,-5.968750000000003553e+00,-2.625000000000001332e+00,3.718750000000002220e+00,1.843750000000000888e+00,3.437500000000002220e+00,3.531250000000002220e+00,-1.046875000000000444e+00,1.546875000000000888e+00,3.453125000000001776e+00,3.000000000000001776e+00,7.171875000000003553e+00,5.578125000000002665e+00,6.249999999999977796e-02,-1.765625000000001332e+00,-6.500000000000003553e+00,-7.828125000000003553e+00,-2.578125000000000888e+00,-7.812499999999955591e-02,3.515625000000002665e+00,6.906250000000005329e+00,3.921875000000002665e+00,4.296875000000002665e+00,2.953125000000001776e+00,3.281250000000001110e-01,2.843750000000001776e+00,7.812500000000008882e-01,3.125000000000004441e-01,-1.093750000000000000e-01,-5.375000000000003553e+00,-7.000000000000005329e+00,-6.906250000000005329e+00,-7.281250000000005329e+00,-2.187500000000000888e+00,9.218750000000008882e-01,-8.906250000000003331e-01,1.468750000000001332e+00,-2.203125000000001332e+00,-3.718750000000002220e+00,1.562500000000022204e-02,-3.031250000000001332e+00,-6.406250000000000000e-01,-1.250000000000000888e+00,-4.671875000000003553e+00,-2.687500000000001776e+00,-3.250000000000001776e+00,-1.890625000000001332e+00,-5.625000000000002220e-01,-5.156250000000002220e-01,6.250000000000005551e-01,3.312500000000001776e+00,7.234375000000003553e+00,1.032812500000000711e+01,1.007812500000000711e+01,5.781250000000003553e+00,1.531250000000001332e+00,-2.609375000000001776e+00,-2.796875000000001776e+00,1.109375000000000444e+00,1.968750000000000888e+00,2.093750000000001332e+00,1.375000000000000666e+00,-3.000000000000001776e+00,-2.968750000000001776e+00,-2.250000000000001332e+00,-2.906250000000001776e+00,-1.203125000000000888e+00,-2.468750000000001776e+00,-6.562500000000004441e-01,1.515625000000000888e+00,2.375000000000001332e+00,4.765625000000002665e+00,1.328125000000000444e+00,-1.312500000000000888e+00,-8.750000000000005551e-01,-1.859375000000001332e+00,1.359375000000000666e+00,4.671875000000002665e+00,2.625000000000001776e+00,1.421875000000000888e+00,-2.250000000000001776e+00,-6.390625000000004441e+00,-5.359375000000003553e+00,-3.171875000000001776e+00,2.281250000000001776e+00,6.875000000000005329e+00,9.031250000000005329e+00,7.828125000000005329e+00,4.000000000000001776e+00,2.093750000000001332e+00,-1.437500000000000888e+00,-1.328125000000000888e+00,-1.062500000000000888e+00,-3.812500000000002665e+00,-2.906250000000001776e+00,-2.671875000000001776e+00,-2.937500000000001776e+00,5.625000000000004441e-01,2.187500000000001332e+00,2.812499999999998335e-01,1.203125000000000666e+00,2.031250000000002220e-01,-1.296875000000000888e+00,2.765625000000001332e+00,2.812500000000001332e+00,2.062500000000001332e+00,2.421875000000001776e+00,-2.281250000000000888e+00,-3.093750000000001776e+00,-2.109375000000001332e+00,-2.578125000000001776e+00,7.031250000000004441e-01,2.828125000000001776e+00,3.937500000000002220e+00,6.812500000000003553e+00,6.984375000000003553e+00,4.265625000000001776e+00,5.000000000000000000e-01,-3.375000000000001776e+00,-5.937500000000003553e+00,-5.593750000000003553e+00,-2.843750000000001776e+00,-2.234375000000001332e+00,-3.437500000000004441e-01,1.750000000000000888e+00,1.359375000000000888e+00,2.250000000000001332e+00,-5.156250000000004441e-01,-4.031250000000002665e+00,-4.671875000000002665e+00,-3.734375000000001776e+00,1.937500000000001110e+00,6.828125000000003553e+00,8.687500000000005329e+00,7.796875000000003553e+00,1.421875000000000888e+00,-3.734375000000001776e+00,-6.203125000000003553e+00,-6.718750000000003553e+00,-2.156250000000000888e+00,1.015625000000000888e+00,8.437500000000009992e-01,-4.843750000000001110e-01,-4.265625000000002665e+00,-6.281250000000003553e+00,-3.484375000000002220e+00,3.125000000000022204e-02,3.421875000000002220e+00,5.750000000000003553e+00,2.406250000000001332e+00,-6.875000000000004441e-01,-2.328125000000001332e+00,-4.437500000000002665e+00,-1.984375000000001332e+00,2.656250000000001110e-01,-4.218750000000002776e-01,2.031250000000000555e-01,-9.531250000000007772e-01,-3.046875000000002220e+00,-1.375000000000001110e+00,-6.406250000000004441e-01,7.187500000000006661e-01,2.281250000000001776e+00,1.718750000000001332e+00,1.375000000000000888e+00,-7.031250000000003331e-01,-1.609375000000000888e+00,-2.187500000000001332e+00,-1.312500000000000888e+00,1.250000000000000888e+00,4.109375000000002665e+00,5.640625000000003553e+00,3.718750000000001776e+00,2.250000000000001332e+00,-1.734375000000001110e+00,-2.734375000000001776e+00,-1.390625000000000888e+00,-1.640625000000001110e+00,1.718750000000001665e-01,4.687500000000011102e-02,1.062500000000000888e+00,1.906250000000001332e+00,1.750000000000001110e+00,1.531250000000000888e+00,-2.109375000000001776e+00,-3.312500000000002665e+00,-3.109375000000002665e+00,-3.125000000000002665e+00,1.203125000000000666e+00,1.859375000000001110e+00,4.375000000000004441e-01,3.750000000000003331e-01,-4.828125000000002665e+00,-5.718750000000003553e+00,-4.062500000000003553e+00,-4.000000000000003553e+00,1.343750000000000444e+00,4.000000000000001776e+00,4.265625000000002665e+00,5.937500000000004441e+00,3.421875000000003109e+00,8.593750000000007772e-01,-1.281250000000000888e+00,-4.078125000000002665e+00,-3.187500000000001776e+00,-2.625000000000001776e+00,1.000000000000000000e+00,4.656250000000002665e+00,3.484375000000002220e+00,5.437500000000003553e+00,1.593750000000001332e+00,-1.968750000000000888e+00,3.593750000000004996e-01,-2.187500000000001332e+00,1.296875000000001332e+00,3.093750000000002220e+00,-4.843750000000003331e-01,4.687500000000003331e-01,-2.640625000000001776e+00,-1.812500000000001332e+00,1.296875000000000888e+00,1.671875000000001332e+00,3.406250000000002665e+00,-7.656250000000002220e-01,-3.187500000000001776e+00,-3.953125000000002665e+00,-4.921875000000003553e+00,1.171875000000001110e+00,4.000000000000002665e+00,3.859375000000002665e+00,4.578125000000003553e+00,-2.062500000000001776e+00,-6.500000000000003553e+00,-6.390625000000003553e+00,-7.984375000000005329e+00,-2.484375000000001332e+00,2.281250000000001776e+00,2.703125000000001776e+00,4.562500000000002665e+00,6.562500000000003553e+00,1.571875000000000711e+01,3.395312500000001421e+01,5.967187500000002842e+01,7.084375000000004263e+01,6.106250000000004263e+01,3.173437500000002842e+01
-4.793750000000002132e+01,-8.012500000000004263e+01,-2.787500000000001421e+01,0.000000000000000000e+00,1.250000000000000555e-01,1.250000000000000555e-01,0.000000000000000000e+00,6.250000000000002776e-02,0.000000000000000000e+00,-1.875000000000000833e-01,-1.875000000000000833e-01,1.250000000000000833e-01,3.750000000000002220e-01,0.000000000000000000e+00,-3.750000000000002220e-01,-1.250000000000000833e-01,6.250000000000002776e-02,-6.250000000000002776e-02,6.250000000000002776e-02,3.125000000000001665e-01,1.875000000000001110e-01,-1.875000000000001110e-01,-3.125000000000001665e-01,-6.250000000000002776e-02,0.000000000000000000e+00,-1.875000000000000833e-01,1.250000000000000555e-01,4.375000000000002220e-01,-6.625000000000003553e+00,-1.950000000000001066e+01,-1.650000000000000711e+01,-5.624999999999982236e-01,6.062500000000003553e+00,6.750000000000001776e+00,3.937500000000001776e+00,-7.812500000000004441e+00,-1.031250000000000533e+01,5.375000000000003553e+00,1.118750000000000533e+01,6.812500000000001776e+00,9.187500000000003553e+00,1.937500000000001332e+00,-7.062500000000003553e+00,-2.625000000000001776e+00,-2.437500000000001776e+00,-5.500000000000003553e+00,5.625000000000000000e-01,5.687500000000002665e+00,5.937500000000002665e+00,8.687500000000003553e+00,2.500000000000000444e+00,-1.175000000000000533e+01,-7.250000000000003553e+00,9.250000000000003553e+00,6.625000000000003553e+00,-3.187500000000000888e+00,3.312500000000000888e+00,4.812500000000001776e+00,-7.375000000000002665e+00,-9.437500000000003553e+00,1.812500000000000888e+00,1.081250000000000355e+01,4.625000000000001776e+00,-3.250000000000001776e+00,5.312500000000002665e+00,8.687500000000003553e+00,-4.562500000000002665e+00,-1.300000000000000711e+01,-4.687500000000001776e+00,8.500000000000003553e+00,3.750000000000002220e+00,-4.312500000000001776e+00,3.875000000000001776e+00,2.750000000000001776e+00,-3.250000000000001332e+00,2.937500000000001332e+00,-9.375000000000000000e-01,-9.187500000000003553e+00,-5.312500000000001776e+00,1.875000000000001332e+00,7.562500000000003553e+00,4.000000000000001776e+00,-5.250000000000001776e+00,-8.812500000000003553e+00,-6.250000000000003553e+00,2.562500000000002220e+00,6.625000000000003553e+00,3.750000000000001332e+00,7.499999999999998890e-01,-6.062500000000003553e+00,-2.125000000000000888e+00,1.325000000000000711e+01,9.562500000000005329e+00,-7.812500000000003553e+00,-1.306250000000000711e+01,-3.500000000000001776e+00,1.293750000000000711e+01,1.425000000000000711e+01,-2.937500000000001776e+00,-7.625000000000004441e+00,-2.812500000000001776e+00,-6.625000000000002665e+00,-1.625000000000000000e+00,1.043750000000000533e+01,7.000000000000003553e+00,-6.687500000000003553e+00,-7.125000000000003553e+00,9.062500000000003553e+00,9.250000000000003553e+00,-6.687500000000002665e+00,-3.437500000000001332e+00,2.000000000000000888e+00,-7.750000000000003553e+00,-3.687500000000001776e+00,1.093750000000000533e+01,8.312500000000003553e+00,-2.250000000000001332e+00,1.625000000000000444e+00,5.312500000000001776e+00,-8.375000000000003553e+00,-1.206250000000000355e+01,3.875000000000002665e+00,1.100000000000000533e+01,4.812500000000002665e+00,-3.937500000000001332e+00,-4.812500000000002665e+00,5.562500000000001776e+00,3.187500000000001776e+00,-7.500000000000002665e+00,5.000000000000000000e-01,5.625000000000001776e+00,-4.062500000000001776e+00,-1.687500000000000444e+00,9.500000000000005329e+00,9.500000000000005329e+00,2.250000000000001332e+00,-4.187500000000001776e+00,-6.812500000000003553e+00,-4.375000000000004441e-01,5.062500000000001776e+00,-3.250000000000002220e+00,-1.206250000000000533e+01,-6.250000000000002665e+00,6.937500000000002665e+00,1.218750000000000533e+01,5.312500000000002665e+00,-3.187500000000001332e+00,-3.062500000000001332e+00,1.937500000000000444e+00,-8.750000000000004441e-01,-8.437500000000003553e+00,-3.437500000000000888e+00,4.000000000000001776e+00,-1.812500000000000888e+00,1.875000000000004441e-01,1.400000000000000533e+01,1.206250000000000355e+01,-7.125000000000003553e+00,-2.000000000000000711e+01,-8.750000000000001776e+00,9.437500000000005329e+00,4.812500000000001776e+00,-6.250000000000000000e-01,9.812500000000005329e+00,9.375000000000000000e-01,-1.850000000000000711e+01,-6.750000000000001776e+00,9.750000000000003553e+00,-2.125000000000001776e+00,-1.268750000000000711e+01,-6.125000000000003553e+00,2.312500000000000888e+00,7.187500000000003553e+00,1.312500000000000000e+00,-5.312500000000002665e+00,4.187500000000002665e+00,7.875000000000003553e+00,-5.062500000000003553e+00,-6.687500000000003553e+00,2.937500000000001776e+00,1.000000000000000888e+00,-1.125000000000000444e+00,4.250000000000001776e+00,4.375000000000004441e-01,-4.937500000000001776e+00,-2.625000000000000888e+00,1.187500000000000444e+00,3.312500000000001776e+00,1.250000000000002220e-01,-2.625000000000001332e+00,-3.500000000000001776e+00,-4.125000000000001776e+00,6.250000000000000000e-02,5.562500000000002665e+00,6.125000000000002665e+00,5.625000000000000000e-01,-5.437500000000002665e+00,-8.375000000000003553e+00,-1.187500000000000000e+00,1.050000000000000355e+01,3.875000000000000888e+00,-2.875000000000001776e+00,4.562500000000001776e+00,-2.125000000000000888e+00,-9.812500000000003553e+00,3.250000000000001776e+00,5.812500000000003553e+00,-4.187500000000001776e+00,-3.750000000000004441e-01,2.937500000000001332e+00,1.437500000000000888e+00,2.812500000000001776e+00,-5.437500000000002665e+00,-7.312500000000003553e+00,4.687500000000001776e+00,1.875000000000000000e+00,-4.625000000000001776e+00,7.062500000000003553e+00,1.062500000000000355e+01,-3.437500000000001776e+00,-8.812500000000003553e+00,-4.812500000000002665e+00,-6.000000000000003553e+00,-2.312500000000001776e+00,8.750000000000003553e+00,8.000000000000003553e+00,3.500000000000001776e+00,4.312500000000001776e+00,-5.687500000000002665e+00,-1.143750000000000533e+01,2.375000000000000888e+00,8.937500000000003553e+00,4.562500000000001776e+00,1.000000000000000666e+00,-9.062500000000003553e+00,-6.750000000000002665e+00,8.687500000000003553e+00,1.875000000000001776e+00,-6.250000000000001776e+00,5.250000000000003553e+00,3.312500000000002220e+00,-3.562500000000001332e+00,8.750000000000007772e-01,-4.875000000000002665e+00,-4.125000000000002665e+00,9.062500000000003553e+00,3.562500000000001776e+00,-5.062500000000002665e+00,-3.062500000000001332e+00,-4.437500000000001776e+00,-1.875000000000000000e-01,5.125000000000001776e+00,8.125000000000004441e-01,-2.750000000000000888e+00,-4.375000000000002220e-01,7.312500000000003553e+00,8.625000000000003553e+00,-5.375000000000002665e+00,-1.506250000000000711e+01,-2.687500000000001776e+00,1.387500000000000533e+01,8.937500000000003553e+00,-3.375000000000001776e+00,-2.437500000000001332e+00,-3.125000000000001110e-01,-5.875000000000003553e+00,-6.437500000000003553e+00,2.937500000000000888e+00,4.750000000000001776e+00,-2.062500000000000444e+00,-1.437500000000000444e+00,2.625000000000001332e+00,7.125000000000002665e+00,8.437500000000003553e+00,-5.062500000000001776e+00,-1.462500000000000711e+01,8.125000000000000000e-01,1.512500000000000711e+01,5.125000000000001776e+00,-9.250000000000005329e+00,-1.231250000000000533e+01,-5.875000000000001776e+00,9.312500000000003553e+00,1.406250000000000711e+01,-1.124999999999999112e+00,-8.000000000000003553e+00,-1.437500000000000888e+00,-1.875000000000000888e+00,-4.687500000000001776e+00,-5.000000000000000000e-01,5.625000000000006661e-01,-2.000000000000000888e+00,2.500000000000000888e+00,5.437500000000002665e+00,5.687500000000002665e+00,6.750000000000003553e+00,-3.562500000000002220e+00,-7.875000000000004441e+00,2.500000000000000888e+00,1.000000000000000444e+00,-5.000000000000001776e+00,-1.000000000000000444e+00,2.187500000000000888e+00,-2.500000000000000000e-01,-3.375000000000001332e+00,-1.187500000000000444e+00,3.500000000000001776e+00,4.562500000000001776e+00,1.250000000000000444e+00,8.750000000000005551e-01,3.625000000000001332e+00,2.499999999999993339e-01,-6.562500000000002665e+00,-6.500000000000002665e+00,2.500000000000000888e+00,6.250000000000002665e+00,3.187500000000001776e+00,-1.812500000000001110e+00,-1.093750000000000533e+01,-4.000000000000001776e+00,1.243750000000000533e+01,2.875000000000000888e+00,-1.381250000000000711e+01,-1.937500000000000000e+00,1.281250000000000711e+01,2.687500000000001776e+00,-2.937500000000000888e+00,1.000000000000000666e+00,-7.250000000000003553e+00,-7.500000000000003553e+00,3.750000000000001776e+00,5.750000000000002665e+00,3.125000000000001332e+00,4.375000000000001776e+00,2.812500000000001776e+00,-9.187500000000003553e+00,-8.687500000000003553e+00,1.218750000000000533e+01,1.068750000000000533e+01,-1.312500000000000533e+01,-9.500000000000003553e+00,1.368750000000000711e+01,8.812500000000003553e+00,-1.118750000000000355e+01,-6.875000000000002665e+00,5.562500000000002665e+00,2.937500000000001332e+00,-5.062500000000001776e+00,-8.812500000000003553e+00,6.250000000000000000e-02,1.143750000000000533e+01,6.000000000000003553e+00,-4.000000000000001776e+00,-4.000000000000001776e+00,-1.312500000000000444e+00,2.437500000000000888e+00,8.375000000000003553e+00,-1.250000000000008882e-01,-1.225000000000000711e+01,2.000000000000000000e+00,1.493750000000000711e+01,-1.250000000000000000e-01,-9.062500000000003553e+00,-4.875000000000001776e+00,-7.312500000000003553e+00,4.375000000000000000e-01,1.006250000000000355e+01,-3.312500000000001776e+00,-1.112500000000000533e+01,5.250000000000001776e+00,1.418750000000000711e+01,-1.875000000000000000e-01,-6.687500000000003553e+00,3.750000000000001776e+00,-2.812500000000000888e+00,-1.100000000000000533e+01,7.750000000000003553e+00,1.268750000000000533e+01,-8.375000000000005329e+00,-8.000000000000005329e+00,5.437500000000002665e+00,-2.562500000000001776e+00,-5.125000000000002665e+00,5.125000000000002665e+00,-3.500000000000001776e+00,-1.356250000000000711e+01,-4.562500000000001776e+00,7.375000000000001776e+00,1.500000000000000533e+01,8.812500000000003553e+00,-8.312500000000003553e+00,-8.812500000000003553e+00,6.250000000000022204e-02,6.250000000000022204e-02,2.500000000000000000e-01,4.375000000000003331e-01,2.812500000000001776e+00,8.750000000000003553e+00,2.625000000000000888e+00,-6.687500000000002665e+00,-8.062500000000003553e+00,-3.312500000000001332e+00,8.500000000000003553e+00,4.250000000000001776e+00,-8.062500000000003553e+00,1.312500000000000888e+00,5.125000000000001776e+00,-1.375000000000000888e+00,4.312500000000001776e+00,2.687500000000000888e+00,-5.312500000000001776e+00,-5.875000000000002665e+00,-6.437500000000003553e+00,6.250000000000000000e-02,1.131250000000000533e+01,1.062500000000000533e+01,-1.812500000000000000e+00,-6.812500000000003553e+00,-1.312500000000001110e+00,-7.750000000000003553e+00,-1.718750000000000711e+01,-4.312500000000001776e+00,1.250000000000000533e+01,1.068750000000000533e+01,8.062500000000003553e+00,3.750000000000000888e+00,-1.287500000000000711e+01,-1.137500000000000533e+01,7.500000000000003553e+00,1.568750000000000711e+01,1.181250000000000533e+01,-1.250000000000000000e+00,-7.000000000000002665e+00,5.625000000000004441e-01,2.312500000000001332e+00,-1.875000000000000555e-01,1.687500000000000888e+00,-1.625000000000000888e+00,-7.437500000000003553e+00,-1.937500000000000888e+00,5.437500000000002665e+00,7.687500000000004441e+00,8.125000000000008882e-01,-1.006250000000000533e+01,6.875000000000000000e-01,8.187500000000003553e+00,-9.750000000000005329e+00,-1.681250000000000711e+01,-4.187500000000001776e+00,7.062500000000002665e+00,2.000000000000000444e+00,-5.062500000000001776e+00,5.875000000000002665e+00,6.687500000000003553e+00,-3.312500000000001332e+00,-3.875000000000001776e+00,-7.437500000000002665e+00,-4.062500000000000888e+00,3.687500000000001332e+00,5.437500000000001776e+00,8.937500000000003553e+00,-4.375000000000001776e+00,-1.693750000000000711e+01,4.812500000000004441e+00,2.275000000000001066e+01,7.250000000000001776e+00,-1.237500000000000533e+01,-1.631250000000000711e+01,-5.062500000000002665e+00,1.468750000000000711e+01,1.475000000000000888e+01,-7.562500000000001776e+00,-1.412500000000000533e+01,4.500000000000001776e+00,1.306250000000000533e+01,-4.937500000000001776e+00,-1.037500000000000355e+01,1.125000000000000711e+01,1.125000000000000711e+01,-1.243750000000000533e+01,-1.081250000000000533e+01,8.687500000000003553e+00,1.368750000000000533e+01,1.875000000000000000e+00,-1.512500000000000711e+01,-1.193750000000000533e+01,6.250000000000003553e+00,1.112500000000000533e+01,1.087500000000000533e+01,7.437500000000003553e+00,-7.187500000000003553e+00,-1.087500000000000533e+01,-1.125000000000000444e+00,-7.500000000000000000e-01,-2.875000000000000888e+00,-2.687500000000001776e+00,-6.312500000000003553e+00,2.500000000000000000e-01,7.062500000000003553e+00,-1.875000000000000000e-01,-5.937500000000003553e+00,-4.000000000000002665e+00,1.250000000000000000e-01,1.937500000000001332e+00,8.750000000000006661e-01,3.875000000000001776e+00,1.068750000000000533e+01,1.437500000000000888e+00,-1.262500000000000711e+01,2.000000000000000000e+00,1.093750000000000355e+01,-9.875000000000005329e+00,-8.125000000000003553e+00,1.375000000000000711e+01,2.562500000000001776e+00,-1.537500000000000711e+01,-1.312500000000000888e+00,7.312500000000003553e+00,1.750000000000001110e+00,1.037500000000000355e+01,8.812500000000003553e+00,-4.687500000000002665e+00,-1.250000000000000888e+00,-4.375000000000001776e+00,-1.806250000000000711e+01,-7.625000000000003553e+00,1.712500000000000711e+01,2.225000000000001066e+01,5.187500000000001776e+00,-1.325000000000000533e+01,-1.643750000000000711e+01,-5.312500000000003553e+00,3.187500000000001776e+00,3.062500000000001776e+00,-1.000000000000000888e+00,-1.437500000000001110e+00,7.687500000000003553e+00,3.437500000000001776e+00,-1.118750000000000533e+01,-5.875000000000002665e+00,4.250000000000002665e+00,9.375000000000002220e-01,2.000000000000000888e+00,1.143750000000000533e+01,1.250000000000000000e-01,-1.643750000000000711e+01,-3.000000000000001776e+00,6.125000000000001776e+00,2.187500000000000888e+00,1.250000000000000711e+01,8.937500000000003553e+00,-1.506250000000000711e+01,-2.025000000000001066e+01,2.687500000000001776e+00,2.043750000000001066e+01,5.500000000000002665e+00,-9.875000000000003553e+00,-6.500000000000002665e+00,-3.000000000000001332e+00,7.375000000000003553e+00,8.687500000000003553e+00,-4.187500000000001776e+00,-2.437500000000000888e+00,-5.000000000000002665e+00,-1.493750000000000711e+01,-3.187500000000000888e+00,9.812500000000005329e+00,1.100000000000000533e+01,1.200000000000000711e+01,6.250000000000000000e-02,-1.343750000000000711e+01,-7.750000000000003553e+00,2.375000000000001332e+00,4.250000000000001776e+00,1.187500000000000444e+00,-2.062500000000000888e+00,-8.812500000000003553e+00,-8.875000000000003553e+00,8.875000000000003553e+00,1.693750000000000711e+01,7.062500000000004441e+00,-1.437500000000000222e+00,-1.325000000000000711e+01,-1.293750000000000711e+01,1.156250000000000711e+01,2.400000000000001066e+01,1.406250000000000533e+01,-8.750000000000000000e-01,-1.200000000000000533e+01,-1.468750000000000711e+01,-1.543750000000000711e+01,-3.062500000000000888e+00,1.475000000000000711e+01,3.187500000000000000e+00,-6.125000000000003553e+00,8.937500000000003553e+00,7.500000000000000000e-01,-1.693750000000000711e+01,-1.687500000000000000e+00,6.812500000000003553e+00,-5.687500000000002665e+00,6.000000000000002665e+00,1.881250000000000711e+01,-2.750000000000001776e+00,-1.381250000000000711e+01,5.312500000000001776e+00,1.912500000000000711e+01,1.293750000000000533e+01,-8.312500000000001776e+00,-1.968750000000000711e+01,-1.156250000000000533e+01,-4.125000000000001776e+00,4.375000000000004441e-01,-4.000000000000001776e+00,-3.375000000000001776e+00,1.143750000000000355e+01,2.187500000000000000e+00,-6.687500000000003553e+00,8.812500000000003553e+00,6.875000000000000000e-01,-1.093750000000000533e+01,8.187500000000001776e+00,1.037500000000000355e+01,-1.406250000000000711e+01,-1.406250000000000711e+01,1.387500000000000711e+01,2.462500000000001066e+01,2.312500000000000000e+00,-1.731250000000000711e+01,-8.562500000000003553e+00,1.625000000000000444e+00,1.687500000000000888e+00,7.562500000000004441e+00,1.875000000000000000e-01,-1.625000000000000711e+01,-1.312500000000000000e+00,1.668750000000000711e+01,-3.312500000000001776e+00,-1.400000000000000711e+01,9.500000000000007105e+00,1.412500000000000711e+01,-5.875000000000002665e+00,-9.937500000000003553e+00,7.500000000000008882e-01,4.312500000000002665e+00,2.500000000000002220e-01,-6.375000000000001776e+00,-7.437500000000002665e+00,9.875000000000007105e+00,1.487500000000000711e+01,-9.500000000000007105e+00,-1.025000000000000711e+01,1.018750000000000355e+01,4.375000000000001776e+00,-6.562500000000002665e+00,-5.562500000000001776e+00,-4.125000000000001776e+00,7.937500000000002665e+00,1.587500000000000711e+01,-1.500000000000000000e+00,-1.425000000000000711e+01,2.812500000000000888e+00,1.787500000000000711e+01,5.062500000000001776e+00,-1.043750000000000533e+01,-1.456250000000000711e+01,-1.193750000000000533e+01,6.625000000000001776e+00,1.681250000000000711e+01,-5.750000000000001776e+00,-2.343750000000000711e+01,-7.312500000000000888e+00,2.018750000000001066e+01,2.337500000000001066e+01,-3.937500000000001776e+00,-2.031250000000000711e+01,-3.437500000000001776e+00,4.687500000000001776e+00,-1.937500000000000666e+00,7.187500000000003553e+00,3.437500000000001776e+00,-1.406250000000000533e+01,1.875000000000000000e-01,1.931250000000000711e+01,4.500000000000001776e+00,-1.312500000000000533e+01,-8.687500000000003553e+00,1.875000000000000222e+00,2.437500000000000888e+00,2.062500000000000888e+00,9.687500000000003553e+00,4.312500000000002665e+00,-9.125000000000003553e+00,-1.118750000000000355e+01,-6.937500000000003553e+00,7.000000000000001776e+00,1.268750000000000533e+01,-1.562500000000000000e+00,-3.687500000000000888e+00,5.937500000000002665e+00,4.125000000000001776e+00,-3.687500000000001776e+00,-3.812500000000002220e+00,1.625000000000000444e+00,-1.937500000000000888e+00,-9.437500000000003553e+00,-4.125000000000001776e+00,9.250000000000003553e+00,1.425000000000000711e+01,-4.375000000000008882e-01,-1.768750000000000711e+01,-5.875000000000001776e+00,1.012500000000000355e+01,-1.562500000000001776e+00,-6.812500000000003553e+00,9.375000000000002220e-01,-3.062500000000001776e+00,-4.375000000000000000e-01,1.212500000000000533e+01,1.443750000000000711e+01,3.187500000000002220e+00,-1.150000000000000533e+01,-1.018750000000000355e+01,-1.812500000000000888e+00,-1.875000000000000278e-01,7.562500000000003553e+00,1.268750000000000533e+01,-8.750000000000017764e-01,-1.406250000000000711e+01,-3.937500000000001776e+00,1.225000000000000533e+01,1.100000000000000355e+01,-4.312500000000002665e+00,-1.962500000000001066e+01,-9.625000000000005329e+00,1.900000000000000711e+01,1.918750000000000711e+01,-1.087500000000000533e+01,-1.850000000000000711e+01,8.937500000000005329e+00,1.512500000000000711e+01,-1.287500000000000711e+01,-1.562500000000000711e+01,9.062500000000005329e+00,1.150000000000000533e+01,3.750000000000000000e-01,-5.375000000000002665e+00,-8.562500000000003553e+00,5.250000000000001776e+00,1.362500000000000533e+01,-2.812500000000001776e+00,-1.012500000000000533e+01,-4.687500000000001776e+00,-2.500000000000002220e-01,1.375000000000000666e+00,-5.187500000000001776e+00,-4.125000000000001776e+00,2.562500000000000888e+00,3.312500000000001776e+00,8.125000000000003553e+00,1.875000000000008882e-01,-1.200000000000000533e+01,1.875000000000000888e+00,7.937500000000003553e+00,-3.625000000000001776e+00,1.000000000000000000e+00,5.375000000000001776e+00,2.062500000000000888e+00,4.562500000000001776e+00,-5.312500000000001776e+00,-1.556250000000000711e+01,-2.812500000000001776e+00,9.937500000000003553e+00,7.875000000000002665e+00,-1.312500000000000888e+00,-5.750000000000002665e+00,3.000000000000001776e+00,6.375000000000003553e+00,-6.875000000000006661e-01,-4.000000000000001776e+00,-2.750000000000000888e+00,4.687500000000001776e+00,5.750000000000001776e+00,-3.125000000000001776e+00,-3.625000000000001776e+00,-4.750000000000001776e+00,-8.750000000000003553e+00,1.500000000000000000e+00,8.500000000000003553e+00,2.687500000000001332e+00,-1.875000000000000888e+00,-6.375000000000002665e+00,-1.187500000000000000e+00,4.562500000000002665e+00,-3.375000000000000888e+00,-1.062500000000000444e+00,4.750000000000001776e+00,-2.500000000000004441e-01,-4.250000000000001776e+00,-7.062500000000003553e+00,-1.812500000000000444e+00,1.075000000000000533e+01,6.375000000000002665e+00,-1.156250000000000355e+01,-9.937500000000003553e+00,8.000000000000003553e+00,1.093750000000000355e+01,3.937500000000001332e+00,5.437500000000001776e+00,6.875000000000000000e-01,-1.268750000000000533e+01,-6.500000000000002665e+00,7.437500000000002665e+00,4.250000000000001776e+00,3.250000000000001776e+00,4.125000000000001776e+00,-7.875000000000003553e+00,-8.812500000000003553e+00,3.312500000000001332e+00,5.500000000000002665e+00,1.562500000000000666e+00,-1.750000000000000888e+00,-6.875000000000002665e+00,-6.500000000000002665e+00,7.937500000000002665e+00,1.343750000000000533e+01,-2.687500000000001776e+00,-7.187500000000003553e+00,-1.437500000000000444e+00,-5.062500000000001776e+00,2.312500000000001776e+00,1.087500000000000533e+01,-1.312500000000000888e+00,-5.250000000000002665e+00,5.250000000000001776e+00,1.875000000000000444e+00,-1.043750000000000533e+01,-8.750000000000003553e+00,4.187500000000001776e+00,8.312500000000003553e+00,4.750000000000001776e+00,4.312500000000001776e+00,1.500000000000000888e+00,-6.500000000000003553e+00,-4.687500000000001776e+00,6.937500000000003553e+00,2.562500000000001776e+00,-5.937500000000003553e+00,1.375000000000000444e+00,-1.500000000000000000e+00,-7.875000000000002665e+00,5.125000000000002665e+00,6.062500000000002665e+00,-5.375000000000002665e+00,3.187500000000001776e+00,4.937500000000002665e+00,-1.025000000000000355e+01,-5.375000000000001776e+00,1.031250000000000533e+01,9.062500000000003553e+00,-3.750000000000001776e+00,-7.312500000000003553e+00,2.187500000000000888e+00,-3.125000000000000000e-01,-7.562500000000003553e+00,5.125000000000001776e+00,9.437500000000003553e+00,-6.875000000000003553e+00,-7.687500000000003553e+00,8.125000000000003553e+00,1.350000000000000711e+01,4.312500000000002665e+00,-1.081250000000000533e+01,-1.568750000000000888e+01,6.250000000000000000e-01,1.325000000000000711e+01,2.562500000000001776e+00,-8.000000000000003553e+00,-6.625000000000002665e+00,-4.375000000000000000e-01,1.050000000000000355e+01,1.106250000000000533e+01,-6.125000000000001776e+00,-1.743750000000000711e+01,-5.562500000000001776e+00,1.106250000000000533e+01,7.500000000000003553e+00,-2.125000000000001332e+00,2.437500000000000888e+00,8.562500000000003553e+00,9.375000000000000000e-01,-1.356250000000000533e+01,-1.162500000000000355e+01,6.000000000000002665e+00,8.687500000000003553e+00,4.374999999999997780e-01,1.937500000000000666e+00,-6.875000000000004441e-01,-1.025000000000000533e+01,-6.937500000000003553e+00,4.312500000000001776e+00,7.062500000000003553e+00,2.687500000000001332e+00,1.750000000000000888e+00,2.562500000000001332e+00,-7.250000000000003553e+00,-1.037500000000000355e+01,6.812500000000002665e+00,8.312500000000003553e+00,-7.125000000000003553e+00,-1.687500000000001776e+00,6.937500000000002665e+00,-3.125000000000001776e+00,-6.687500000000003553e+00,5.625000000000004441e-01,3.000000000000001332e+00,2.750000000000001332e+00,2.000000000000000888e+00,-2.750000000000001776e+00,-3.312500000000001776e+00,4.500000000000001776e+00,2.812500000000000888e+00,-7.562500000000003553e+00,-5.187500000000002665e+00,5.062500000000001776e+00,6.375000000000002665e+00,4.625000000000001776e+00,2.687500000000001332e+00,-6.687500000000003553e+00,-8.500000000000003553e+00,1.187500000000000444e+00,6.562500000000003553e+00,4.875000000000002665e+00,-3.312500000000000888e+00,-1.006250000000000355e+01,-1.375000000000000888e+00,1.362500000000000711e+01,7.812500000000004441e+00,-1.056250000000000355e+01,-8.687500000000003553e+00,2.875000000000000888e+00,2.812500000000000888e+00,-1.000000000000000444e+00,-2.250000000000000888e+00,2.937500000000001332e+00,6.562500000000002665e+00,-1.875000000000000888e+00,-7.875000000000003553e+00,-7.250000000000003553e+00,-1.875000000000000000e-01,1.018750000000000533e+01,1.125000000000001776e+00,-8.937500000000003553e+00,5.562500000000001776e+00,1.087500000000000355e+01,-4.375000000000002665e+00,-6.312500000000003553e+00,3.562500000000001776e+00,-7.500000000000000000e-01,-7.937500000000003553e+00,1.187500000000000888e+00,6.000000000000003553e+00,1.375000000000000444e+00,3.250000000000001776e+00,6.875000000000008882e-01,-2.187500000000000888e+00,-1.062500000000000666e+00,-5.062500000000002665e+00,-1.875000000000000000e-01,6.500000000000003553e+00,4.437500000000001776e+00,1.125000000000000666e+00,-7.875000000000003553e+00,-8.687500000000003553e+00,4.750000000000003553e+00,8.937500000000003553e+00,1.250000000000000000e-01,-1.875000000000000222e+00,3.250000000000001776e+00,-5.812500000000002665e+00,-1.125000000000000533e+01,4.375000000000001776e+00,7.500000000000003553e+00,1.250000000000000278e-01,4.687500000000001776e+00,3.062500000000000888e+00,-6.000000000000002665e+00,-9.250000000000003553e+00,-4.562500000000001776e+00,5.500000000000001776e+00,2.000000000000000000e+00,-4.437500000000001776e+00,6.750000000000003553e+00,8.750000000000003553e+00,-5.625000000000003553e+00,-1.031250000000000533e+01,-3.187500000000001776e+00,2.725000000000001066e+01,8.037500000000004263e+01,5.812500000000003553e+01
-1.117500000000000284e+02,-2.500000000000000555e-01,5.000000000000001110e-01,-5.000000000000001110e-01,2.500000000000000555e-01,2.500000000000000555e-01,-5.000000000000001110e-01,5.000000000000001110e-01,-2.500000000000000555e-01,0.000000000000000000e+00,0.000000000000000000e+00,-2.500000000000000555e-01,5.000000000000001110e-01,0.000000000000000000e+00,-5.000000000000001110e-01,2.500000000000000555e-01,0.000000000000000000e+00,0.000000000000000000e+00,-2.500000000000000555e-01,5.000000000000001110e-01,-2.500000000000000555e-01,2.500000000000000555e-01,-5.000000000000001110e-01,2.500000000000000555e-01,0.000000000000000000e+00,0.000000000000000000e+00,-5.000000000000001110e-01,1.000000000000000222e+00,-5.000000000000001110e-01,-2.500000000000000555e-01,-2.600000000000000711e+01,2.850000000000000711e+01,-2.250000000000000355e+01,2.100000000000000355e+01,-1.275000000000000355e+01,1.350000000000000355e+01,-2.325000000000000355e+01,1.075000000000000178e+01,1.400000000000000355e+01,-1.950000000000000355e+01,1.900000000000000355e+01,1.500000000000000444e+00,-1.925000000000000355e+01,1.925000000000000355e+01,-1.475000000000000355e+01,8.500000000000001776e+00,-1.300000000000000355e+01,1.875000000000000355e+01,-1.400000000000000355e+01,9.750000000000001776e+00,6.750000000000001776e+00,-1.350000000000000355e+01,-1.500000000000000000e+00,3.250000000000000888e+00,1.425000000000000355e+01,-2.000000000000000355e+01,9.500000000000001776e+00,9.000000000000001776e+00,-1.400000000000000355e+01,3.250000000000000888e+00,-4.000000000000000888e+00,5.750000000000001776e+00,9.250000000000001776e+00,-1.550000000000000355e+01,6.000000000000001776e+00,1.325000000000000178e+01,-1.500000000000000355e+01,6.750000000000001776e+00,-1.425000000000000178e+01,1.125000000000000178e+01,9.750000000000001776e+00,-2.225000000000000711e+01,1.475000000000000355e+01,7.000000000000001776e+00,-2.175000000000000711e+01,1.925000000000000711e+01,-2.250000000000000888e+00,-1.475000000000000355e+01,1.350000000000000355e+01,-1.250000000000000355e+01,9.000000000000001776e+00,7.250000000000001776e+00,-1.625000000000000355e+01,1.400000000000000355e+01,-1.750000000000000355e+01,8.500000000000003553e+00,6.250000000000001776e+00,-9.750000000000001776e+00,1.150000000000000355e+01,-6.000000000000001776e+00,-9.250000000000001776e+00,1.250000000000000178e+01,9.500000000000001776e+00,-1.700000000000000355e+01,8.500000000000001776e+00,-1.375000000000000355e+01,1.025000000000000355e+01,1.050000000000000178e+01,-5.250000000000000888e+00,-1.225000000000000355e+01,1.650000000000000355e+01,-1.250000000000000355e+01,-6.000000000000000888e+00,1.875000000000000355e+01,-1.200000000000000355e+01,1.375000000000000355e+01,-2.400000000000000711e+01,1.600000000000000355e+01,8.500000000000001776e+00,-1.150000000000000178e+01,-8.000000000000001776e+00,2.425000000000000711e+01,-2.525000000000000711e+01,7.000000000000000888e+00,3.500000000000000888e+00,6.000000000000001776e+00,-4.000000000000001776e+00,-7.750000000000001776e+00,1.850000000000000355e+01,-1.100000000000000355e+01,-1.075000000000000178e+01,9.250000000000001776e+00,4.750000000000000888e+00,-5.000000000000000888e+00,9.250000000000001776e+00,-1.600000000000000355e+01,8.000000000000001776e+00,1.275000000000000355e+01,-2.200000000000000711e+01,8.250000000000001776e+00,1.000000000000000178e+01,-1.225000000000000178e+01,5.000000000000002220e-01,7.000000000000000888e+00,1.250000000000000888e+00,1.250000000000000000e+00,-3.000000000000000888e+00,1.500000000000000888e+00,-1.100000000000000355e+01,1.850000000000000355e+01,-1.275000000000000355e+01,2.750000000000000444e+00,-1.050000000000000355e+01,9.750000000000003553e+00,7.500000000000000000e-01,5.500000000000000888e+00,-6.250000000000000888e+00,5.000000000000000000e-01,0.000000000000000000e+00,4.250000000000000888e+00,-5.000000000000000888e+00,-9.500000000000003553e+00,1.725000000000000355e+01,-1.000000000000000178e+01,-4.500000000000000888e+00,1.125000000000000355e+01,5.500000000000001776e+00,-5.500000000000001776e+00,-3.250000000000000888e+00,-1.575000000000000355e+01,1.900000000000000355e+01,2.000000000000000000e+00,-1.800000000000000355e+01,1.900000000000000355e+01,2.500000000000001776e+00,-1.475000000000000355e+01,-1.025000000000000178e+01,2.650000000000000711e+01,-1.500000000000000355e+01,-4.250000000000000888e+00,2.750000000000000444e+00,-2.750000000000000444e+00,2.000000000000000444e+00,1.100000000000000178e+01,-1.900000000000000355e+01,1.000000000000000178e+01,6.750000000000001776e+00,-5.250000000000001776e+00,-9.000000000000001776e+00,1.025000000000000178e+01,5.000000000000000000e-01,-1.050000000000000178e+01,1.100000000000000355e+01,2.250000000000000000e+00,-1.650000000000000355e+01,2.075000000000000355e+01,-2.375000000000000711e+01,2.375000000000000711e+01,-1.425000000000000355e+01,2.000000000000000444e+00,6.750000000000001776e+00,-1.625000000000000355e+01,1.675000000000000355e+01,-1.500000000000000355e+01,1.800000000000000355e+01,-1.050000000000000178e+01,1.750000000000000222e+00,1.250000000000000222e+00,-1.325000000000000355e+01,1.550000000000000355e+01,6.000000000000001776e+00,-2.325000000000000711e+01,2.375000000000000711e+01,-6.500000000000001776e+00,-1.125000000000000178e+01,3.750000000000000888e+00,1.550000000000000355e+01,-2.000000000000000355e+01,6.500000000000000888e+00,1.150000000000000355e+01,-2.200000000000000711e+01,2.475000000000000711e+01,-1.375000000000000178e+01,-5.750000000000001776e+00,6.750000000000001776e+00,8.500000000000001776e+00,-1.900000000000000711e+01,1.125000000000000355e+01,9.750000000000001776e+00,-1.075000000000000178e+01,1.000000000000000222e+00,-3.500000000000000888e+00,6.000000000000001776e+00,-1.550000000000000355e+01,1.500000000000000355e+01,3.250000000000000888e+00,-1.200000000000000355e+01,1.600000000000000355e+01,-6.000000000000001776e+00,-1.000000000000000178e+01,1.250000000000000000e+00,1.725000000000000355e+01,-2.100000000000000355e+01,2.125000000000000355e+01,-1.100000000000000178e+01,-1.275000000000000355e+01,1.675000000000000355e+01,5.250000000000000888e+00,-2.475000000000000711e+01,2.075000000000000355e+01,2.750000000000000888e+00,-2.075000000000000711e+01,2.150000000000000711e+01,-7.500000000000001776e+00,-1.525000000000000355e+01,2.125000000000000711e+01,-1.500000000000000000e+00,-1.675000000000000355e+01,2.050000000000000355e+01,-1.700000000000000355e+01,1.250000000000000000e+00,1.400000000000000355e+01,-1.675000000000000355e+01,1.550000000000000355e+01,-1.550000000000000355e+01,1.100000000000000178e+01,2.000000000000000444e+00,1.750000000000000888e+00,-1.300000000000000355e+01,1.000000000000000000e+00,4.750000000000001776e+00,1.450000000000000355e+01,-2.200000000000000711e+01,1.675000000000000355e+01,-1.125000000000000355e+01,8.250000000000001776e+00,-1.175000000000000355e+01,2.250000000000000888e+00,1.400000000000000355e+01,-1.900000000000000355e+01,1.375000000000000355e+01,-7.500000000000001776e+00,3.750000000000000888e+00,4.500000000000000888e+00,4.250000000000000888e+00,-1.775000000000000355e+01,3.500000000000000888e+00,1.250000000000000355e+01,-1.000000000000000000e+00,-6.750000000000001776e+00,0.000000000000000000e+00,-5.000000000000000888e+00,-1.250000000000000888e+00,1.825000000000000355e+01,-8.250000000000000000e+00,-1.025000000000000355e+01,1.425000000000000355e+01,-1.275000000000000355e+01,9.000000000000001776e+00,-1.375000000000000355e+01,1.900000000000000355e+01,-1.875000000000000355e+01,9.250000000000001776e+00,5.250000000000000888e+00,-1.050000000000000178e+01,1.400000000000000355e+01,-5.000000000000000000e-01,-1.825000000000000355e+01,1.625000000000000355e+01,1.000000000000000888e+00,-1.800000000000000355e+01,2.325000000000000711e+01,-2.525000000000000711e+01,2.850000000000000711e+01,-2.875000000000000711e+01,2.075000000000000711e+01,-1.275000000000000355e+01,8.250000000000001776e+00,3.250000000000001332e+00,-1.400000000000000355e+01,2.125000000000000711e+01,-1.875000000000000355e+01,1.475000000000000355e+01,-1.650000000000000355e+01,5.000000000000001776e+00,1.275000000000000178e+01,-1.975000000000000355e+01,2.400000000000000711e+01,-2.075000000000000711e+01,-2.000000000000000000e+00,1.250000000000000355e+01,5.000000000000000888e+00,-1.650000000000000355e+01,-5.000000000000000000e-01,1.325000000000000355e+01,3.250000000000000888e+00,-2.275000000000000711e+01,2.975000000000000711e+01,-2.050000000000000355e+01,-4.750000000000000888e+00,1.675000000000000355e+01,-1.625000000000000355e+01,1.900000000000000355e+01,-1.775000000000000355e+01,1.775000000000000355e+01,-6.750000000000000888e+00,-1.625000000000000355e+01,1.550000000000000355e+01,1.000000000000000355e+01,-1.250000000000000355e+01,-1.300000000000000355e+01,1.900000000000000711e+01,4.000000000000000000e+00,-1.075000000000000178e+01,-8.750000000000001776e+00,1.975000000000000355e+01,-1.500000000000000355e+01,9.500000000000001776e+00,-6.500000000000001776e+00,-1.100000000000000355e+01,2.475000000000000711e+01,-1.625000000000000355e+01,1.275000000000000355e+01,-1.750000000000000355e+01,1.775000000000000355e+01,-1.675000000000000355e+01,1.250000000000000355e+01,6.750000000000000888e+00,-1.925000000000000355e+01,2.750000000000000888e+00,1.600000000000000355e+01,-2.250000000000000000e+00,-1.900000000000000355e+01,2.225000000000000711e+01,-1.825000000000000711e+01,-1.750000000000000000e+00,1.725000000000000355e+01,-6.000000000000000888e+00,-1.400000000000000355e+01,1.150000000000000178e+01,2.500000000000000000e-01,1.300000000000000355e+01,-2.875000000000000711e+01,2.375000000000000711e+01,-1.500000000000000000e+00,-1.950000000000000711e+01,9.500000000000003553e+00,1.725000000000000355e+01,-1.550000000000000355e+01,-9.250000000000001776e+00,1.800000000000000355e+01,-3.750000000000000888e+00,-1.875000000000000355e+01,2.450000000000000711e+01,-9.000000000000001776e+00,-1.175000000000000178e+01,7.750000000000000888e+00,-3.250000000000000888e+00,4.250000000000001776e+00,1.275000000000000178e+01,-1.125000000000000178e+01,-1.000000000000000178e+01,1.900000000000000355e+01,-1.900000000000000355e+01,1.350000000000000355e+01,-5.750000000000001776e+00,0.000000000000000000e+00,1.250000000000000000e+00,1.575000000000000355e+01,-2.975000000000000711e+01,3.000000000000000711e+01,-3.250000000000000711e+01,2.100000000000000355e+01,7.500000000000000888e+00,-2.200000000000000355e+01,8.500000000000000000e+00,1.475000000000000355e+01,-2.425000000000000711e+01,1.700000000000000355e+01,4.500000000000000888e+00,-2.050000000000000355e+01,2.200000000000000355e+01,-2.125000000000000355e+01,7.000000000000000888e+00,6.250000000000001776e+00,-3.750000000000000888e+00,1.600000000000000355e+01,-3.100000000000000711e+01,2.950000000000000711e+01,-1.950000000000000711e+01,3.750000000000001332e+00,-1.600000000000000355e+01,2.125000000000000355e+01,-1.750000000000000222e+00,-1.025000000000000178e+01,2.525000000000000711e+01,-2.150000000000000355e+01,-7.750000000000002665e+00,1.775000000000000355e+01,-9.250000000000001776e+00,1.300000000000000355e+01,3.000000000000000000e+00,-2.350000000000000711e+01,2.825000000000000711e+01,-2.500000000000000711e+01,2.375000000000000711e+01,-2.525000000000000711e+01,2.950000000000000711e+01,-2.975000000000000711e+01,1.275000000000000178e+01,5.000000000000001776e+00,-1.475000000000000355e+01,2.950000000000000711e+01,-3.150000000000000711e+01,6.250000000000000888e+00,2.050000000000000355e+01,-2.025000000000000355e+01,-2.750000000000000888e+00,5.250000000000001776e+00,-1.125000000000000355e+01,2.800000000000000711e+01,-3.450000000000000711e+01,1.775000000000000355e+01,1.500000000000000355e+01,-3.300000000000000711e+01,3.225000000000000711e+01,-2.200000000000000711e+01,-4.000000000000001776e+00,2.225000000000000711e+01,-2.550000000000000711e+01,2.125000000000000355e+01,4.750000000000000888e+00,-3.100000000000000711e+01,1.850000000000000355e+01,4.000000000000000888e+00,1.150000000000000355e+01,-2.200000000000000711e+01,1.350000000000000355e+01,-2.150000000000000355e+01,1.625000000000000355e+01,1.175000000000000178e+01,-1.325000000000000178e+01,-2.000000000000000444e+00,-6.000000000000000888e+00,2.075000000000000355e+01,-7.750000000000000888e+00,-1.525000000000000355e+01,1.075000000000000355e+01,1.725000000000000355e+01,-1.975000000000000355e+01,-7.250000000000000888e+00,1.800000000000000355e+01,-1.000000000000000355e+01,1.550000000000000355e+01,-1.200000000000000355e+01,-1.550000000000000355e+01,2.150000000000000711e+01,-8.250000000000001776e+00,3.000000000000000888e+00,1.150000000000000355e+01,-9.000000000000003553e+00,-7.000000000000001776e+00,4.250000000000000888e+00,6.000000000000001776e+00,-1.700000000000000355e+01,1.900000000000000355e+01,-1.375000000000000355e+01,-7.750000000000002665e+00,2.925000000000000711e+01,-3.350000000000000711e+01,3.150000000000000711e+01,-3.500000000000000711e+01,3.200000000000000711e+01,-2.650000000000000711e+01,2.300000000000000711e+01,-1.825000000000000355e+01,1.250000000000000178e+01,9.500000000000001776e+00,-2.025000000000000355e+01,-2.000000000000000000e+00,2.850000000000000711e+01,-2.250000000000000355e+01,-9.000000000000003553e+00,1.950000000000000711e+01,5.000000000000000000e+00,-2.350000000000000711e+01,5.250000000000001776e+00,1.900000000000000355e+01,-2.375000000000000711e+01,1.275000000000000355e+01,1.725000000000000355e+01,-2.800000000000000711e+01,1.650000000000000355e+01,1.500000000000000000e+00,-1.525000000000000355e+01,-3.500000000000000000e+00,1.075000000000000178e+01,7.000000000000001776e+00,5.250000000000001776e+00,-1.350000000000000355e+01,4.500000000000000888e+00,-1.800000000000000355e+01,2.800000000000000711e+01,-2.975000000000000711e+01,3.125000000000000711e+01,-2.825000000000000711e+01,1.250000000000000355e+01,1.850000000000000355e+01,-3.650000000000000711e+01,2.700000000000000711e+01,-2.025000000000000711e+01,2.300000000000000711e+01,-2.500000000000000711e+01,1.975000000000000355e+01,7.250000000000002665e+00,-2.475000000000000711e+01,2.000000000000001776e+00,2.600000000000000711e+01,-3.625000000000000711e+01,3.025000000000000711e+01,-7.500000000000000000e-01,-9.500000000000001776e+00,-6.500000000000001776e+00,-4.500000000000000000e+00,1.475000000000000355e+01,1.425000000000000355e+01,-3.925000000000000711e+01,3.900000000000000711e+01,-3.175000000000000711e+01,9.750000000000003553e+00,2.275000000000000355e+01,-3.200000000000000711e+01,1.900000000000000355e+01,-1.500000000000000000e+00,-1.250000000000000355e+01,-5.000000000000001776e+00,2.225000000000000711e+01,-2.025000000000000355e+01,1.925000000000000355e+01,4.500000000000001776e+00,-2.675000000000000711e+01,2.350000000000000711e+01,-2.450000000000000711e+01,2.850000000000000711e+01,-2.475000000000000711e+01,1.950000000000000711e+01,-1.425000000000000355e+01,2.250000000000000888e+00,-1.200000000000000355e+01,3.650000000000000711e+01,-3.325000000000000711e+01,2.750000000000000711e+01,-1.625000000000000355e+01,-9.250000000000001776e+00,4.750000000000000000e+00,2.225000000000000711e+01,-1.800000000000000355e+01,2.475000000000000355e+01,-2.850000000000000711e+01,1.175000000000000355e+01,-5.000000000000000888e+00,-2.000000000000000355e+01,2.975000000000000711e+01,-3.000000000000000000e+00,-2.250000000000000711e+01,2.175000000000000711e+01,5.750000000000001776e+00,-2.475000000000000711e+01,3.000000000000001776e+00,2.400000000000000711e+01,-2.750000000000000711e+01,6.000000000000001776e+00,1.925000000000000711e+01,-3.000000000000001776e+00,-2.475000000000000711e+01,2.300000000000000711e+01,-6.000000000000001776e+00,9.250000000000001776e+00,8.250000000000001776e+00,-3.575000000000000711e+01,2.925000000000000711e+01,-2.350000000000000711e+01,7.000000000000000888e+00,1.525000000000000355e+01,-3.650000000000000711e+01,3.400000000000000711e+01,1.500000000000000000e+00,-3.350000000000000711e+01,3.425000000000000711e+01,-2.750000000000000000e+00,-2.675000000000000711e+01,2.275000000000000355e+01,2.500000000000000888e+00,-4.000000000000000888e+00,-2.175000000000000355e+01,2.200000000000000355e+01,-2.500000000000000000e-01,1.550000000000000355e+01,-2.825000000000000711e+01,8.250000000000001776e+00,5.500000000000001776e+00,-8.250000000000001776e+00,1.750000000000000444e+00,1.900000000000000355e+01,-2.875000000000000711e+01,3.000000000000001776e+00,1.775000000000000355e+01,1.750000000000000000e+00,-3.000000000000000711e+01,2.225000000000000355e+01,1.025000000000000355e+01,-1.825000000000000355e+01,9.000000000000001776e+00,-1.325000000000000355e+01,2.200000000000000711e+01,-2.325000000000000711e+01,2.225000000000000355e+01,-2.325000000000000711e+01,5.000000000000001776e+00,2.400000000000000711e+01,-1.575000000000000355e+01,-1.825000000000000355e+01,2.850000000000000711e+01,-6.500000000000000888e+00,-1.550000000000000355e+01,2.275000000000000711e+01,-2.675000000000000711e+01,1.675000000000000355e+01,1.500000000000000444e+00,9.500000000000003553e+00,-2.375000000000000711e+01,9.250000000000001776e+00,9.000000000000001776e+00,5.250000000000001776e+00,-1.675000000000000355e+01,1.050000000000000355e+01,-1.325000000000000355e+01,-6.500000000000001776e+00,3.250000000000000711e+01,-2.200000000000000355e+01,-5.000000000000004441e-01,-1.250000000000000355e+01,1.475000000000000355e+01,1.075000000000000178e+01,-2.500000000000000000e-01,-1.650000000000000355e+01,-6.000000000000001776e+00,3.200000000000000711e+01,-3.950000000000000711e+01,2.525000000000000355e+01,6.250000000000000888e+00,-2.175000000000000355e+01,1.750000000000000000e+00,1.700000000000000355e+01,3.000000000000000000e+00,-2.200000000000000355e+01,1.825000000000000355e+01,-2.250000000000000711e+01,3.075000000000000711e+01,-3.150000000000000711e+01,2.300000000000000711e+01,4.750000000000001776e+00,-2.300000000000000711e+01,2.025000000000000355e+01,-2.150000000000000711e+01,7.000000000000002665e+00,1.525000000000000355e+01,-9.250000000000001776e+00,-1.025000000000000178e+01,2.225000000000000711e+01,-2.050000000000000711e+01,2.250000000000000711e+01,-2.925000000000000711e+01,2.700000000000000711e+01,-1.725000000000000355e+01,8.000000000000001776e+00,-1.500000000000000355e+01,1.625000000000000355e+01,-6.250000000000001776e+00,1.650000000000000355e+01,-2.150000000000000711e+01,-6.000000000000001776e+00,2.250000000000000711e+01,-8.000000000000001776e+00,-1.700000000000000355e+01,2.575000000000000711e+01,-1.875000000000000355e+01,2.500000000000000000e-01,1.325000000000000355e+01,-7.000000000000001776e+00,1.475000000000000355e+01,-1.250000000000000355e+01,-1.100000000000000178e+01,2.100000000000000355e+01,-2.350000000000000711e+01,1.725000000000000355e+01,-1.750000000000000444e+00,6.750000000000001776e+00,-1.125000000000000178e+01,-9.250000000000001776e+00,2.300000000000000355e+01,-1.400000000000000178e+01,1.525000000000000355e+01,-1.575000000000000355e+01,-1.275000000000000355e+01,2.000000000000000355e+01,5.750000000000000888e+00,-2.500000000000000000e-01,-2.400000000000000711e+01,1.100000000000000355e+01,2.125000000000000355e+01,-1.900000000000000355e+01,-1.100000000000000178e+01,1.050000000000000178e+01,1.625000000000000355e+01,-2.875000000000000711e+01,3.250000000000000711e+01,-3.150000000000000711e+01,8.250000000000003553e+00,2.050000000000000355e+01,-1.700000000000000355e+01,-2.000000000000000888e+00,8.500000000000001776e+00,-1.500000000000000355e+01,1.525000000000000355e+01,-4.000000000000000000e+00,-1.850000000000000355e+01,3.125000000000000711e+01,-2.975000000000000711e+01,1.975000000000000355e+01,6.250000000000000888e+00,-2.325000000000000711e+01,7.000000000000002665e+00,1.875000000000000355e+01,-2.275000000000000711e+01,5.500000000000000888e+00,1.800000000000000355e+01,-2.875000000000000711e+01,2.925000000000000711e+01,-1.375000000000000355e+01,-5.250000000000000888e+00,-6.000000000000000888e+00,1.900000000000000355e+01,-1.650000000000000355e+01,2.100000000000000711e+01,-2.350000000000000711e+01,9.750000000000001776e+00,1.150000000000000178e+01,-1.950000000000000355e+01,1.900000000000000355e+01,-1.750000000000000355e+01,6.500000000000001776e+00,1.150000000000000178e+01,-1.525000000000000355e+01,6.500000000000001776e+00,5.000000000000000000e-01,-6.000000000000001776e+00,-8.750000000000003553e+00,2.750000000000000711e+01,-2.800000000000000711e+01,2.200000000000000711e+01,-1.050000000000000178e+01,-1.300000000000000355e+01,2.950000000000000711e+01,-2.475000000000000711e+01,2.750000000000000000e+00,1.900000000000000711e+01,-2.725000000000000711e+01,2.775000000000000711e+01,-2.725000000000000711e+01,1.550000000000000355e+01,-1.050000000000000178e+01,2.300000000000000711e+01,-2.075000000000000711e+01,-3.000000000000000000e+00,8.750000000000001776e+00,3.250000000000000888e+00,-7.500000000000002220e-01,-4.750000000000000888e+00,1.750000000000000355e+01,-2.000000000000000711e+01,-2.500000000000000000e+00,1.400000000000000355e+01,-4.500000000000000888e+00,-6.250000000000000888e+00,1.550000000000000355e+01,-7.500000000000001776e+00,-1.700000000000000355e+01,2.575000000000000711e+01,-2.175000000000000355e+01,2.125000000000000355e+01,-1.850000000000000355e+01,1.400000000000000355e+01,-1.525000000000000355e+01,2.250000000000000000e+00,1.900000000000000711e+01,-1.075000000000000355e+01,-1.100000000000000178e+01,1.950000000000000355e+01,-1.675000000000000355e+01,-1.000000000000000000e+00,1.725000000000000355e+01,-6.250000000000000888e+00,-1.425000000000000355e+01,2.125000000000000355e+01,-1.275000000000000178e+01,7.750000000000001776e+00,-1.775000000000000355e+01,1.250000000000000355e+01,3.250000000000000888e+00,-8.000000000000001776e+00,1.350000000000000355e+01,-1.250000000000000355e+01,1.500000000000000355e+01,-2.500000000000000711e+01,2.050000000000000711e+01,1.750000000000000000e+00,-1.725000000000000355e+01,1.175000000000000355e+01,5.250000000000000888e+00,-1.875000000000000355e+01,7.750000000000001776e+00,1.725000000000000355e+01,-2.525000000000000711e+01,9.500000000000001776e+00,1.525000000000000355e+01,-2.150000000000000711e+01,1.500000000000000000e+00,1.150000000000000355e+01,-5.750000000000000888e+00,1.075000000000000178e+01,-1.975000000000000355e+01,1.100000000000000178e+01,8.000000000000001776e+00,-2.100000000000000355e+01,1.050000000000000178e+01,1.075000000000000178e+01,-9.500000000000001776e+00,-9.750000000000001776e+00,1.500000000000000355e+01,-5.000000000000000888e+00,1.100000000000000178e+01,-1.025000000000000178e+01,-2.750000000000000888e+00,-9.750000000000001776e+00,2.275000000000000355e+01,-8.750000000000000000e+00,-6.750000000000001776e+00,8.500000000000001776e+00,-1.325000000000000355e+01,1.125000000000000178e+01,5.500000000000001776e+00,-3.000000000000000888e+00,-8.500000000000001776e+00,-5.750000000000000888e+00,1.075000000000000178e+01,6.250000000000001776e+00,-1.375000000000000355e+01,1.025000000000000178e+01,-2.750000000000000444e+00,8.000000000000001776e+00,-8.500000000000001776e+00,-9.500000000000001776e+00,5.500000000000001776e+00,1.450000000000000178e+01,-2.050000000000000355e+01,1.725000000000000355e+01,-7.750000000000001776e+00,2.750000000000000888e+00,-1.575000000000000355e+01,1.925000000000000711e+01,-1.350000000000000355e+01,1.600000000000000355e+01,-1.600000000000000355e+01,1.350000000000000355e+01,-1.500000000000000888e+00,-1.675000000000000355e+01,9.000000000000001776e+00,1.550000000000000355e+01,-2.025000000000000711e+01,2.000000000000000888e+00,1.400000000000000355e+01,-9.250000000000001776e+00,-7.000000000000001776e+00,1.300000000000000355e+01,-1.375000000000000355e+01,1.650000000000000355e+01,-1.650000000000000355e+01,2.000000000000000711e+01,-2.525000000000000711e+01,1.950000000000000711e+01,-3.250000000000000888e+00,-5.000000000000001776e+00,-2.000000000000000444e+00,1.250000000000000444e+00,9.500000000000001776e+00,-1.225000000000000355e+01,1.450000000000000355e+01,-5.250000000000000888e+00,-1.575000000000000355e+01,2.200000000000000711e+01,-2.100000000000000355e+01,2.500000000000000711e+01,-2.000000000000000711e+01,1.150000000000000355e+01,-1.825000000000000355e+01,1.875000000000000711e+01,3.000000000000000000e+00,-8.500000000000001776e+00,-9.500000000000001776e+00,1.600000000000000355e+01,-1.075000000000000355e+01,5.000000000000000888e+00,1.250000000000000222e+00,-1.200000000000000178e+01,2.225000000000000711e+01,-1.525000000000000355e+01,5.000000000000000000e-01,5.000000000000001776e+00,-1.575000000000000355e+01,1.725000000000000355e+01,4.250000000000000888e+00,-2.175000000000000711e+01,1.275000000000000355e+01,9.500000000000001776e+00,-9.500000000000001776e+00,-4.750000000000000888e+00,7.750000000000001776e+00,7.500000000000004441e-01,-6.750000000000001776e+00,-6.750000000000000888e+00,2.500000000000000711e+01,-2.850000000000000711e+01,2.175000000000000711e+01,-3.750000000000000888e+00,-1.350000000000000355e+01,2.075000000000000355e+01,-1.750000000000000355e+01,-1.000000000000000888e+00,1.925000000000000711e+01,-2.250000000000000711e+01,2.200000000000000711e+01,-1.125000000000000355e+01,-1.175000000000000178e+01,1.750000000000000355e+01,-1.125000000000000355e+01,1.725000000000000355e+01,-2.400000000000000711e+01,2.050000000000000355e+01,-3.250000000000000888e+00,-1.825000000000000355e+01,1.125000000000000355e+01,1.200000000000000178e+01,-2.175000000000000355e+01,1.825000000000000355e+01,-1.250000000000000000e+00,-1.075000000000000355e+01,1.150000000000000355e+01,-1.875000000000000711e+01,1.325000000000000355e+01,6.000000000000001776e+00,-1.800000000000000355e+01,9.750000000000001776e+00,1.400000000000000355e+01,-2.150000000000000711e+01,1.600000000000000355e+01,-2.325000000000000711e+01,2.775000000000000711e+01,-2.675000000000000711e+01,1.265000000000000284e+02
