-1.385307500000000971e+02,-1.427026250000000971e+02,-1.509526250000000971e+02,-1.656088750000001255e+02,-1.802807500000001255e+02,-1.937026250000001824e+02,-2.063276250000001824e+02,-2.152495000000001824e+02,-2.225932500000001824e+02,-2.240463750000001824e+02,-2.212338750000001824e+02,-2.149526250000001824e+02,-2.064213750000001824e+02,-1.982807500000001824e+02,-1.907182500000001539e+02,-1.864838750000001255e+02,-1.833745000000000971e+02,-1.847026250000000971e+02,-1.882182500000001255e+02,-1.908276250000001824e+02,-1.969526250000001824e+02,-2.054995000000001824e+02,-2.149057500000001824e+02,-2.229213750000001824e+02,-2.328588750000001824e+02,-2.440463750000001824e+02,-2.551401250000001824e+02,-2.679682500000001824e+02,-2.778901250000001824e+02,-2.831088750000001824e+02,-2.844838750000001824e+02,-2.851245000000001824e+02,-2.821557500000001824e+02,-2.753588750000001824e+02,-2.698901250000001824e+02,-2.674526250000001824e+02,-2.696088750000001824e+02,-2.766870000000001824e+02,-2.884057500000001824e+02,-3.016401250000001824e+02,-3.170463750000001824e+02,-3.326088750000001824e+02,-3.461401250000001824e+02,-3.555463750000001824e+02,-3.592182500000001824e+02,-3.609838750000001824e+02,-3.624526250000001824e+02,-3.636557500000001824e+02,-3.644526250000001824e+02,-3.672963750000001824e+02,-3.707182500000001824e+02,-3.765307500000002392e+02,-3.877963750000003529e+02,-3.982026250000003529e+02,-4.067495000000003529e+02,-4.152651250000003529e+02,-4.230151250000003529e+02,-4.282026250000003529e+02,-4.326870000000003529e+02,-4.353745000000003529e+02,-4.349057500000003529e+02,-4.344526250000003529e+02,-4.339526250000003529e+02,-4.325463750000003529e+02,-4.304838750000003529e+02,-4.297651250000003529e+02,-4.260776250000003529e+02,-4.203432500000003529e+02,-4.146088750000003529e+02,-4.088432500000003529e+02,-4.017963750000003529e+02,-3.934526250000003529e+02,-3.843120000000003529e+02,-3.735932500000002392e+02,-3.665463750000002392e+02,-3.616088750000001824e+02,-3.551088750000001824e+02,-3.482963750000001824e+02,-3.440932500000001824e+02,-3.427807500000001824e+02,-3.452182500000001824e+02,-3.513588750000001824e+02,-3.589995000000001824e+02,-3.666245000000002392e+02,-3.753745000000002392e+02,-3.847651250000003529e+02,-3.930307500000003529e+02,-3.997963750000003529e+02,-4.042182500000003529e+02,-4.044057500000003529e+02,-4.011401250000003529e+02,-3.996870000000003529e+02,-4.006713750000003529e+02,-4.013588750000003529e+02,-4.018901250000003529e+02,-4.024213750000003529e+02,-4.031401250000003529e+02,-4.076713750000003529e+02,-4.153432500000003529e+02,-4.211713750000003529e+02,-4.249995000000003529e+02,-4.288120000000003529e+02,-4.326557500000003529e+02,-4.364838750000003529e+02,-4.402338750000003529e+02,-4.420776250000003529e+02,-4.421088750000003529e+02,-4.420932500000003529e+02,-4.420776250000003529e+02,-4.420776250000003529e+02,-4.420463750000003529e+02,-4.420620000000003529e+02,-4.420307500000003529e+02,-4.420151250000003529e+02,-4.420307500000003529e+02,-4.420620000000003529e+02,-4.420776250000003529e+02,-4.420463750000003529e+02,-4.420463750000003529e+02,-4.419995000000003529e+02,-4.419995000000003529e+02,-4.419682500000003529e+02,-4.419213750000003529e+02,-4.418745000000003529e+02,-4.418745000000003529e+02,-4.419057500000003529e+02,-4.419213750000003529e+02,-4.408432500000003529e+02,-4.379995000000003529e+02,-4.342182500000003529e+02,-4.268276250000003529e+02,-4.162182500000003529e+02,-4.041401250000003529e+02,-3.894838750000003529e+02,-3.721870000000002392e+02,-3.541713750000001824e+02,-3.354995000000001824e+02,-3.149995000000001824e+02,-2.981870000000001824e+02,-2.845932500000001824e+02,-2.710307500000001824e+02,-2.577495000000001824e+02,-2.444682500000001824e+02,-2.321401250000001824e+02,-2.215151250000001824e+02,-2.124213750000001824e+02,-2.007026250000001824e+02,-1.873120000000001539e+02,-1.716245000000001255e+02,-1.567651250000000971e+02,-1.439526250000000971e+02,-1.285932500000000971e+02,-1.124370000000000971e+02,-9.451512500000008288e+01,-7.759325000000006867e+01,-5.932762500000005446e+01,-4.431200000000004025e+01,-2.921825000000002603e+01,-1.234325000000001893e+01,1.937999999999988177e+00,1.742237499999999883e+01,3.053175000000000594e+01,4.357862500000001660e+01,5.551612500000002370e+01,6.885987500000003081e+01,8.248487500000004502e+01,9.464112500000005923e+01,1.075786250000000734e+02,1.179223750000000734e+02,1.281723750000000734e+02,1.371255000000000734e+02,1.450161250000000734e+02,1.528598750000000734e+02,1.586255000000000734e+02,1.644223750000000734e+02,1.699223750000000734e+02,1.764067500000000734e+02,1.828130000000001019e+02,1.900005000000001303e+02,1.967661250000001587e+02,2.004223750000001587e+02,2.048598750000001587e+02,2.086567500000001587e+02,2.109067500000001587e+02,2.117192500000001587e+02,2.137973750000001587e+02,2.152348750000001587e+02,2.163755000000001587e+02,2.214692500000001587e+02,2.271880000000001587e+02,2.345005000000001587e+02,2.431098750000001587e+02,2.531723750000001587e+02,2.619223750000001587e+02,2.721255000000001587e+02,2.818911250000001587e+02,2.883130000000001587e+02,2.939223750000001587e+02,2.981098750000001587e+02,3.007192500000001587e+02,3.028130000000001587e+02,3.059692500000001587e+02,3.077192500000001587e+02,3.109067500000001587e+02,3.167973750000001587e+02,3.238442500000001587e+02,3.320786250000001587e+02,3.424223750000001587e+02,3.537036250000001587e+02,3.628755000000002156e+02,3.722973750000002156e+02,3.810473750000002724e+02,3.860005000000003292e+02,3.891255000000003292e+02,3.877192500000003292e+02,3.846567500000003292e+02,3.787348750000002724e+02,3.724848750000002156e+02,3.650005000000001587e+02,3.558755000000001587e+02,3.494536250000001587e+02,3.422036250000001587e+02,3.394536250000001587e+02,3.368911250000001587e+02,3.359223750000001587e+02,3.381098750000001587e+02,3.412505000000001587e+02,3.477505000000001587e+02,3.545786250000001587e+02,3.631567500000001587e+02,3.689848750000002156e+02,3.750786250000002156e+02,3.818755000000002724e+02,3.866880000000003292e+02,3.924223750000003292e+02,3.958598750000003292e+02,3.992817500000003292e+02,4.036880000000003292e+02,4.123755000000003292e+02,4.228911250000003292e+02,4.350161250000003292e+02,4.484380000000003292e+02,4.618755000000003292e+02,4.777505000000003292e+02,4.930942500000003292e+02,5.088130000000003292e+02,5.218442500000003292e+02,5.327661250000003292e+02,5.411255000000003292e+02,5.479848750000003292e+02,5.535786250000003292e+02,5.568911250000003292e+02,5.595005000000003292e+02,5.601567500000003292e+02,5.603598750000003292e+02,5.604380000000003292e+02,5.604848750000003292e+02,5.605161250000003292e+02,5.605161250000003292e+02,5.604692500000003292e+02,5.604067500000003292e+02,5.603286250000003292e+02,5.602192500000003292e+02,5.601098750000003292e+02,5.600161250000003292e+02,5.599067500000003292e+02,5.598130000000003292e+02,5.597348750000003292e+02,5.596723750000003292e+02,5.596255000000003292e+02,5.595630000000003292e+02,5.595005000000003292e+02,5.594067500000003292e+02,5.591411250000003292e+02,5.582973750000003292e+02,5.573286250000003292e+02,5.562348750000003292e+02,5.551098750000003292e+02,5.540161250000003292e+02,5.529692500000003292e+02,5.520005000000003292e+02,5.514223750000003292e+02,5.519848750000003292e+02,5.527973750000003292e+02,5.538598750000003292e+02,5.550005000000003292e+02,5.561411250000003292e+02,5.572348750000003292e+02,5.582505000000003292e+02,5.590473750000003292e+02,5.592817500000003292e+02,5.593598750000003292e+02,5.593286250000003292e+02,5.592661250000003292e+02,5.592348750000003292e+02,5.592505000000003292e+02,5.593286250000003292e+02,5.594223750000003292e+02,5.595317500000003292e+02,5.596723750000003292e+02,5.597661250000003292e+02,5.598286250000003292e+02,5.598442500000003292e+02,5.598286250000003292e+02,5.597973750000003292e+02,5.597817500000003292e+02,5.597661250000003292e+02,5.597973750000003292e+02,5.598911250000003292e+02,5.600161250000003292e+02,5.601880000000003292e+02,5.603442500000003292e+02,5.604536250000003292e+02,5.605005000000003292e+02,5.605161250000003292e+02,5.604223750000003292e+02,5.602505000000003292e+02,5.600005000000003292e+02,5.596880000000003292e+02,5.593911250000003292e+02,5.591411250000003292e+02,5.589848750000003292e+02,5.588755000000003292e+02,5.589223750000003292e+02,5.590786250000003292e+02,5.593755000000003292e+02,5.597505000000003292e+02,5.601567500000003292e+02,5.605630000000003292e+02,5.609223750000003292e+02,5.612348750000003292e+02,5.614223750000003292e+02,5.615317500000003292e+02,5.615473750000003292e+02,5.615161250000003292e+02,5.614536250000003292e+02,5.613911250000003292e+02,5.613286250000003292e+02,5.612973750000003292e+02,5.613130000000003292e+02,5.613598750000003292e+02,5.614380000000003292e+02,5.615161250000003292e+02,5.615786250000003292e+02,5.616255000000003292e+02,5.616880000000003292e+02,5.617505000000003292e+02,5.617973750000003292e+02,5.618286250000003292e+02,5.618442500000003292e+02,5.618598750000003292e+02,5.619223750000003292e+02,5.619848750000003292e+02,5.620630000000003292e+02,5.621255000000003292e+02,5.621880000000003292e+02,5.622505000000003292e+02,5.622973750000003292e+02,5.623442500000003292e+02,5.623442500000003292e+02,5.623442500000003292e+02,5.622817500000003292e+02,5.622036250000003292e+02,5.621098750000003292e+02,5.620005000000003292e+02,5.619067500000003292e+02,5.617973750000003292e+02,5.616880000000003292e+02,5.615473750000003292e+02,5.614067500000003292e+02,5.612661250000003292e+02,5.611255000000003292e+02,5.609848750000003292e+02,5.608130000000003292e+02,5.599692500000003292e+02,5.585473750000003292e+02,5.551567500000003292e+02,5.509223750000003292e+02,5.459848750000003292e+02,5.389848750000003292e+02,5.292192500000003292e+02,5.160942500000003292e+02,5.026411250000003292e+02,4.893442500000003292e+02,4.784067500000003292e+02,4.681723750000003292e+02,4.573130000000003292e+02,4.478598750000003292e+02,4.417192500000003292e+02,4.390786250000003292e+02,4.360317500000003292e+02,4.298755000000003292e+02,4.211255000000003292e+02,4.102817500000003292e+02,3.989067500000003292e+02,3.876255000000003292e+02,3.730786250000002156e+02,3.565317500000001587e+02,3.405005000000001587e+02,3.269067500000001587e+02,3.127661250000001587e+02,2.978598750000001587e+02,2.819380000000001587e+02,2.635161250000001587e+02,2.465786250000001587e+02,2.295942500000001587e+02,2.118130000000001587e+02,1.932973750000001303e+02,1.770630000000001019e+02,1.620161250000000734e+02,1.488598750000000734e+02,1.384380000000000734e+02,1.278286250000000734e+02,1.190317500000000734e+02,1.095005000000000734e+02,1.009536250000000734e+02,9.115675000000005923e+01,8.117237500000004502e+01,7.103175000000003081e+01,5.743800000000003081e+01,4.359425000000001660e+01,2.660987500000000949e+01,1.035987499999999528e+01,-8.421375000000015376e+00,-2.767137500000002603e+01,-4.651512500000004025e+01,-6.628075000000005446e+01,-8.421825000000006867e+01,-1.039838750000000829e+02,-1.217651250000000971e+02,-1.395307500000000971e+02,-1.548745000000000971e+02,-1.691401250000001255e+02,-1.822807500000001539e+02,-1.937963750000001824e+02,-2.027807500000001824e+02,-2.082182500000001824e+02,-2.141870000000001824e+02,-2.197651250000001824e+02,-2.252182500000001824e+02,-2.307651250000001824e+02,-2.360463750000001824e+02,-2.413901250000001824e+02,-2.483432500000001824e+02,-2.560463750000001824e+02,-2.615620000000001824e+02,-2.669213750000001824e+02,-2.711870000000001824e+02,-2.749995000000001824e+02,-2.797026250000001824e+02,-2.864370000000001824e+02,-2.923901250000001824e+02,-2.980932500000001824e+02,-3.049838750000001824e+02,-3.118901250000001824e+02,-3.198432500000001824e+02,-3.266088750000001824e+02,-3.342026250000001824e+02,-3.399682500000001824e+02,-3.471401250000001824e+02,-3.550932500000001824e+02,-3.638276250000001824e+02,-3.719213750000002392e+02,-3.807338750000002960e+02,-3.917338750000003529e+02,-4.007651250000003529e+02,-4.094682500000003529e+02,-4.172182500000003529e+02,-4.240932500000003529e+02,-4.293901250000003529e+02,-4.341713750000003529e+02,-4.374526250000003529e+02,-4.389526250000003529e+02,-4.404682500000003529e+02,-4.415776250000003529e+02,-4.419526250000003529e+02,-4.419526250000003529e+02,-4.419370000000003529e+02,-4.419370000000003529e+02,-4.419213750000003529e+02,-4.419057500000003529e+02,-4.419213750000003529e+02,-4.419526250000003529e+02,-4.420151250000003529e+02,-4.420776250000003529e+02,-4.421245000000003529e+02,-4.421557500000003529e+02,-4.421870000000003529e+02,-4.422182500000003529e+02,-4.422026250000003529e+02,-4.421713750000003529e+02,-4.421245000000003529e+02,-4.420932500000003529e+02,-4.421088750000003529e+02,-4.420932500000003529e+02,-4.420776250000003529e+02,-4.420620000000003529e+02,-4.420776250000003529e+02,-4.421401250000003529e+02,-4.422026250000003529e+02,-4.422338750000003529e+02,-4.422182500000003529e+02,-4.422338750000003529e+02,-4.422338750000003529e+02,-4.422338750000003529e+02,-4.421870000000003529e+02,-4.420932500000003529e+02,-4.419995000000003529e+02,-4.419213750000003529e+02,-4.418588750000003529e+02,-4.418120000000003529e+02,-4.417963750000003529e+02,-4.417807500000003529e+02,-4.418276250000003529e+02,-4.418745000000003529e+02,-4.419213750000003529e+02,-4.419682500000003529e+02,-4.420151250000003529e+02,-4.420463750000003529e+02,-4.420620000000003529e+02,-4.420776250000003529e+02,-4.420463750000003529e+02,-4.420463750000003529e+02,-4.420463750000003529e+02,-4.420463750000003529e+02,-4.420463750000003529e+02,-4.420463750000003529e+02,-4.420463750000003529e+02,-4.420463750000003529e+02,-4.420776250000003529e+02,-4.416401250000003529e+02,-4.412026250000003529e+02,-4.401088750000003529e+02,-4.374213750000003529e+02,-4.346088750000003529e+02,-4.309057500000003529e+02,-4.263901250000003529e+02,-4.190151250000003529e+02,-4.107182500000003529e+02,-4.014370000000003529e+02,-3.919838750000003529e+02,-3.838588750000002960e+02,-3.744213750000002392e+02,-3.636401250000001824e+02,-3.511245000000001824e+02,-3.411401250000001824e+02,-3.321401250000001824e+02,-3.214057500000001824e+02,-3.095620000000001824e+02,-2.953120000000001824e+02,-2.801245000000001824e+02,-2.650151250000001824e+02,-2.510151250000001824e+02,-2.358588750000001824e+02,-2.182026250000001824e+02,-2.009370000000001824e+02,-1.831870000000001539e+02,-1.672495000000001255e+02,-1.510620000000000971e+02,-1.367651250000000971e+02,-1.222807500000000971e+02,-1.074526250000000971e+02,-9.496825000000008288e+01,-8.406200000000006867e+01,-7.495262500000005446e+01,-6.624950000000005446e+01,-5.992137500000005446e+01,-5.210887500000005446e+01,-4.603075000000004735e+01,-4.178075000000004025e+01,-3.639012500000003314e+01,-3.112450000000003314e+01,-2.615575000000002603e+01,-1.979637500000002603e+01,-1.264012500000001893e+01,-5.780750000000015376e+00,4.031749999999991729e+00,1.592237499999999883e+01,2.821925000000000594e+01,4.225050000000001660e+01,5.831300000000003081e+01,7.478175000000004502e+01,9.221925000000005923e+01,1.102348750000000734e+02,1.262817500000000734e+02,1.422817500000000734e+02,1.567192500000000734e+02,1.701098750000001019e+02,1.832661250000001019e+02,1.945161250000001587e+02,2.051411250000001587e+02,2.131880000000001587e+02,2.201567500000001587e+02,2.252817500000001587e+02,2.302036250000001587e+02,2.325161250000001587e+02,2.312661250000001587e+02,2.277973750000001587e+02,2.199223750000001587e+02,2.115786250000001587e+02,2.019380000000001587e+02,1.889848750000001587e+02,1.732348750000001019e+02,1.556255000000000734e+02,1.366255000000000734e+02,1.190005000000000734e+02,1.039692500000000734e+02,8.843800000000004502e+01,7.587550000000003081e+01,6.737550000000003081e+01,6.293800000000003081e+01,6.475050000000003081e+01,7.112550000000003081e+01,7.950050000000003081e+01,9.071925000000004502e+01,1.051880000000000734e+02,1.175161250000000734e+02,1.312505000000000734e+02,1.438598750000000734e+02,1.545630000000000734e+02,1.647348750000000734e+02,1.743286250000000734e+02,1.809848750000001019e+02,1.870317500000001303e+02,1.941567500000001587e+02,1.972348750000001587e+02,1.990786250000001587e+02,1.965942500000001587e+02,1.904380000000001587e+02,1.818286250000001019e+02,1.723286250000001019e+02,1.597505000000000734e+02,1.449067500000000734e+02,1.307817500000000734e+02,1.175473750000000734e+02,1.077348750000000734e+02,1.020630000000000734e+02,9.704737500000005923e+01,9.404737500000004502e+01,9.362550000000004502e+01,9.681300000000004502e+01,1.017192500000000734e+02,1.055473750000000734e+02,1.096255000000000734e+02,1.105942500000000734e+02,1.133598750000000734e+02,1.143755000000000734e+02,1.125473750000000734e+02,1.074223750000000734e+02,9.981300000000007344e+01,9.328175000000005923e+01,8.557862500000004502e+01,8.081300000000003081e+01,7.495362500000003081e+01,7.218800000000003081e+01,7.484425000000003081e+01,8.082862500000004502e+01,9.171925000000005923e+01,1.040473750000000734e+02,1.185005000000000734e+02,1.322661250000000734e+02,1.476255000000000734e+02,1.607192500000000734e+02,1.693130000000000734e+02,1.748442500000000734e+02,1.752661250000000734e+02,1.725473750000000734e+02,1.664692500000000734e+02,1.577817500000000734e+02,1.463286250000000734e+02,1.331255000000000734e+02,1.200473750000000734e+02,1.082973750000000734e+02,9.846925000000007344e+01,8.906300000000004502e+01,8.081300000000003081e+01,7.360987500000003081e+01,6.612550000000003081e+01,6.014112500000003081e+01,5.489112500000003081e+01,4.907862500000003081e+01,4.240675000000001660e+01,3.651612500000000949e+01,3.204737500000000949e+01,2.881300000000000949e+01,2.729737500000000949e+01,2.696925000000000949e+01,2.734425000000000949e+01,2.800050000000000949e+01,3.126612500000000949e+01,3.615675000000000949e+01,4.225050000000001660e+01,4.875050000000002370e+01,5.667237500000003081e+01,6.507862500000003081e+01,7.475050000000003081e+01,8.689112500000004502e+01,9.773487500000007344e+01,1.081567500000000734e+02,1.167973750000000734e+02,1.257973750000000734e+02,1.337505000000000734e+02,1.416411250000000734e+02,1.489536250000000734e+02,1.534536250000000734e+02,1.569848750000000734e+02,1.604223750000000734e+02,1.640630000000000734e+02,1.658442500000000734e+02,1.680630000000000734e+02,1.690942500000000734e+02,1.692817500000000734e+02,1.712505000000000734e+02,1.745161250000000734e+02,1.774848750000000734e+02,1.802348750000000734e+02,1.832817500000000734e+02,1.849223750000000734e+02,1.874223750000001019e+02,1.889067500000001019e+02,1.882505000000001019e+02,1.863598750000001019e+02,1.836880000000000734e+02,1.809848750000000734e+02,1.787817500000000734e+02,1.770942500000000734e+02,1.747505000000000734e+02,1.734223750000000734e+02,1.725630000000000734e+02,1.735005000000000734e+02,1.744223750000000734e+02,1.756098750000000734e+02,1.770161250000000734e+02,1.780942500000000734e+02,1.789380000000000734e+02,1.801723750000000734e+02,1.825473750000000734e+02,1.824067500000000734e+02,1.832817500000000734e+02,1.825161250000000734e+02,1.812817500000000734e+02,1.799067500000000734e+02,1.773442500000000734e+02,1.736255000000000734e+02,1.676723750000000734e+02,1.624536250000000734e+02,1.545786250000000734e+02,1.471880000000000734e+02,1.373130000000000734e+02,1.269380000000000734e+02,1.163130000000000734e+02,1.052505000000000734e+02,9.526612500000005923e+01,8.417237500000004502e+01,7.487550000000003081e+01,6.485987500000003081e+01,5.726612500000003081e+01,5.046925000000003081e+01,4.476612500000001660e+01,3.962550000000001660e+01,3.407862500000000949e+01,2.942237500000000949e+01,2.425050000000000594e+01,2.107862500000000239e+01,1.718799999999999883e+01,1.209424999999999528e+01,8.062999999999991729e+00,3.203624999999989953e+00,-1.608875000000012934e+00,-5.015125000000015376e+00,-8.952625000000018929e+00,-1.404637500000002071e+01,-1.870262500000002603e+01,-2.254637500000002959e+01,-2.817137500000003314e+01,-3.299950000000003314e+01,-3.756200000000004025e+01,-4.442137500000004025e+01,-4.968700000000005446e+01,-5.542137500000005446e+01,-6.160887500000005446e+01,-6.745262500000005446e+01,-7.303075000000005446e+01,-7.790575000000005446e+01,-8.262450000000005446e+01,-8.598387500000005446e+01,-9.009325000000006867e+01,-9.331200000000006867e+01,-9.582762500000009709e+01,-9.910887500000009709e+01,-1.014995000000000971e+02,-1.052182500000000971e+02,-1.082495000000000971e+02,-1.115932500000000971e+02,-1.150307500000000971e+02,-1.186870000000000971e+02,-1.215932500000000971e+02,-1.234370000000000971e+02,-1.256245000000000971e+02,-1.262026250000000971e+02,-1.277651250000000971e+02,-1.290463750000000971e+02,-1.298588750000000971e+02,-1.301088750000000971e+02,-1.312182500000000971e+02,-1.324838750000000971e+02,-1.334526250000000971e+02,-1.350620000000000971e+02,-1.351557500000000971e+02,-1.339682500000000971e+02,-1.338588750000000971e+02,-1.335307500000000971e+02,-1.336713750000000971e+02,-1.337338750000000971e+02,-1.326088750000000971e+02,-1.314682500000000971e+02,-1.319682500000000971e+02,-1.346713750000000971e+02,-1.361713750000000971e+02,-1.378745000000000971e+02,-1.383120000000000971e+02,-1.393432500000000971e+02,-1.418588750000000971e+02,-1.439838750000000971e+02,-1.444995000000000971e+02,-1.436713750000000971e+02,-1.419526250000000971e+02,-1.412807500000000971e+02,-1.413120000000000971e+02,-1.395776250000000971e+02,-1.377182500000000971e+02,-1.365463750000000971e+02,-1.364995000000000971e+02,-1.356401250000000971e+02,-1.365151250000000971e+02,-1.352495000000000971e+02,-1.342338750000000971e+02,-1.342807500000000971e+02,-1.339370000000000971e+02,-1.327807500000000971e+02,-1.307963750000000971e+02,-1.304057500000000971e+02,-1.293120000000000971e+02,-1.293276250000000971e+02,-1.283588750000000971e+02,-1.285776250000000971e+02,-1.287182500000000971e+02,-1.282807500000000971e+02,-1.288745000000000971e+02,-1.290932500000000971e+02,-1.285932500000000971e+02,-1.291245000000000971e+02,-1.303432500000000971e+02,-1.298120000000000971e+02,-1.290151250000000971e+02,-1.300463750000000971e+02,-1.304057500000000971e+02,-1.298588750000000971e+02,-1.299526250000000971e+02,-1.290776250000000971e+02,-1.276713750000000971e+02,-1.267338750000000971e+02,-1.259057500000000971e+02,-1.240151250000000971e+02,-1.225307500000000971e+02,-1.219370000000000971e+02,-1.218588750000000971e+02,-1.208276250000000971e+02,-1.202338750000000971e+02,-1.203901250000000971e+02,-1.210620000000000971e+02,-1.216245000000000971e+02,-1.212807500000000971e+02,-1.209370000000000971e+02,-1.191870000000000971e+02,-1.186870000000000971e+02,-1.176713750000000971e+02,-1.158120000000000971e+02,-1.137026250000000971e+02,-1.114370000000000971e+02,-1.105932500000000971e+02,-1.090151250000000971e+02,-1.095463750000000971e+02,-1.099995000000000971e+02,-1.110307500000000971e+02,-1.128276250000000971e+02,-1.147651250000000971e+02,-1.176088750000000971e+02,-1.196557500000000971e+02,-1.221870000000000971e+02,-1.235620000000000971e+02,-1.251245000000000971e+02,-1.271870000000000971e+02,-1.279995000000000971e+02,-1.293432500000000971e+02,-1.306557500000000971e+02,-1.321088750000000971e+02,-1.334370000000000971e+02,-1.348432500000000971e+02,-1.360620000000000971e+02,-1.364682500000000971e+02,-1.382338750000000971e+02,-1.390151250000000971e+02,-1.394057500000000971e+02,-1.387495000000000971e+02,-1.386245000000000971e+02,-1.386401250000000971e+02,-1.384370000000000971e+02,-1.395776250000000971e+02,-1.403588750000000971e+02,-1.416713750000000971e+02,-1.428432500000000971e+02,-1.457338750000000971e+02,-1.490463750000000971e+02,-1.513276250000000971e+02,-1.540620000000000971e+02,-1.552026250000000971e+02,-1.557807500000000971e+02,-1.570151250000000971e+02,-1.586245000000000971e+02,-1.591557500000000971e+02,-1.587495000000000971e+02,-1.599838750000000971e+02,-1.602963750000000971e+02,-1.615620000000000971e+02,-1.639526250000000971e+02,-1.658901250000000971e+02,-1.665776250000000971e+02,-1.675307500000000971e+02,-1.689526250000000971e+02,-1.689057500000000971e+02,-1.690307500000000971e+02,-1.680776250000000971e+02,-1.667651250000000971e+02,-1.652495000000000971e+02,-1.659370000000000971e+02,-1.674995000000000971e+02,-1.682651250000000971e+02,-1.710776250000000971e+02,-1.753745000000000971e+02,-1.807495000000000971e+02,-1.865307500000001255e+02,-1.927495000000001824e+02,-1.977807500000001824e+02,-2.027963750000001824e+02,-2.087338750000001824e+02,-2.135151250000001824e+02,-2.172182500000001824e+02,-2.217963750000001824e+02,-2.250620000000001824e+02,-2.275620000000001824e+02,-2.308432500000001824e+02,-2.327807500000001824e+02,-2.345151250000001824e+02,-2.358588750000001824e+02,-2.369682500000001824e+02,-2.364526250000001824e+02,-2.373432500000001824e+02,-2.383432500000001824e+02,-2.374526250000001824e+02,-2.377495000000001824e+02,-2.377182500000001824e+02,-2.375932500000001824e+02,-2.380463750000001824e+02,-2.383276250000001824e+02,-2.373745000000001824e+02,-2.362026250000001824e+02,-2.366870000000001824e+02,-2.364526250000001824e+02,-2.369995000000001824e+02,-2.372026250000001824e+02,-2.364682500000001824e+02,-2.365151250000001824e+02,-2.367338750000001824e+02,-2.370151250000001824e+02,-2.365932500000001824e+02,-2.355151250000001824e+02,-2.327182500000001824e+02,-2.299995000000001824e+02,-2.272963750000001824e+02,-2.228588750000001824e+02,-2.181713750000001824e+02,-2.139526250000001824e+02,-2.081870000000001824e+02,-2.026870000000001824e+02,-1.982495000000001824e+02,-1.938120000000001824e+02,-1.903588750000001255e+02,-1.887182500000000971e+02,-1.861401250000000971e+02,-1.830463750000000971e+02,-1.813276250000000971e+02,-1.789838750000000971e+02,-1.749526250000000971e+02,-1.702182500000000971e+02,-1.617338750000000971e+02,-1.532963750000000971e+02,-1.471870000000000971e+02,-1.420463750000000971e+02,-1.392338750000000971e+02
3.428125000000002842e+01,4.382812500000002842e+01,3.926562500000002842e+01,1.648437500000001421e+01,-2.656250000000002220e+00,-2.317187500000001421e+01,-3.510937500000002132e+01,-3.037500000000002132e+01,-2.840625000000001776e+01,-1.814062500000001066e+01,-9.515625000000007105e+00,-5.671875000000003553e+00,9.843750000000005551e-01,3.343750000000001776e+00,8.718750000000007105e+00,1.354687500000001066e+01,1.956250000000001421e+01,2.364062500000001421e+01,2.009375000000001066e+01,1.139062500000000711e+01,-3.484375000000002220e+00,-1.625000000000000711e+01,-1.971875000000001421e+01,-8.578125000000005329e+00,9.734375000000005329e+00,2.660937500000001421e+01,3.289062500000002132e+01,1.871875000000001066e+01,-6.859375000000006217e+00,-3.645312500000002842e+01,-5.695312500000004263e+01,-5.675000000000004263e+01,-3.678125000000002842e+01,-5.156250000000017764e-01,3.707812500000002132e+01,5.995312500000003553e+01,6.360937500000004263e+01,4.656250000000002842e+01,1.590625000000001066e+01,-1.129687500000000711e+01,-3.045312500000001776e+01,-3.801562500000002132e+01,-2.967187500000001421e+01,-1.764062500000001066e+01,-7.968750000000006217e+00,1.921875000000001554e+00,2.015625000000001776e+00,7.812500000000006661e-01,9.453125000000007105e+00,1.210937500000000711e+01,1.759375000000001066e+01,2.084375000000001421e+01,7.171875000000004441e+00,-1.546875000000001332e+00,-9.437500000000005329e+00,-1.660937500000001066e+01,-1.192187500000000711e+01,-9.921875000000007105e+00,-8.812500000000005329e+00,-6.250000000000003553e+00,-6.656250000000004441e+00,-2.359375000000001776e+00,2.390625000000001332e+00,6.171875000000003553e+00,8.921875000000005329e+00,3.703125000000002220e+00,-5.109375000000003553e+00,-1.546875000000001066e+01,-2.264062500000001421e+01,-2.128125000000001066e+01,-8.578125000000003553e+00,1.007812500000000711e+01,2.193750000000001421e+01,2.453125000000001776e+01,1.129687500000000533e+01,-9.640625000000008882e+00,-2.014062500000001421e+01,-1.782812500000001421e+01,-1.218750000000002665e+00,2.221875000000001421e+01,3.765625000000002132e+01,3.948437500000002842e+01,2.850000000000002132e+01,7.875000000000005329e+00,-1.512500000000001066e+01,-3.079687500000002132e+01,-3.665625000000002132e+01,-2.864062500000001776e+01,-8.718750000000007105e+00,8.343750000000005329e+00,1.889062500000001421e+01,1.612500000000001066e+01,1.718750000000008882e-01,-8.578125000000005329e+00,-8.484375000000005329e+00,-7.656250000000000000e-01,1.439062500000001066e+01,1.817187500000001421e+01,1.078125000000000711e+01,1.421875000000001332e+00,-9.562500000000007105e+00,-1.293750000000000888e+01,-9.218750000000007105e+00,-5.515625000000003553e+00,-1.890625000000001332e+00,-1.718750000000001110e-01,-2.031250000000001665e-01,-9.375000000000008327e-02,-4.687500000000004163e-02,1.562500000000000000e-02,1.093750000000000833e-01,6.250000000000005551e-02,9.375000000000006939e-02,7.812500000000005551e-02,3.125000000000002082e-02,0.000000000000000000e+00,-4.687500000000002776e-02,-7.812500000000005551e-02,-1.406250000000000833e-01,-1.250000000000000833e-01,-1.250000000000000833e-01,-3.125000000000000694e-02,1.093750000000000833e-01,1.875000000000001110e-01,2.500000000000001665e-01,1.562500000000001110e-01,4.687500000000004163e-02,-1.156250000000000666e+00,-4.125000000000001776e+00,-7.906250000000003553e+00,-1.529687500000000711e+01,-2.146875000000001421e+01,-2.198437500000001421e+01,-2.139062500000001421e+01,-9.000000000000007105e+00,6.671875000000003553e+00,1.331250000000000711e+01,2.093750000000001421e+01,1.393750000000001243e+01,5.937500000000018874e-01,-4.687499999999987788e-01,-3.250000000000001332e+00,1.406250000000000888e+00,9.265625000000005329e+00,2.578125000000001332e+00,-2.515625000000002220e+00,-6.796875000000005329e+00,-1.150000000000000711e+01,-5.062500000000003553e+00,-2.046875000000001776e+00,-7.968750000000006661e-01,-1.562500000000002220e-01,-1.750000000000000888e+00,1.562499999999994449e-02,-1.218750000000000666e+00,1.265625000000000222e+00,-3.750000000000004441e-01,-1.031250000000000000e+00,4.343750000000002665e+00,5.625000000000003553e+00,8.890625000000005329e+00,7.593750000000003553e+00,1.859375000000001332e+00,-4.828125000000003553e+00,-7.109375000000005329e+00,-6.359375000000004441e+00,-3.203125000000002220e+00,5.546875000000003553e+00,7.703125000000005329e+00,1.139062500000000711e+01,1.312500000000000711e+01,8.359375000000005329e+00,5.828125000000003553e+00,-1.187500000000001332e+00,-7.859375000000005329e+00,-9.734375000000005329e+00,-7.968750000000004441e+00,-2.750000000000001776e+00,4.312500000000002665e+00,9.171875000000005329e+00,9.640625000000007105e+00,8.828125000000007105e+00,6.156250000000003553e+00,4.093750000000002665e+00,1.406250000000000888e+00,-1.796875000000000888e+00,-4.546875000000002665e+00,-8.687500000000005329e+00,-1.090625000000000711e+01,-9.687500000000007105e+00,-9.750000000000007105e+00,-7.984375000000005329e+00,-1.546875000000000222e+00,-1.718750000000000000e-01,5.687500000000004441e+00,1.260937500000000711e+01,1.056250000000000533e+01,1.276562500000000711e+01,1.001562500000000711e+01,2.718750000000001776e+00,1.062500000000000888e+00,-5.406250000000003553e+00,-9.343750000000007105e+00,-9.406250000000005329e+00,-1.217187500000000711e+01,-7.781250000000006217e+00,-6.078125000000004441e+00,-5.234375000000004441e+00,3.593749999999997780e-01,-1.875000000000004441e-01,5.640625000000003553e+00,1.276562500000000888e+01,1.606250000000001066e+01,2.093750000000001421e+01,1.959375000000001421e+01,1.471875000000001066e+01,7.078125000000006217e+00,1.203125000000000666e+00,-6.687500000000005329e+00,-9.812500000000007105e+00,-8.203125000000005329e+00,-9.703125000000005329e+00,-3.390625000000001776e+00,-4.890625000000002665e+00,-6.421875000000003553e+00,-7.984375000000005329e+00,-1.387500000000001066e+01,-1.025000000000000711e+01,-1.114062500000000711e+01,-3.468750000000002665e+00,5.203125000000002665e+00,8.921875000000005329e+00,2.006250000000001421e+01,1.643750000000001066e+01,7.765625000000005329e+00,-1.046875000000000000e+00,-1.909375000000001421e+01,-2.287500000000001421e+01,-1.725000000000001421e+01,-1.307812500000001066e+01,-2.031250000000000000e-01,1.562500000000001332e+00,-2.812500000000001332e+00,-6.250000000000003331e-01,-2.843750000000001776e+00,4.125000000000001776e+00,1.240625000000000711e+01,1.417187500000000888e+01,1.593750000000001066e+01,1.139062500000000711e+01,6.234375000000003553e+00,3.171875000000001776e+00,6.250000000000003331e-01,9.375000000000005551e-02,7.812500000000005551e-02,6.250000000000004163e-02,2.031250000000001388e-01,2.343750000000001665e-01,2.343750000000001665e-01,2.187500000000001665e-01,3.125000000000003469e-02,-1.562499999999999653e-02,-9.375000000000006939e-02,-1.093750000000000833e-01,4.687500000000002082e-02,3.125000000000001388e-02,6.250000000000002776e-02,1.562500000000000000e-02,-1.718750000000001110e-01,-1.875000000000001388e-01,-1.875000000000001388e-01,-6.250000000000005551e-02,2.187500000000001388e-01,5.468750000000003331e-01,1.328125000000000888e+00,2.046875000000001332e+00,2.640625000000001776e+00,2.640625000000001776e+00,5.468750000000003331e-01,-1.843750000000001332e+00,-4.437500000000003553e+00,-6.171875000000005329e+00,-4.671875000000003553e+00,-2.546875000000002220e+00,1.406249999999998890e-01,2.437500000000001332e+00,2.609375000000001332e+00,2.328125000000001332e+00,1.625000000000000888e+00,8.281250000000004441e-01,4.687500000000002220e-01,2.031250000000001110e-01,-7.812500000000005551e-02,-2.656250000000001665e-01,-3.593750000000002220e-01,-5.000000000000003331e-01,-3.906250000000002220e-01,-2.343750000000001665e-01,-9.375000000000005551e-02,2.656250000000002220e-01,4.218750000000003331e-01,4.843750000000003331e-01,5.312500000000004441e-01,2.343750000000001943e-01,-4.687500000000001388e-02,-2.812500000000002220e-01,-5.781250000000004441e-01,-5.468750000000003331e-01,-3.906250000000003331e-01,-2.031250000000001665e-01,1.250000000000000833e-01,2.812500000000001665e-01,3.593750000000002220e-01,4.375000000000003331e-01,4.218750000000003331e-01,4.531250000000003331e-01,4.375000000000003331e-01,3.125000000000002220e-01,1.875000000000001110e-01,-7.812500000000004163e-02,-3.281250000000002220e-01,-5.468750000000003331e-01,-8.125000000000005551e-01,-8.593750000000006661e-01,-8.281250000000006661e-01,-6.250000000000004441e-01,-2.500000000000002220e-01,9.375000000000006939e-02,4.375000000000003331e-01,6.406250000000004441e-01,7.031250000000005551e-01,6.406250000000004441e-01,4.687500000000003886e-01,2.656250000000002220e-01,4.687500000000004163e-02,-1.406250000000001110e-01,-2.656250000000002220e-01,-3.281250000000002220e-01,-2.968750000000002220e-01,-1.875000000000001110e-01,-4.687500000000002776e-02,6.250000000000005551e-02,1.093750000000000833e-01,1.093750000000000833e-01,6.250000000000005551e-02,6.250000000000004163e-02,6.250000000000004163e-02,1.562500000000001041e-02,-1.562500000000001041e-02,-9.375000000000006939e-02,-1.093750000000000833e-01,-4.687500000000004163e-02,1.562500000000000347e-02,6.250000000000004163e-02,0.000000000000000000e+00,-6.250000000000004163e-02,-1.250000000000000833e-01,-4.687500000000002776e-02,1.562500000000001110e-01,2.812500000000002220e-01,4.062500000000003331e-01,2.812500000000002220e-01,4.687500000000005551e-02,-1.093750000000000694e-01,-2.500000000000001665e-01,-1.562500000000000833e-01,1.562500000000000347e-02,1.250000000000000833e-01,2.031250000000001665e-01,1.562500000000001110e-01,4.687500000000004857e-02,6.938893903907229918e-18,-4.687500000000004163e-02,-6.250000000000005551e-02,6.562500000000003331e-01,1.890625000000000888e+00,5.156250000000003553e+00,9.265625000000005329e+00,1.132812500000000711e+01,1.320312500000001066e+01,9.843750000000007105e+00,6.468750000000004441e+00,6.046875000000003553e+00,1.781250000000000666e+00,3.124999999999922284e-02,-9.109375000000005329e+00,-2.143750000000001421e+01,-2.492187500000001421e+01,-2.403125000000001421e+01,-7.078125000000002665e+00,1.278125000000000711e+01,2.456250000000001421e+01,3.193750000000002132e+01,2.296875000000001421e+01,1.171875000000000888e+01,6.250000000000177636e-02,-1.239062500000000711e+01,-1.390625000000001066e+01,-1.493750000000001066e+01,-6.218750000000003553e+00,5.109375000000002665e+00,9.765625000000005329e+00,1.831250000000001066e+01,1.504687500000001066e+01,8.046875000000007105e+00,3.968750000000005329e+00,-1.012500000000000533e+01,-1.704687500000001066e+01,-1.787500000000001066e+01,-1.839062500000001066e+01,-5.234375000000003553e+00,3.687500000000001776e+00,7.421875000000004441e+00,8.218750000000005329e+00,-3.000000000000002220e+00,-7.703125000000005329e+00,-9.531250000000007105e+00,-3.171875000000001776e+00,1.034375000000000711e+01,1.775000000000001421e+01,2.253125000000001421e+01,1.482812500000001066e+01,4.515625000000003553e+00,-5.453125000000003553e+00,-1.182812500000000888e+01,-7.921875000000007105e+00,-3.406250000000003997e+00,3.093750000000000888e+00,6.171875000000003553e+00,3.140625000000001776e+00,-1.093750000000000444e+00,-5.875000000000003553e+00,-1.167187500000000711e+01,-1.309375000000000711e+01,-1.339062500000000711e+01,-1.409375000000001066e+01,-8.906250000000007105e+00,-5.562500000000003553e+00,-4.218750000000008882e-01,8.593750000000005329e+00,1.295312500000000711e+01,1.417187500000000888e+01,9.890625000000005329e+00,-2.406250000000002220e+00,-1.426562500000000888e+01,-1.912500000000001421e+01,-1.545312500000001066e+01,-4.062500000000001776e+00,9.250000000000007105e+00,1.670312500000001066e+01,1.500000000000001066e+01,8.890625000000007105e+00,-9.375000000000044409e-02,-7.140625000000004441e+00,-8.609375000000005329e+00,-7.468750000000005329e+00,-3.640625000000002665e+00,1.515625000000001110e+00,4.843750000000003553e+00,5.890625000000003553e+00,7.343750000000004441e+00,4.515625000000002665e+00,2.796875000000001332e+00,1.984375000000001110e+00,-2.890625000000001776e+00,-3.234375000000002665e+00,-4.843750000000003553e+00,-6.968750000000004441e+00,-5.843750000000003553e+00,-6.359375000000003553e+00,-5.953125000000003553e+00,-4.296875000000002665e+00,-2.921875000000001776e+00,-1.593750000000001110e+00,-5.468750000000004441e-01,-1.718750000000001110e-01,-1.718750000000001110e-01,-6.250000000000004163e-02,0.000000000000000000e+00,1.093750000000000833e-01,2.187500000000001665e-01,2.343750000000001665e-01,2.031250000000001388e-01,7.812500000000005551e-02,-4.687500000000004163e-02,-1.875000000000001665e-01,-2.187500000000001665e-01,-1.875000000000001388e-01,-1.562500000000001110e-01,1.562500000000000694e-02,4.687500000000002776e-02,6.250000000000004163e-02,9.375000000000006939e-02,-1.562500000000001041e-02,3.125000000000002082e-02,7.812500000000005551e-02,6.250000000000005551e-02,7.812500000000006939e-02,1.562500000000001735e-02,-4.687500000000002776e-02,-1.562500000000001041e-02,3.125000000000002082e-02,-1.562500000000001041e-02,-7.812500000000005551e-02,-2.031250000000001388e-01,-3.125000000000002220e-01,-2.187500000000001110e-01,-6.250000000000004163e-02,1.093750000000000833e-01,2.968750000000002220e-01,3.125000000000002220e-01,2.343750000000001665e-01,1.562500000000001110e-01,1.562500000000001388e-02,-6.250000000000005551e-02,-7.812500000000005551e-02,-9.375000000000008327e-02,-1.093750000000000833e-01,-7.812500000000005551e-02,-6.250000000000005551e-02,-4.687500000000004163e-02,4.687500000000004163e-02,4.687500000000004163e-02,4.687500000000004163e-02,4.687500000000004163e-02,-1.562500000000001041e-02,-1.562500000000001041e-02,-1.562500000000001041e-02,-1.562500000000001041e-02,1.562500000000001041e-02,-4.218750000000003331e-01,-8.593750000000006661e-01,-1.953125000000001332e+00,-4.703125000000002665e+00,-5.765625000000003553e+00,-7.718750000000004441e+00,-7.859375000000004441e+00,-4.359375000000002665e+00,-4.906250000000003553e+00,-2.875000000000002220e+00,-3.015625000000002665e+00,-3.328125000000003109e+00,3.171875000000001332e+00,5.140625000000003553e+00,7.437500000000005329e+00,3.453125000000002665e+00,-7.421875000000003553e+00,-1.184375000000000711e+01,-1.256250000000000711e+01,-6.687500000000004441e+00,1.937500000000000888e+00,4.390625000000001776e+00,7.031249999999993339e-01,-3.703125000000003553e+00,-6.359375000000004441e+00,-4.625000000000003553e+00,1.875000000000001332e+00,4.937500000000003553e+00,5.562500000000003553e+00,4.765625000000003553e+00,2.468750000000002220e+00,2.640625000000002665e+00,6.281250000000005329e+00,6.562500000000005329e+00,6.765625000000003553e+00,8.375000000000003553e+00,2.921875000000001332e+00,2.859375000000001776e+00,2.406250000000000888e+00,-2.656250000000001776e+00,-6.093750000000000000e-01,-1.312500000000000666e+00,-2.531250000000001332e+00,-5.781250000000002220e-01,-1.921875000000001332e+00,-4.593750000000003553e+00,-7.656250000000004441e+00,-9.921875000000005329e+00,-1.265625000000000711e+01,-1.218750000000000711e+01,-6.250000000000005329e+00,-2.718750000000002665e+00,4.093750000000003553e+00,9.015625000000005329e+00,6.468750000000004441e+00,6.718750000000005329e+00,3.968750000000002665e+00,2.265625000000001332e+00,4.296875000000002665e+00,4.546875000000002665e+00,4.046875000000002665e+00,3.250000000000002220e+00,5.031250000000003553e+00,5.656250000000003553e+00,1.129687500000000711e+01,1.498437500000001066e+01,1.142187500000000711e+01,1.239062500000000711e+01,8.703125000000007105e+00,7.046875000000005329e+00,1.256250000000000888e+01,1.089062500000000711e+01,7.703125000000005329e+00,5.937500000000004441e+00,-5.625000000000008882e-01,-3.000000000000001776e+00,-1.531250000000001554e+00,-7.687500000000005329e+00,-1.600000000000000711e+01,-2.325000000000001421e+01,-3.287500000000002132e+01,-3.406250000000002132e+01,-2.343750000000001421e+01,-1.425000000000001066e+01,-1.531250000000001776e+00,1.168750000000000711e+01,1.173437500000000711e+01,1.212500000000000888e+01,1.057812500000000711e+01,1.750000000000001332e+00,-8.593750000000004441e-01,-1.328125000000001110e+00,-3.609375000000002665e+00,1.718750000000000444e+00,7.781250000000004441e+00,1.070312500000000711e+01,1.567187500000001066e+01,1.771875000000001066e+01,1.843750000000001066e+01,1.823437500000001066e+01,1.710937500000001066e+01,9.250000000000005329e+00,-2.843750000000002665e+00,-1.153125000000000888e+01,-2.185937500000001421e+01,-2.104687500000001421e+01,-1.543750000000001066e+01,-1.248437500000000711e+01,-4.671875000000002665e+00,-5.062500000000002665e+00,-3.875000000000002220e+00,-1.906250000000000888e+00,-3.796875000000002220e+00,1.062500000000000444e+00,4.156250000000002665e+00,9.328125000000005329e+00,1.493750000000001066e+01,1.601562500000001066e+01,1.251562500000000711e+01,8.437500000000007105e+00,3.843750000000003553e+00,-3.203125000000001776e+00,-5.750000000000003553e+00,-1.489062500000000888e+01,-2.262500000000001421e+01,-2.584375000000001776e+01,-2.764062500000002132e+01,-2.028125000000001421e+01,-1.154687500000000711e+01,5.000000000000008882e-01,9.609375000000007105e+00,1.631250000000000711e+01,2.090625000000001066e+01,1.768750000000001066e+01,1.728125000000001066e+01,1.592187500000001066e+01,1.457812500000001066e+01,1.778125000000001066e+01,1.546875000000000888e+01,8.421875000000005329e+00,1.187500000000000666e+00,-9.671875000000005329e+00,-1.579687500000001066e+01,-1.384375000000000888e+01,-1.231250000000000711e+01,-5.625000000000004441e+00,1.328125000000000222e+00,3.750000000000001776e+00,8.296875000000003553e+00,7.609375000000003553e+00,2.984375000000001776e+00,-2.281250000000000888e+00,-9.578125000000007105e+00,-1.267187500000000888e+01,-1.156250000000000711e+01,-7.796875000000004441e+00,-3.218750000000002665e+00,-4.062500000000003886e-01,6.875000000000004441e-01,-1.203125000000000888e+00,-2.718750000000001776e+00,-6.125000000000004441e+00,-1.137500000000000711e+01,-1.123437500000000711e+01,-1.107812500000000711e+01,-4.937500000000003553e+00,4.671875000000002665e+00,8.015625000000003553e+00,1.071875000000000711e+01,6.453125000000005329e+00,1.265625000000001332e+00,2.500000000000006661e-01,-7.656250000000001110e-01,1.921875000000001332e+00,4.046875000000002665e+00,4.265625000000002665e+00,5.515625000000003553e+00,6.750000000000005329e+00,5.906250000000003553e+00,3.375000000000001776e+00,-1.562500000000004441e-01,-5.531250000000003553e+00,-8.875000000000005329e+00,-6.390625000000003553e+00,-4.921875000000003553e+00,-1.421875000000000666e+00,5.218750000000003553e+00,5.453125000000003553e+00,8.453125000000005329e+00,1.065625000000000711e+01,5.500000000000003553e+00,4.453125000000002665e+00,1.687500000000001554e+00,-3.296875000000001776e+00,-1.781250000000000888e+00,-3.656250000000002665e+00,-6.625000000000005329e+00,-4.421875000000003553e+00,-5.187500000000003553e+00,-2.812500000000002220e+00,2.953125000000001776e+00,2.390625000000001332e+00,1.484375000000001110e+00,1.093750000000000666e+00,-4.125000000000002665e+00,-2.734375000000001776e+00,1.140625000000001110e+00,9.062500000000011102e-01,5.468750000000003553e+00,5.296875000000003553e+00,3.031250000000001776e+00,3.906250000000002665e+00,3.468750000000002665e+00,3.375000000000002665e+00,5.140625000000003553e+00,6.234375000000004441e+00,4.421875000000003553e+00,5.500000000000004441e+00,3.437500000000003109e+00,1.687500000000001332e+00,3.187500000000002220e+00,1.125000000000000444e+00,-3.281250000000005551e-01,-2.359375000000001776e+00,-7.625000000000005329e+00,-9.296875000000005329e+00,-6.828125000000004441e+00,-6.031250000000003553e+00,7.343750000000004441e-01,2.312500000000000888e+00,-8.281250000000009992e-01,1.765625000000000888e+00,-3.437500000000001776e+00,-2.015625000000000888e+00,2.187500000000001776e+00,-1.218750000000000888e+00,1.812500000000000888e+00,1.046875000000000666e+00,-1.640625000000001110e+00,4.531250000000005551e-01,6.406250000000006661e-01,-7.031250000000006661e-01,-6.093750000000004441e-01,7.343750000000006661e-01,-8.906250000000005551e-01,2.062500000000001776e+00,4.625000000000003553e+00,2.421875000000001776e+00,3.437500000000002665e+00,4.687500000000000000e-02,-3.453125000000002220e+00,-4.421875000000003553e+00,-4.156250000000003553e+00,-2.093750000000001776e+00,-7.500000000000006661e-01,1.921875000000001332e+00,-1.406250000000001110e+00,-2.937500000000002220e+00,-2.859375000000001776e+00,-4.828125000000003553e+00,1.312500000000001332e+00,4.468750000000003553e+00,5.687500000000004441e+00,7.093750000000005329e+00,9.062500000000006661e-01,-4.437500000000002665e+00,-7.593750000000005329e+00,-1.000000000000000711e+01,-6.062500000000004441e+00,-1.546875000000001332e+00,2.328125000000001332e+00,6.671875000000004441e+00,4.859375000000003553e+00,3.921875000000002665e+00,2.187500000000004441e-01,-5.515625000000003553e+00,-4.296875000000003553e+00,-5.250000000000003553e+00,-2.281250000000001776e+00,2.406250000000001776e+00,5.468750000000002220e-01,9.374999999999983347e-02,-1.078125000000000888e+00,-1.015625000000000444e+00,1.546875000000001332e+00,4.531250000000003553e+00,4.218750000000003553e+00,7.968750000000004441e-01,1.171875000000000888e+00,-6.875000000000004441e-01,6.875000000000004441e-01,3.156250000000002220e+00,-1.765625000000001332e+00,-3.453125000000002665e+00,-5.750000000000003553e+00,-7.453125000000004441e+00,-3.234375000000001776e+00,-1.218750000000000444e+00,1.437500000000000888e+00,3.328125000000002220e+00,3.906250000000002220e+00,3.859375000000001776e+00,1.250000000000000888e+00,9.531250000000007772e-01,-1.546875000000000888e+00,-3.062500000000001776e+00,-1.390625000000000888e+00,-2.656250000000001776e+00,-2.187500000000001776e+00,1.093750000000000444e+00,3.593750000000000000e-01,1.843750000000001110e+00,3.875000000000002665e+00,-1.093750000000000000e-01,1.671875000000000666e+00,1.015625000000000000e+00,-1.531250000000001332e+00,1.531250000000000666e+00,-7.500000000000006661e-01,-1.531250000000001332e+00,-3.437500000000003331e-01,-1.062500000000000666e+00,7.812500000000004441e-01,2.250000000000001776e+00,2.765625000000001776e+00,6.718750000000003331e-01,-2.218750000000001776e+00,-3.640625000000002665e+00,-4.671875000000003553e+00,-2.171875000000001332e+00,8.593750000000004441e-01,1.859375000000000888e+00,1.593750000000000888e+00,-4.218750000000003331e-01,-1.906250000000001332e+00,-1.750000000000000888e+00,1.484375000000000888e+00,4.890625000000002665e+00,5.796875000000003553e+00,4.890625000000003553e+00,-1.312500000000001554e+00,-5.375000000000003553e+00,-6.343750000000003553e+00,-5.937500000000003553e+00,6.249999999999977796e-02,2.125000000000001332e+00,2.234375000000001332e+00,1.312500000000000888e+00,-2.421875000000001776e+00,-3.187500000000002220e+00,-1.593750000000001110e+00,1.640625000000000888e+00,6.109375000000003553e+00,1.006250000000000711e+01,8.468750000000005329e+00,6.015625000000005329e+00,-4.218750000000000000e-01,-7.890625000000005329e+00,-7.156250000000005329e+00,-8.125000000000005329e+00,-1.687500000000000000e+00,5.625000000000004441e+00,4.750000000000003553e+00,6.687500000000005329e+00,7.812500000000004441e-01,-5.343750000000003553e+00,-4.953125000000003553e+00,-5.625000000000003553e+00,-1.562500000000000000e-01,4.937500000000003553e+00,4.593750000000002665e+00,3.921875000000002665e+00,-1.796875000000001554e+00,-6.593750000000004441e+00,-6.312500000000004441e+00,-6.625000000000005329e+00,-7.968750000000008882e-01,3.937500000000001776e+00,6.578125000000003553e+00,1.067187500000000711e+01,6.796875000000004441e+00,4.093750000000002665e+00,-1.515625000000000444e+00,-7.765625000000005329e+00,-6.171875000000005329e+00,-5.312500000000003553e+00,-2.343750000000004441e-01,2.906250000000001776e+00,1.578125000000000888e+00,-1.250000000000002220e-01,-3.531250000000002220e+00,-1.812500000000000888e+00,2.968750000000000555e-01,2.671875000000001332e+00,5.750000000000003553e+00,2.953125000000001776e+00,7.656250000000005551e-01,-6.093750000000003331e-01,-4.406250000000003553e+00,-4.296875000000003553e+00,-4.718750000000003553e+00,-5.281250000000003553e+00,-2.359375000000001332e+00,-1.546875000000000666e+00,2.000000000000001332e+00,5.625000000000003553e+00,8.000000000000003553e+00,1.107812500000000533e+01,1.020312500000000533e+01,6.562500000000003553e+00,1.875000000000000000e-01,-3.843750000000002665e+00,-6.562500000000003553e+00,-5.781250000000003553e+00,4.218750000000002220e-01,5.468750000000002220e-01,2.015625000000000888e+00,2.031250000000000888e+00,-4.078125000000002665e+00,-3.125000000000002220e+00,-4.187500000000002665e+00,-4.093750000000002665e+00,-2.812500000000001665e-01,-1.171875000000000666e+00,6.093750000000003331e-01,-1.343750000000000888e+00,-2.671875000000001776e+00,-1.156250000000000888e+00,-2.843750000000002220e+00,1.140625000000000000e+00,3.250000000000001776e+00,1.031250000000000444e+00,1.843750000000000888e+00,-8.281250000000008882e-01,-4.546875000000003553e+00,-1.625000000000000888e+00,-1.484375000000000888e+00,-1.437500000000000666e+00,3.390625000000001776e+00,2.187500000000000888e+00,3.515625000000001776e+00,4.843750000000002665e+00,-2.968750000000000000e-01,-2.640625000000001332e+00,-6.734375000000003553e+00,-7.906250000000003553e+00,-3.859375000000002665e+00,-6.562500000000005551e-01,3.125000000000001776e+00,1.546875000000000888e+00,-3.640625000000001776e+00,-6.578125000000003553e+00,-8.546875000000005329e+00,-5.000000000000002665e+00,3.625000000000002220e+00,8.437500000000005329e+00,9.875000000000005329e+00,9.734375000000005329e+00,2.593750000000001332e+00,-2.484375000000001776e+00,-1.828125000000001110e+00,-5.671875000000003553e+00,-4.578125000000002665e+00,-2.546875000000001332e+00,-8.281250000000003553e+00,-8.953125000000005329e+00,-9.390625000000007105e+00,-9.000000000000005329e+00,3.046875000000002220e+00,2.067187500000001421e+01
4.687500000000003553e+00,4.206250000000002132e+01,4.262500000000002132e+01,-4.437500000000001776e+00,-2.612500000000001421e+01,-1.568750000000000711e+01,-3.125000000000001332e+00,-3.187500000000001332e+00,-1.656250000000000711e+01,-1.012500000000000355e+01,6.437500000000003553e+00,5.312500000000002665e+00,-1.375000000000000888e+00,-4.625000000000001776e+00,-1.812500000000000222e+00,7.625000000000004441e+00,1.025000000000000533e+01,-5.000000000000004441e-01,3.812500000000001776e+00,2.362500000000001066e+01,1.012500000000000533e+01,-2.281250000000000711e+01,-2.218750000000001066e+01,-1.056250000000000355e+01,-1.143750000000000355e+01,2.012500000000001066e+01,5.568750000000002842e+01,1.618750000000000711e+01,-3.656250000000001421e+01,-1.400000000000000178e+01,1.162500000000000711e+01,-3.618750000000002132e+01,-6.587500000000002842e+01,-1.937500000000000000e+00,5.650000000000002842e+01,3.768750000000001421e+01,1.218750000000000355e+01,1.756250000000000711e+01,1.243750000000000711e+01,-1.262500000000000533e+01,-2.856250000000001421e+01,-1.743750000000000711e+01,-2.000000000000001332e+00,-7.625000000000003553e+00,-4.375000000000001776e+00,1.600000000000000711e+01,1.262500000000000711e+01,-6.437500000000002665e+00,-1.956250000000000711e+01,-1.462500000000000533e+01,3.006250000000001421e+01,4.387500000000002132e+01,-1.118750000000000178e+01,-2.956250000000001066e+01,3.750000000000008882e-01,3.312500000000001776e+00,-6.375000000000003553e+00,-2.937500000000001776e+00,1.875000000000001110e-01,-1.875000000000001110e-01,-5.000000000000002220e-01,-5.000000000000001776e+00,-9.250000000000003553e+00,4.562500000000001776e+00,1.900000000000000711e+01,6.000000000000001776e+00,-9.125000000000003553e+00,-6.500000000000002665e+00,-4.312500000000002665e+00,-8.437500000000003553e+00,-1.518750000000000711e+01,-1.768750000000000711e+01,1.356250000000000711e+01,5.625000000000002842e+01,2.893750000000001066e+01,-3.831250000000001421e+01,-4.431250000000001421e+01,-6.937500000000002665e+00,9.750000000000003553e+00,1.175000000000000533e+01,1.700000000000000711e+01,2.031250000000000711e+01,1.693750000000000711e+01,3.187500000000003553e+00,-1.381250000000000711e+01,-1.675000000000000711e+01,-1.012500000000000533e+01,-1.362500000000000533e+01,-2.187500000000000711e+01,-1.250000000000001776e+00,3.993750000000001421e+01,3.600000000000001421e+01,-9.062500000000003553e+00,-3.187500000000001421e+01,-3.018750000000001421e+01,-5.375000000000003553e+00,3.793750000000001421e+01,3.568750000000001421e+01,-8.250000000000003553e+00,-2.206250000000001066e+01,-7.250000000000003553e+00,1.875000000000000833e-01,6.250000000000002776e-02,-6.250000000000002776e-02,6.250000000000002776e-02,-6.250000000000002776e-02,-2.500000000000001110e-01,-1.250000000000000555e-01,6.250000000000002776e-02,2.500000000000001110e-01,1.250000000000000833e-01,-3.125000000000001110e-01,-1.250000000000000555e-01,3.750000000000001665e-01,1.875000000000000833e-01,-2.500000000000001110e-01,-1.875000000000001110e-01,6.250000000000002776e-02,1.250000000000000555e-01,6.250000000000002776e-02,-1.875000000000001110e-01,-3.125000000000001665e-01,0.000000000000000000e+00,3.750000000000001665e-01,3.125000000000001110e-01,-6.250000000000002776e-02,-1.875000000000000833e-01,-6.250000000000002776e-02,6.250000000000002776e-02,6.250000000000002776e-02,-1.875000000000001110e-01,-4.625000000000001776e+00,-1.568750000000000533e+01,-1.318750000000000533e+01,2.624999999999999556e+00,-5.562500000000002665e+00,-3.625000000000000000e+00,3.425000000000001421e+01,2.568750000000001421e+01,-1.956250000000000711e+01,-2.256250000000001066e+01,-8.062500000000003553e+00,3.750000000000002665e+00,2.056250000000001066e+01,1.937500000000000711e+01,-2.875000000000001776e+00,-2.981250000000001066e+01,-2.300000000000000711e+01,2.087500000000001066e+01,2.500000000000001066e+01,-1.306250000000000711e+01,-1.706250000000000711e+01,6.625000000000003553e+00,4.937500000000001776e+00,-5.000000000000002665e+00,5.000000000000002665e+00,4.625000000000003553e+00,-6.312500000000001776e+00,-6.812500000000003553e+00,-2.375000000000001332e+00,1.137500000000000355e+01,1.831250000000000711e+01,-7.500000000000000000e-01,-1.625000000000000711e+01,-7.062500000000003553e+00,1.312500000000000222e+00,1.500000000000000666e+00,2.062500000000000888e+00,-4.375000000000005551e-01,5.125000000000001776e+00,8.937500000000003553e+00,3.125000000000004441e-01,-1.250000000000000444e+00,4.000000000000001776e+00,4.125000000000001776e+00,-7.000000000000003553e+00,-2.100000000000000711e+01,-7.125000000000002665e+00,2.387500000000001066e+01,1.525000000000000533e+01,-1.662500000000000711e+01,-5.250000000000003553e+00,2.037500000000001066e+01,1.687500000000003553e+00,-1.768750000000000711e+01,6.187500000000003553e+00,1.575000000000000711e+01,-1.275000000000000711e+01,-1.612500000000000711e+01,5.187500000000003553e+00,2.187500000000001776e+00,-5.437500000000002665e+00,-9.375000000000006661e-01,-3.312500000000001332e+00,3.750000000000004441e-01,5.937500000000001776e+00,5.312500000000001776e+00,1.200000000000000533e+01,8.125000000000000000e-01,-1.450000000000000711e+01,6.562500000000003553e+00,1.662500000000000711e+01,-1.268750000000000533e+01,-2.256250000000001066e+01,7.062500000000003553e+00,1.487500000000000711e+01,-1.656250000000000711e+01,-1.375000000000000533e+01,1.937500000000000711e+01,8.250000000000003553e+00,-1.800000000000000711e+01,-8.375000000000001776e+00,1.637500000000000711e+01,2.337500000000001066e+01,4.125000000000001776e+00,-1.143750000000000355e+01,2.125000000000001776e+00,1.450000000000000711e+01,-2.375000000000000000e+00,-1.562500000000000711e+01,-7.812500000000003553e+00,2.687500000000001332e+00,6.125000000000002665e+00,-2.812500000000001776e+00,-3.062500000000001776e+00,4.312500000000001776e+00,-4.437500000000002665e+00,-1.506250000000000711e+01,-6.250000000000001776e+00,1.100000000000000533e+01,2.250000000000000000e+00,-9.062500000000003553e+00,4.750000000000002665e+00,1.231250000000000533e+01,1.775000000000000711e+01,1.187500000000000711e+01,-2.200000000000001066e+01,-3.037500000000001421e+01,-8.687500000000003553e+00,5.875000000000002665e+00,1.462500000000000711e+01,7.437500000000002665e+00,-5.125000000000002665e+00,-7.687500000000003553e+00,-1.131250000000000533e+01,-7.500000000000000000e-01,1.493750000000000711e+01,1.100000000000000355e+01,2.625000000000000888e+00,3.125000000000001665e-01,-1.250000000000000555e-01,1.250000000000000555e-01,6.250000000000002776e-02,-6.250000000000002776e-02,0.000000000000000000e+00,-6.250000000000002776e-02,0.000000000000000000e+00,1.875000000000000833e-01,1.875000000000000833e-01,0.000000000000000000e+00,0.000000000000000000e+00,1.250000000000000555e-01,-1.875000000000000833e-01,-3.125000000000001110e-01,1.250000000000000833e-01,2.500000000000001110e-01,6.250000000000002776e-02,-6.250000000000002776e-02,-6.250000000000002776e-02,0.000000000000000000e+00,-1.875000000000001110e-01,-2.500000000000001110e-01,6.250000000000002776e-02,2.500000000000001110e-01,3.125000000000001665e-01,3.125000000000002220e-01,6.250000000000004163e-02,4.375000000000000555e-01,3.125000000000000888e+00,3.812500000000001776e+00,-3.625000000000000888e+00,-8.812500000000003553e+00,-2.625000000000000888e+00,2.937500000000001776e+00,1.937500000000001110e+00,7.500000000000003331e-01,6.875000000000002220e-01,6.250000000000002220e-01,3.125000000000001665e-01,-1.875000000000001110e-01,-6.250000000000005551e-02,3.750000000000001665e-01,1.875000000000000833e-01,-3.125000000000001110e-01,-4.375000000000002220e-01,-6.250000000000005551e-02,2.500000000000001110e-01,-2.500000000000001110e-01,-5.000000000000002220e-01,2.500000000000001110e-01,5.000000000000002220e-01,1.250000000000000555e-01,6.250000000000002776e-02,1.250000000000000555e-01,1.875000000000001110e-01,-6.250000000000002776e-02,-5.000000000000002220e-01,-3.125000000000001665e-01,-6.250000000000004163e-02,-1.250000000000000555e-01,1.250000000000000833e-01,3.125000000000001665e-01,1.250000000000000555e-01,0.000000000000000000e+00,0.000000000000000000e+00,6.250000000000002776e-02,2.500000000000001110e-01,3.750000000000002220e-01,6.250000000000002776e-02,-3.750000000000002220e-01,-1.250000000000000278e-01,2.500000000000001110e-01,-1.250000000000000555e-01,-6.250000000000003331e-01,-5.625000000000003331e-01,-6.250000000000005551e-02,1.875000000000000555e-01,-6.250000000000004163e-02,-6.250000000000001388e-02,3.750000000000001665e-01,5.000000000000002220e-01,1.250000000000000833e-01,-6.250000000000002776e-02,1.250000000000000555e-01,1.250000000000000555e-01,-1.250000000000000555e-01,-1.875000000000000833e-01,-6.250000000000002776e-02,-6.250000000000002776e-02,-1.875000000000000833e-01,-1.250000000000000555e-01,1.875000000000001110e-01,3.125000000000001665e-01,0.000000000000000000e+00,-2.500000000000001110e-01,-6.250000000000002776e-02,1.250000000000000555e-01,1.250000000000000555e-01,1.250000000000000555e-01,-6.250000000000002776e-02,-3.125000000000001665e-01,-1.875000000000001110e-01,1.875000000000001110e-01,3.125000000000001665e-01,6.250000000000002776e-02,-1.875000000000000833e-01,-1.875000000000000833e-01,-6.250000000000002776e-02,-6.250000000000002776e-02,6.250000000000002776e-02,4.375000000000002220e-01,3.750000000000002220e-01,-6.250000000000005551e-02,-3.125000000000002220e-01,-3.125000000000001665e-01,-6.250000000000002776e-02,1.250000000000000555e-01,1.250000000000000555e-01,1.875000000000000833e-01,1.250000000000000555e-01,-1.250000000000000555e-01,-1.875000000000000833e-01,0.000000000000000000e+00,1.875000000000000833e-01,6.250000000000002776e-02,-2.500000000000001110e-01,-1.250000000000000833e-01,2.500000000000001110e-01,2.875000000000000888e+00,7.500000000000002665e+00,9.625000000000003553e+00,6.375000000000003553e+00,-1.000000000000000355e+01,-1.843750000000000711e+01,1.025000000000000355e+01,3.112500000000001421e+01,1.812500000000000000e+00,-3.975000000000002132e+01,-3.825000000000001421e+01,3.187500000000003553e+00,2.537500000000001066e+01,2.000000000000000711e+01,1.437500000000000711e+01,4.375000000000008882e-01,-7.437500000000003553e+00,3.500000000000000444e+00,8.000000000000003553e+00,-7.937500000000001776e+00,-2.337500000000001066e+01,-1.075000000000000711e+01,1.131250000000000355e+01,2.056250000000000711e+01,1.068750000000000355e+01,-1.437500000000000533e+01,-4.687500000000000000e+00,2.412500000000001421e+01,6.000000000000001776e+00,-2.156250000000001421e+01,-1.775000000000001066e+01,-5.687500000000002665e+00,2.562500000000001332e+00,1.812500000000000888e+00,5.437500000000003553e+00,1.543750000000000711e+01,6.937500000000001776e+00,-1.356250000000000711e+01,-2.318750000000001066e+01,-7.062500000000003553e+00,1.481250000000000711e+01,1.525000000000000711e+01,8.562500000000003553e+00,7.500000000000002665e+00,4.062500000000000888e+00,-8.687500000000003553e+00,-1.356250000000000711e+01,-4.875000000000002665e+00,-1.125000000000000444e+00,4.562500000000002665e+00,1.375000000000000711e+01,6.562500000000001776e+00,-1.168750000000000533e+01,-1.306250000000000533e+01,7.000000000000001776e+00,1.206250000000000355e+01,-1.612500000000000711e+01,-2.418750000000001066e+01,8.812500000000003553e+00,1.768750000000000711e+01,-8.375000000000003553e+00,-1.718750000000000711e+01,2.500000000000001776e+00,2.506250000000001066e+01,1.943750000000000711e+01,-9.312500000000005329e+00,-1.625000000000001066e+01,-5.375000000000003553e+00,-1.368750000000000533e+01,-1.531250000000000711e+01,1.493750000000000533e+01,2.918750000000001421e+01,6.125000000000002665e+00,-1.031250000000000533e+01,-6.125000000000002665e+00,-4.375000000000001110e-01,1.687500000000000444e+00,-2.250000000000000888e+00,-9.812500000000005329e+00,-4.875000000000002665e+00,1.306250000000000711e+01,1.518750000000000711e+01,-8.562500000000005329e+00,-1.600000000000000711e+01,1.281250000000000533e+01,1.818750000000000711e+01,-1.293750000000000533e+01,-1.456250000000000533e+01,7.250000000000003553e+00,5.875000000000003553e+00,-5.625000000000001776e+00,-5.812500000000002665e+00,-1.437500000000000888e+00,1.875000000000000833e-01,6.250000000000002776e-02,-2.500000000000001110e-01,-1.875000000000001110e-01,6.250000000000002776e-02,6.250000000000002776e-02,-6.250000000000002776e-02,-1.250000000000000555e-01,0.000000000000000000e+00,1.250000000000000555e-01,1.250000000000000555e-01,1.875000000000000833e-01,1.250000000000000555e-01,-1.875000000000001110e-01,-2.500000000000001110e-01,6.250000000000002776e-02,6.250000000000002776e-02,-1.875000000000000833e-01,-1.250000000000000555e-01,6.250000000000002776e-02,2.500000000000001110e-01,1.875000000000001110e-01,-1.875000000000001110e-01,-2.500000000000001110e-01,-6.250000000000002776e-02,1.875000000000001110e-01,4.375000000000002220e-01,6.250000000000000000e-02,-5.625000000000003331e-01,-3.125000000000002220e-01,3.750000000000002220e-01,4.375000000000002220e-01,0.000000000000000000e+00,-3.750000000000001665e-01,-3.125000000000001110e-01,0.000000000000000000e+00,0.000000000000000000e+00,0.000000000000000000e+00,2.500000000000001110e-01,1.875000000000001110e-01,0.000000000000000000e+00,6.250000000000002776e-02,0.000000000000000000e+00,-1.250000000000000555e-01,-6.250000000000002776e-02,0.000000000000000000e+00,6.250000000000002776e-02,6.250000000000002776e-02,-1.875000000000001110e-01,-1.875000000000001110e-01,1.875000000000001110e-01,1.875000000000001110e-01,-6.250000000000002776e-02,-6.250000000000002776e-02,0.000000000000000000e+00,0.000000000000000000e+00,0.000000000000000000e+00,0.000000000000000000e+00,0.000000000000000000e+00,0.000000000000000000e+00,0.000000000000000000e+00,0.000000000000000000e+00,6.250000000000002776e-02,-1.687500000000000888e+00,-3.687500000000001776e+00,-1.062500000000000444e+00,-4.437500000000001776e+00,-8.687500000000003553e+00,8.750000000000005329e+00,1.643750000000000711e+01,-1.112500000000000533e+01,-2.731250000000001066e+01,1.937500000000003553e+00,3.437500000000001421e+01,1.512500000000000355e+01,-1.800000000000001066e+01,-1.581250000000000888e+01,-1.168750000000000711e+01,-1.031250000000000711e+01,1.487500000000000533e+01,2.631250000000001066e+01,-2.000000000000001776e+00,-2.200000000000000711e+01,-8.750000000000001776e+00,4.750000000000003553e+00,2.000000000000000888e+00,3.250000000000000888e+00,1.218750000000000533e+01,1.687500000000000000e+00,-1.625000000000000711e+01,-3.500000000000000000e+00,1.487500000000000711e+01,5.187500000000001776e+00,-2.875000000000001776e+00,8.125000000000006661e-01,1.875000000000003331e-01,4.187500000000001776e+00,3.125000000000000000e-01,-5.375000000000002665e+00,5.937500000000002665e+00,-6.250000000000000000e-01,-1.387500000000000711e+01,6.562500000000003553e+00,1.600000000000000711e+01,-1.043750000000000533e+01,-1.493750000000000711e+01,7.937500000000002665e+00,5.625000000000001776e+00,-1.312500000000000533e+01,-1.362500000000000533e+01,3.750000000000000000e-01,1.387500000000000533e+01,7.187500000000001776e+00,-6.312500000000003553e+00,2.687500000000001776e+00,7.250000000000003553e+00,-6.187500000000003553e+00,-7.125000000000003553e+00,6.375000000000003553e+00,1.225000000000000533e+01,2.750000000000000888e+00,-1.175000000000000355e+01,-9.000000000000003553e+00,1.093750000000000533e+01,1.318750000000000711e+01,5.000000000000001776e+00,6.500000000000001776e+00,-5.687500000000001776e+00,-1.193750000000000355e+01,6.437500000000002665e+00,1.456250000000000711e+01,1.225000000000000533e+01,2.375000000000000888e+00,-1.962500000000000711e+01,-1.206250000000000533e+01,1.575000000000000888e+01,1.143750000000000533e+01,-2.937500000000001776e+00,-9.437500000000003553e+00,-2.262500000000001066e+01,-1.575000000000000711e+01,7.500000000000001110e-01,-7.062500000000003553e+00,-2.750000000000000888e+00,1.281250000000000533e+01,6.187500000000001776e+00,6.562500000000003553e+00,5.250000000000002665e+00,-1.237500000000000711e+01,-9.375000000000017764e-01,1.443750000000000711e+01,-7.437500000000004441e+00,-1.556250000000000888e+01,4.750000000000001776e+00,1.325000000000000711e+01,9.687500000000003553e+00,1.875000000000000888e+00,-5.437500000000002665e+00,3.625000000000001776e+00,1.475000000000000711e+01,7.687500000000003553e+00,3.875000000000000888e+00,-3.125000000000017764e-01,-2.350000000000001066e+01,-2.425000000000000711e+01,5.812500000000003553e+00,1.837500000000000711e+01,6.250000000000000000e-02,-1.862500000000000711e+01,-6.750000000000003553e+00,1.162500000000000533e+01,8.187500000000003553e+00,-4.250000000000001776e+00,-1.381250000000000533e+01,-4.250000000000001776e+00,1.787500000000000711e+01,1.887500000000000711e+01,2.000000000000000000e+00,-7.312500000000003553e+00,-8.437500000000003553e+00,1.312500000000000888e+00,1.412500000000000711e+01,1.125000000000000000e+00,-1.637500000000000711e+01,-1.481250000000000533e+01,-1.050000000000000355e+01,-5.000000000000003553e+00,1.687500000000000444e+00,-3.124999999999991118e-01,-2.937500000000000888e+00,8.250000000000003553e+00,1.381250000000000533e+01,5.687500000000002665e+00,4.562500000000002665e+00,-7.500000000000000000e-01,-7.437500000000003553e+00,6.937500000000001776e+00,1.918750000000000711e+01,9.437500000000003553e+00,-5.875000000000003553e+00,-1.093750000000000711e+01,-4.562500000000001776e+00,-6.187500000000002665e+00,-1.106250000000000533e+01,7.000000000000003553e+00,1.275000000000000533e+01,-1.193750000000000711e+01,-9.750000000000005329e+00,1.893750000000000711e+01,1.662500000000000711e+01,-1.093750000000000533e+01,-1.475000000000000711e+01,1.312500000000000888e+00,-2.562500000000001776e+00,-1.256250000000000711e+01,3.687500000000000888e+00,1.650000000000000711e+01,-3.250000000000000000e+00,-1.612500000000000711e+01,3.000000000000000000e+00,1.281250000000000533e+01,-1.937500000000000888e+00,-1.275000000000000711e+01,-1.181250000000000711e+01,-2.375000000000001332e+00,4.625000000000002665e+00,5.937500000000003553e+00,1.281250000000000533e+01,8.937500000000003553e+00,-1.112500000000000533e+01,-1.706250000000000711e+01,3.812500000000000000e+00,1.906250000000000711e+01,6.875000000000000000e-01,-1.456250000000000711e+01,3.000000000000000000e+00,1.087500000000000533e+01,-4.062500000000001776e+00,1.750000000000000888e+00,1.375000000000000711e+01,-6.062500000000003553e+00,-1.968750000000001066e+01,-1.687500000000001776e+00,8.875000000000003553e+00,3.125000000000001776e+00,-3.812500000000001776e+00,-5.437500000000002665e+00,7.312500000000002665e+00,1.012500000000000355e+01,-1.312500000000000222e+00,3.125000000000000888e+00,1.562500000000000000e+00,-1.200000000000000533e+01,-1.812500000000000000e+00,1.200000000000000711e+01,2.562500000000000888e+00,-1.181250000000000533e+01,-1.143750000000000533e+01,5.500000000000001776e+00,9.562500000000003553e+00,-4.812500000000002665e+00,1.187500000000000888e+00,1.025000000000000533e+01,-7.125000000000001776e+00,-1.275000000000000533e+01,4.999999999999995559e-01,7.625000000000003553e+00,9.937500000000005329e+00,-1.125000000000000888e+00,-1.087500000000000533e+01,3.125000000000001776e+00,1.087500000000000533e+01,-2.312500000000000000e+00,-6.375000000000001776e+00,3.000000000000001332e+00,7.687500000000003553e+00,4.000000000000001776e+00,-4.562500000000001776e+00,-2.937500000000000888e+00,4.437500000000001776e+00,6.250000000000044409e-02,-1.000000000000000444e+00,5.125000000000001776e+00,6.875000000000004441e-01,-8.625000000000003553e+00,-1.125000000000000355e+01,-3.000000000000001776e+00,9.937500000000003553e+00,6.000000000000002665e+00,-1.312500000000000888e+00,-7.500000000000004441e-01,-7.125000000000003553e+00,-3.125000000000002220e+00,4.562500000000001776e+00,3.062500000000001776e+00,6.062500000000002665e+00,-4.562500000000001776e+00,-1.306250000000000533e+01,8.250000000000005329e+00,1.200000000000000711e+01,-1.056250000000000533e+01,-5.000000000000003553e+00,9.750000000000003553e+00,-3.250000000000001776e+00,-6.875000000000003553e+00,5.625000000000001776e+00,5.937500000000002665e+00,1.437500000000000666e+00,-2.687500000000001776e+00,-3.000000000000001776e+00,2.562500000000000888e+00,-2.125000000000000888e+00,-1.081250000000000533e+01,1.312500000000000000e+00,1.500000000000000711e+01,1.437500000000000888e+00,-1.106250000000000355e+01,-5.125000000000001776e+00,2.625000000000000888e+00,3.125000000000000888e+00,-5.062500000000002665e+00,-2.500000000000008882e-01,1.443750000000000711e+01,6.562500000000004441e+00,-8.937500000000003553e+00,-9.375000000000005329e+00,-4.875000000000002665e+00,-3.750000000000002220e-01,2.687500000000001332e+00,1.375000000000000666e+00,-1.875000000000000555e-01,3.437500000000001776e+00,6.875000000000003553e+00,-1.812500000000001332e+00,-5.562500000000002665e+00,9.375000000000005551e-01,-5.250000000000002665e+00,-7.125000000000003553e+00,5.000000000000001776e+00,9.500000000000003553e+00,5.875000000000002665e+00,-6.312500000000002665e+00,-1.731250000000000711e+01,-2.000000000000000000e+00,1.962500000000001066e+01,1.068750000000000711e+01,-7.187500000000003553e+00,-8.812500000000003553e+00,-7.500000000000003553e+00,2.312500000000001776e+00,1.512500000000000711e+01,7.562500000000002665e+00,-9.125000000000003553e+00,-1.681250000000000711e+01,-4.437500000000001776e+00,1.437500000000000711e+01,5.687500000000003553e+00,-1.218750000000000533e+01,-4.562500000000001776e+00,9.250000000000003553e+00,6.125000000000002665e+00,1.187500000000000222e+00,-2.125000000000000888e+00,-1.025000000000000533e+01,-2.500000000000000000e-01,1.406250000000000711e+01,-2.375000000000000000e+00,-1.493750000000000533e+01,1.125000000000000888e+00,9.625000000000003553e+00,2.250000000000000888e+00,-3.625000000000001332e+00,-1.625000000000000222e+00,3.875000000000001776e+00,-1.750000000000000888e+00,-1.812500000000000444e+00,6.187500000000002665e+00,-4.437500000000001776e+00,-5.937500000000002665e+00,1.062500000000000355e+01,1.375000000000000000e+00,-1.550000000000000711e+01,1.000000000000000000e+00,1.643750000000000711e+01,1.062500000000000000e+00,-7.687500000000004441e+00,-8.125000000000006661e-01,-5.437500000000001776e+00,-5.812500000000002665e+00,8.750000000000003553e+00,8.312500000000003553e+00,-6.750000000000003553e+00,-4.875000000000002665e+00,7.375000000000003553e+00,1.125000000000000888e+00,-1.218750000000000533e+01,-4.375000000000001776e+00,1.512500000000000711e+01,1.493750000000000711e+01,-4.187500000000001776e+00,-1.356250000000000711e+01,-9.437500000000005329e+00,5.625000000000000000e-01,9.312500000000003553e+00,2.250000000000000000e+00,-4.375000000000001776e+00,3.187500000000001332e+00,3.812500000000001776e+00,-6.437500000000002665e+00,-7.875000000000003553e+00,2.312500000000000888e+00,7.125000000000002665e+00,1.625000000000000222e+00,1.500000000000000666e+00,8.750000000000003553e+00,3.375000000000001332e+00,-7.312500000000003553e+00,-9.250000000000003553e+00,-8.000000000000003553e+00,1.937500000000001332e+00,7.687500000000003553e+00,4.125000000000001776e+00,5.250000000000001776e+00,-1.250000000000000444e+00,-5.312500000000001776e+00,7.500000000000003331e-01,-6.250000000000003553e+00,-1.081250000000000533e+01,6.812500000000001776e+00,1.981250000000000711e+01,3.750000000000002665e+00,-1.675000000000000711e+01,-5.812500000000003553e+00,9.000000000000003553e+00,-4.562500000000001776e+00,-1.112500000000000355e+01,4.937500000000002665e+00,1.243750000000000533e+01,6.250000000000000000e-01,-5.437500000000001776e+00,7.687500000000003553e+00,8.937500000000003553e+00,-7.000000000000003553e+00,-1.456250000000000711e+01,-9.187500000000003553e+00,7.875000000000002665e+00,1.631250000000000711e+01,8.750000000000017764e-01,-1.106250000000000355e+01,-2.375000000000000888e+00,1.750000000000001554e+00,-6.375000000000002665e+00,2.812500000000000888e+00,1.425000000000000711e+01,-1.062500000000000000e+00,-8.937500000000005329e+00,2.125000000000000888e+00,1.125000000000000888e+00,-3.312500000000001332e+00,1.562500000000000444e+00,-5.000000000000000000e-01,-9.125000000000003553e+00,-2.750000000000000888e+00,1.268750000000000533e+01,4.000000000000001776e+00,-1.281250000000000533e+01,-3.750000000000000000e-01,1.806250000000000711e+01,1.150000000000000533e+01,-5.000000000000002665e+00,-1.268750000000000711e+01,-9.000000000000003553e+00,5.500000000000002665e+00,7.312500000000003553e+00,-6.875000000000003553e+00,4.375000000000000000e-01,1.062500000000000533e+01,-2.937500000000001776e+00,-8.375000000000003553e+00,-3.062500000000001776e+00,-1.250000000000002220e-01,4.500000000000001776e+00,2.625000000000001332e+00,-5.062500000000001776e+00,-3.250000000000001332e+00,7.312500000000003553e+00,1.437500000000001776e+00,-1.137500000000000533e+01,-2.000000000000001776e+00,6.687500000000002665e+00,5.125000000000001776e+00,5.937500000000002665e+00,-6.437500000000001776e+00,-1.268750000000000533e+01,5.687500000000001776e+00,7.125000000000002665e+00,-5.937500000000002665e+00,-1.000000000000000444e+00,3.750000000000001776e+00,1.250000000000001110e-01,-1.437500000000000666e+00,3.250000000000001332e+00,1.006250000000000355e+01,-2.812500000000001776e+00,-2.131250000000001066e+01,-8.937500000000005329e+00,1.631250000000000711e+01,1.256250000000000711e+01,-7.812500000000003553e+00,-4.062500000000001776e+00,5.937500000000002665e+00,-8.062500000000003553e+00,-1.462500000000000533e+01,7.500000000000008882e-01,1.150000000000000533e+01,1.487500000000000711e+01,5.812500000000002665e+00,-1.318750000000000711e+01,-5.937500000000003553e+00,8.062500000000003553e+00,-3.562500000000001776e+00,-3.000000000000001776e+00,5.187500000000002665e+00,-5.812500000000002665e+00,-4.125000000000002665e+00,3.875000000000000888e+00,-4.625000000000001776e+00,-9.812500000000003553e+00,-9.750000000000003553e+00
8.500000000000003553e+00,-1.225000000000000355e+01,7.100000000000001421e+01,-5.750000000000001421e+01,1.500000000000000355e+01,-4.500000000000000000e+00,-1.750000000000000355e+01,3.175000000000000711e+01,-3.150000000000000711e+01,-2.750000000000001776e+00,2.425000000000000711e+01,-2.675000000000000711e+01,2.975000000000000711e+01,-3.150000000000000711e+01,2.475000000000000711e+01,-2.075000000000000711e+01,2.350000000000000711e+01,-6.500000000000000888e+00,-1.575000000000000355e+01,2.675000000000000711e+01,5.250000000000000000e+00,-1.750000000000000355e+01,-1.225000000000000178e+01,1.500000000000000355e+01,-1.050000000000000355e+01,-2.375000000000000711e+01,6.450000000000001421e+01,-8.000000000000000000e+00,-2.675000000000000711e+01,-1.450000000000000355e+01,3.975000000000001421e+01,-1.300000000000000355e+01,-5.525000000000001421e+01,9.750000000000000000e+00,4.125000000000000711e+01,2.750000000000000000e+00,-1.625000000000000355e+01,2.450000000000000355e+01,-4.000000000000000000e+00,1.500000000000000000e+00,-1.400000000000000355e+01,-1.200000000000000178e+01,1.575000000000000355e+01,-6.250000000000001776e+00,-1.550000000000000355e+01,1.800000000000000355e+01,1.275000000000000355e+01,-2.675000000000000711e+01,2.450000000000000711e+01,-3.225000000000000711e+01,-2.000000000000000000e+00,7.175000000000001421e+01,-5.025000000000001421e+01,-1.375000000000000355e+01,2.675000000000000711e+01,-1.350000000000000355e+01,2.500000000000000555e-01,0.000000000000000000e+00,2.500000000000000555e-01,-2.500000000000000555e-01,0.000000000000000000e+00,-2.500000000000000555e-01,-2.500000000000000555e-01,-1.725000000000000355e+01,3.450000000000000711e+01,-1.500000000000000355e+01,-1.750000000000000444e+00,2.500000000000000555e-01,-1.500000000000000222e+00,5.000000000000000000e-01,-9.500000000000001776e+00,7.000000000000000888e+00,-3.225000000000000711e+01,5.375000000000001421e+01,1.425000000000000355e+01,-3.250000000000000711e+01,-2.250000000000000355e+01,2.100000000000000355e+01,-1.050000000000000355e+01,1.075000000000000355e+01,-2.500000000000000888e+00,1.350000000000000355e+01,-3.500000000000000000e+00,1.350000000000000178e+01,-1.675000000000000355e+01,-7.500000000000004441e-01,-2.250000000000000444e+00,0.000000000000000000e+00,-7.250000000000001776e+00,-1.575000000000000178e+01,2.125000000000000355e+01,3.350000000000000711e+01,-3.150000000000000711e+01,-2.500000000000000555e-01,-1.500000000000000444e+00,-2.750000000000000711e+01,3.075000000000000711e+01,2.675000000000000711e+01,-2.825000000000000711e+01,-2.500000000000000555e-01,-2.500000000000000555e-01,5.000000000000001110e-01,-2.500000000000000555e-01,0.000000000000000000e+00,0.000000000000000000e+00,2.500000000000000555e-01,-5.000000000000001110e-01,2.500000000000000555e-01,0.000000000000000000e+00,-2.500000000000000555e-01,7.500000000000002220e-01,-7.500000000000002220e-01,0.000000000000000000e+00,5.000000000000001110e-01,-2.500000000000000555e-01,2.500000000000000555e-01,-7.500000000000002220e-01,1.000000000000000222e+00,-1.000000000000000222e+00,1.000000000000000222e+00,-7.500000000000002220e-01,2.500000000000000555e-01,-2.500000000000000555e-01,2.500000000000000555e-01,2.500000000000000555e-01,-2.500000000000000555e-01,0.000000000000000000e+00,0.000000000000000000e+00,0.000000000000000000e+00,0.000000000000000000e+00,2.500000000000000555e-01,-7.500000000000002220e-01,7.500000000000002220e-01,-1.800000000000000355e+01,7.500000000000001776e+00,2.300000000000000711e+01,-5.525000000000001421e+01,4.875000000000000711e+01,2.250000000000000711e+01,-4.750000000000001421e+01,1.800000000000000355e+01,-4.000000000000000888e+00,-1.475000000000000355e+01,2.625000000000000711e+01,-3.500000000000000888e+00,1.750000000000000000e+00,1.250000000000000888e+00,-3.925000000000000711e+01,2.675000000000000711e+01,2.975000000000000711e+01,-4.025000000000000711e+01,1.475000000000000355e+01,-1.550000000000000355e+01,3.650000000000000711e+01,-4.525000000000001421e+01,2.900000000000000711e+01,5.000000000000001776e+00,-2.950000000000000711e+01,3.575000000000000711e+01,-4.025000000000001421e+01,3.225000000000000711e+01,-1.050000000000000355e+01,1.925000000000000355e+01,-2.950000000000000711e+01,9.250000000000003553e+00,8.500000000000001776e+00,-1.900000000000000355e+01,2.275000000000000711e+01,-1.425000000000000355e+01,-3.750000000000000000e+00,2.675000000000000711e+01,-2.975000000000000711e+01,2.350000000000000711e+01,-1.750000000000000355e+01,1.625000000000000355e+01,-8.250000000000001776e+00,-1.500000000000000444e+00,-2.000000000000000355e+01,2.175000000000000355e+01,1.875000000000000355e+01,-2.850000000000000711e+01,-4.500000000000001776e+00,2.575000000000000711e+01,-1.750000000000000000e+00,-1.950000000000000355e+01,-3.250000000000001776e+00,4.050000000000001421e+01,-3.800000000000000711e+01,4.500000000000000000e+00,2.500000000000008882e-01,1.900000000000000355e+01,-3.675000000000000711e+01,3.625000000000000711e+01,-2.250000000000000711e+01,-3.250000000000001776e+00,2.650000000000000711e+01,-3.125000000000000711e+01,2.525000000000000711e+01,5.000000000000001776e+00,-2.500000000000000711e+01,3.500000000000001776e+00,3.275000000000000711e+01,-3.075000000000000711e+01,4.000000000000000888e+00,-1.675000000000000355e+01,4.300000000000000711e+01,-2.850000000000000355e+01,-2.150000000000000711e+01,3.550000000000000711e+01,3.000000000000000000e+00,-3.300000000000000711e+01,2.650000000000000355e+01,-2.750000000000000355e+01,4.650000000000001421e+01,-2.850000000000000711e+01,1.200000000000000355e+01,-1.900000000000000355e+01,2.575000000000000711e+01,0.000000000000000000e+00,-3.250000000000000711e+01,3.650000000000000711e+01,-3.925000000000000711e+01,3.675000000000000711e+01,-1.425000000000000355e+01,-1.850000000000000355e+01,4.050000000000000711e+01,-4.300000000000000711e+01,3.450000000000000711e+01,-4.125000000000001421e+01,2.925000000000000711e+01,1.050000000000000355e+01,-4.300000000000001421e+01,4.225000000000001421e+01,-1.850000000000000355e+01,1.000000000000000000e+00,3.025000000000000711e+01,-2.425000000000000711e+01,-2.250000000000000355e+01,2.550000000000000355e+01,-2.175000000000000355e+01,1.350000000000000355e+01,2.050000000000000355e+01,-4.300000000000001421e+01,4.650000000000001421e+01,-4.400000000000000711e+01,1.775000000000000000e+01,4.750000000000001776e+00,1.000000000000000222e+00,2.500000000000000555e-01,2.500000000000000555e-01,-7.500000000000002220e-01,7.500000000000002220e-01,-2.500000000000000555e-01,-2.500000000000000555e-01,5.000000000000001110e-01,-5.000000000000001110e-01,2.500000000000000555e-01,0.000000000000000000e+00,0.000000000000000000e+00,2.500000000000000555e-01,-5.000000000000001110e-01,5.000000000000001110e-01,0.000000000000000000e+00,-7.500000000000002220e-01,7.500000000000002220e-01,-2.500000000000000555e-01,0.000000000000000000e+00,2.500000000000000555e-01,-5.000000000000001110e-01,5.000000000000001110e-01,-2.500000000000000555e-01,-2.500000000000000555e-01,2.500000000000000555e-01,0.000000000000000000e+00,0.000000000000000000e+00,2.500000000000000555e-01,0.000000000000000000e+00,-2.500000000000000555e-01,2.500000000000000555e-01,2.000000000000000444e+00,4.000000000000001776e+00,-1.350000000000000355e+01,7.250000000000001776e+00,-1.250000000000000222e+00,1.000000000000000222e+00,-2.500000000000000555e-01,5.000000000000001110e-01,-2.500000000000000555e-01,7.500000000000002220e-01,-7.500000000000002220e-01,2.500000000000000555e-01,0.000000000000000000e+00,5.000000000000001110e-01,-7.500000000000002220e-01,5.000000000000001110e-01,-7.500000000000002220e-01,7.500000000000002220e-01,0.000000000000000000e+00,-1.000000000000000222e+00,7.500000000000002220e-01,2.500000000000000555e-01,-5.000000000000001110e-01,5.000000000000001110e-01,-2.500000000000000555e-01,0.000000000000000000e+00,5.000000000000001110e-01,-7.500000000000002220e-01,0.000000000000000000e+00,5.000000000000001110e-01,-7.500000000000002220e-01,5.000000000000001110e-01,0.000000000000000000e+00,0.000000000000000000e+00,0.000000000000000000e+00,0.000000000000000000e+00,0.000000000000000000e+00,0.000000000000000000e+00,2.500000000000000555e-01,0.000000000000000000e+00,0.000000000000000000e+00,-7.500000000000002220e-01,1.250000000000000444e+00,-1.000000000000000222e+00,5.000000000000001110e-01,-7.500000000000002220e-01,2.500000000000000555e-01,2.500000000000000555e-01,-2.500000000000000555e-01,0.000000000000000000e+00,0.000000000000000000e+00,5.000000000000001110e-01,-2.500000000000000555e-01,0.000000000000000000e+00,0.000000000000000000e+00,2.500000000000000555e-01,-2.500000000000000555e-01,0.000000000000000000e+00,0.000000000000000000e+00,0.000000000000000000e+00,0.000000000000000000e+00,-2.500000000000000555e-01,2.500000000000000555e-01,0.000000000000000000e+00,2.500000000000000555e-01,-5.000000000000001110e-01,2.500000000000000555e-01,0.000000000000000000e+00,0.000000000000000000e+00,0.000000000000000000e+00,2.500000000000000555e-01,-5.000000000000001110e-01,2.500000000000000555e-01,-2.500000000000000555e-01,5.000000000000001110e-01,-2.500000000000000555e-01,0.000000000000000000e+00,0.000000000000000000e+00,-2.500000000000000555e-01,5.000000000000001110e-01,-7.500000000000002220e-01,7.500000000000002220e-01,0.000000000000000000e+00,-2.500000000000000555e-01,2.500000000000000555e-01,-5.000000000000001110e-01,2.500000000000000555e-01,0.000000000000000000e+00,0.000000000000000000e+00,0.000000000000000000e+00,2.500000000000000555e-01,-2.500000000000000555e-01,0.000000000000000000e+00,0.000000000000000000e+00,0.000000000000000000e+00,2.500000000000000555e-01,-2.500000000000000555e-01,-2.500000000000000555e-01,5.000000000000001110e-01,-2.500000000000000555e-01,2.500000000000000555e-01,1.025000000000000178e+01,-1.200000000000000178e+01,2.425000000000000355e+01,-4.075000000000000711e+01,1.525000000000000355e+01,2.475000000000000355e+01,-1.075000000000000178e+01,-1.250000000000000000e+00,-3.750000000000000711e+01,1.675000000000000711e+01,2.075000000000000355e+01,-1.950000000000000355e+01,2.550000000000000711e+01,-4.750000000000001776e+00,-1.925000000000000355e+01,2.475000000000000711e+01,-1.975000000000000355e+01,2.625000000000000355e+01,-3.425000000000000711e+01,2.000000000000000000e+00,1.875000000000000355e+01,-1.925000000000000355e+01,3.600000000000000711e+01,-2.325000000000000711e+01,-2.200000000000000355e+01,4.525000000000001421e+01,-1.075000000000000355e+01,-2.075000000000000355e+01,1.250000000000000355e+01,-1.400000000000000355e+01,3.750000000000001332e+00,1.700000000000000355e+01,-3.675000000000000711e+01,5.125000000000001421e+01,-3.450000000000000711e+01,2.225000000000000355e+01,-2.250000000000000711e+01,-1.100000000000000178e+01,3.175000000000000711e+01,-2.150000000000000711e+01,2.125000000000000711e+01,-1.100000000000000355e+01,5.000000000000000888e+00,1.250000000000000178e+01,-4.100000000000000711e+01,4.525000000000001421e+01,-4.425000000000001421e+01,3.750000000000000711e+01,-2.900000000000000711e+01,4.100000000000000711e+01,-4.075000000000000711e+01,2.175000000000000355e+01,-2.425000000000000711e+01,3.625000000000000711e+01,-1.775000000000000355e+01,-2.300000000000000355e+01,1.325000000000000355e+01,2.300000000000000355e+01,-2.650000000000000711e+01,8.750000000000001776e+00,-1.475000000000000355e+01,2.075000000000000711e+01,7.000000000000001776e+00,-2.000000000000000000e+00,-2.450000000000000711e+01,2.400000000000000711e+01,-1.300000000000000178e+01,-1.350000000000000355e+01,5.750000000000001776e+00,2.475000000000000711e+01,-6.750000000000001776e+00,-1.425000000000000355e+01,1.725000000000000355e+01,-2.250000000000000711e+01,2.575000000000000711e+01,-2.450000000000000711e+01,2.300000000000000711e+01,-3.450000000000000711e+01,3.300000000000000711e+01,-1.200000000000000355e+01,1.725000000000000355e+01,-3.375000000000000711e+01,1.225000000000000355e+01,3.250000000000000711e+01,-3.450000000000000711e+01,5.000000000000008882e-01,1.100000000000000178e+01,2.500000000000000000e-01,-5.500000000000000888e+00,-5.000000000000001110e-01,5.000000000000001110e-01,-5.000000000000001110e-01,7.500000000000002220e-01,-7.500000000000002220e-01,2.500000000000000555e-01,0.000000000000000000e+00,0.000000000000000000e+00,0.000000000000000000e+00,0.000000000000000000e+00,-2.500000000000000555e-01,5.000000000000001110e-01,-5.000000000000001110e-01,5.000000000000001110e-01,-2.500000000000000555e-01,2.500000000000000555e-01,-5.000000000000001110e-01,2.500000000000000555e-01,2.500000000000000555e-01,-5.000000000000001110e-01,2.500000000000000555e-01,0.000000000000000000e+00,-2.500000000000000555e-01,7.500000000000002220e-01,-7.500000000000002220e-01,2.500000000000000555e-01,0.000000000000000000e+00,-2.500000000000000555e-01,5.000000000000001110e-01,0.000000000000000000e+00,-2.500000000000000555e-01,-5.000000000000001110e-01,7.500000000000002220e-01,-2.500000000000000555e-01,2.500000000000000555e-01,-2.500000000000000555e-01,-2.500000000000000555e-01,2.500000000000000555e-01,0.000000000000000000e+00,-2.500000000000000555e-01,2.500000000000000555e-01,2.500000000000000555e-01,-5.000000000000001110e-01,5.000000000000001110e-01,-2.500000000000000555e-01,0.000000000000000000e+00,0.000000000000000000e+00,0.000000000000000000e+00,0.000000000000000000e+00,0.000000000000000000e+00,2.500000000000000555e-01,-7.500000000000002220e-01,7.500000000000002220e-01,-2.500000000000000555e-01,0.000000000000000000e+00,0.000000000000000000e+00,0.000000000000000000e+00,0.000000000000000000e+00,0.000000000000000000e+00,0.000000000000000000e+00,0.000000000000000000e+00,0.000000000000000000e+00,0.000000000000000000e+00,0.000000000000000000e+00,0.000000000000000000e+00,0.000000000000000000e+00,2.500000000000000555e-01,-7.750000000000001776e+00,1.475000000000000355e+01,-1.775000000000000355e+01,-4.500000000000001776e+00,3.850000000000000711e+01,-3.575000000000000711e+01,1.350000000000000355e+01,-3.350000000000000711e+01,4.825000000000001421e+01,-2.500000000000000000e+00,-2.150000000000000711e+01,2.000000000000000000e+00,1.075000000000000355e+01,-2.975000000000000711e+01,2.125000000000000711e+01,7.250000000000001776e+00,1.125000000000000355e+01,-3.850000000000000711e+01,2.825000000000000355e+01,-2.225000000000000355e+01,2.725000000000000711e+01,-3.100000000000000711e+01,2.925000000000000711e+01,-4.750000000000000888e+00,-1.100000000000000355e+01,-6.750000000000001776e+00,1.775000000000000355e+01,4.250000000000000888e+00,-2.600000000000000711e+01,3.500000000000000711e+01,-3.025000000000000711e+01,1.400000000000000355e+01,1.225000000000000355e+01,-3.025000000000000711e+01,2.300000000000000355e+01,5.000000000000000888e+00,-2.550000000000000711e+01,7.750000000000001776e+00,2.350000000000000711e+01,-1.725000000000000355e+01,-1.350000000000000355e+01,1.400000000000000355e+01,1.075000000000000178e+01,-2.400000000000000711e+01,1.150000000000000355e+01,-1.150000000000000355e+01,7.750000000000001776e+00,1.750000000000000355e+01,-2.650000000000000711e+01,1.025000000000000355e+01,1.500000000000000355e+01,-2.225000000000000711e+01,1.350000000000000355e+01,-1.550000000000000355e+01,2.650000000000000711e+01,-1.925000000000000711e+01,1.550000000000000355e+01,-2.600000000000000711e+01,1.450000000000000355e+01,1.925000000000000355e+01,-3.175000000000000711e+01,3.225000000000000711e+01,-1.000000000000000178e+01,-1.975000000000000711e+01,1.900000000000000355e+01,2.500000000000000888e+00,-9.250000000000001776e+00,2.400000000000000355e+01,-2.050000000000000355e+01,-1.800000000000000355e+01,2.975000000000000711e+01,-1.250000000000000000e+00,-1.800000000000000355e+01,2.425000000000000355e+01,-2.550000000000000711e+01,-8.000000000000001776e+00,1.550000000000000355e+01,7.500000000000002220e-01,-3.550000000000000711e+01,5.525000000000001421e+01,-3.750000000000000711e+01,1.100000000000000355e+01,2.025000000000000355e+01,-2.600000000000000711e+01,-3.000000000000001776e+00,2.650000000000000711e+01,-8.000000000000003553e+00,-3.125000000000000711e+01,4.025000000000001421e+01,-3.025000000000000711e+01,3.150000000000000711e+01,-2.125000000000000711e+01,1.550000000000000355e+01,-2.275000000000000711e+01,2.975000000000000711e+01,-8.750000000000001776e+00,-9.000000000000001776e+00,2.300000000000000355e+01,-1.725000000000000355e+01,-2.550000000000000355e+01,2.850000000000000711e+01,-1.200000000000000355e+01,1.950000000000000355e+01,-2.100000000000000711e+01,-1.325000000000000178e+01,3.850000000000000711e+01,-3.700000000000000711e+01,3.750000000000000711e+01,-3.600000000000000711e+01,1.150000000000000355e+01,1.750000000000000000e+00,1.350000000000000355e+01,-3.000000000000000000e+00,-1.200000000000000355e+01,1.825000000000000355e+01,-3.175000000000000711e+01,3.475000000000000711e+01,-4.250000000000000000e+00,-2.625000000000000711e+01,2.775000000000000711e+01,-3.675000000000000711e+01,3.050000000000000711e+01,-2.825000000000000711e+01,2.925000000000000711e+01,-2.600000000000000711e+01,9.750000000000001776e+00,1.650000000000000355e+01,-1.675000000000000355e+01,1.025000000000000178e+01,6.500000000000001776e+00,-1.875000000000000355e+01,8.750000000000001776e+00,1.150000000000000178e+01,-2.250000000000000000e+00,5.000000000000000000e-01,-5.500000000000000888e+00,-7.000000000000001776e+00,1.750000000000000355e+01,-2.475000000000000711e+01,2.750000000000000000e+00,3.025000000000000711e+01,-2.800000000000000711e+01,-4.750000000000000000e+00,1.550000000000000355e+01,9.250000000000003553e+00,-7.250000000000001776e+00,-1.725000000000000355e+01,1.625000000000000355e+01,-7.500000000000000000e-01,-1.300000000000000355e+01,-1.500000000000000000e+00,2.050000000000000355e+01,-5.500000000000000888e+00,-1.600000000000000355e+01,3.500000000000000000e+00,1.900000000000000711e+01,-1.550000000000000355e+01,1.250000000000000444e+00,7.500000000000000000e-01,-1.850000000000000355e+01,3.275000000000000711e+01,-3.375000000000000711e+01,3.025000000000000711e+01,-7.250000000000001776e+00,1.000000000000000444e+00,-1.200000000000000355e+01,-3.750000000000001776e+00,2.200000000000000711e+01,-3.250000000000000000e+00,-1.575000000000000355e+01,1.000000000000000000e+00,2.325000000000000711e+01,-2.075000000000000711e+01,-1.250000000000000000e+00,1.925000000000000355e+01,-2.750000000000000000e+00,-2.375000000000000711e+01,1.150000000000000355e+01,9.500000000000003553e+00,-1.600000000000000355e+01,2.025000000000000355e+01,-2.200000000000000355e+01,5.750000000000000888e+00,2.225000000000000355e+01,-2.650000000000000711e+01,1.200000000000000178e+01,1.100000000000000355e+01,-1.975000000000000711e+01,-2.250000000000000000e+00,2.350000000000000711e+01,-1.975000000000000355e+01,1.475000000000000355e+01,-2.200000000000000711e+01,7.750000000000002665e+00,1.600000000000000355e+01,-1.525000000000000355e+01,-5.750000000000000888e+00,2.350000000000000711e+01,-9.750000000000003553e+00,-2.275000000000000355e+01,3.275000000000000711e+01,-3.000000000000000711e+01,2.625000000000000711e+01,-2.750000000000000000e+00,-1.950000000000000711e+01,1.500000000000000355e+01,-1.750000000000000666e+00,1.025000000000000178e+01,-2.750000000000000711e+01,3.125000000000000711e+01,-2.475000000000000711e+01,2.325000000000000711e+01,-1.125000000000000355e+01,-1.075000000000000178e+01,2.400000000000000711e+01,-2.150000000000000355e+01,1.400000000000000355e+01,-1.200000000000000355e+01,2.200000000000000355e+01,-3.000000000000000711e+01,2.475000000000000711e+01,-2.950000000000000711e+01,2.250000000000000711e+01,6.000000000000001776e+00,-2.600000000000000711e+01,3.150000000000000711e+01,-2.175000000000000355e+01,-7.000000000000000888e+00,3.000000000000000711e+01,-3.500000000000000711e+01,2.800000000000000711e+01,-2.750000000000000000e+00,-2.275000000000000711e+01,1.225000000000000355e+01,1.825000000000000355e+01,-1.975000000000000355e+01,-8.750000000000000000e+00,2.600000000000000711e+01,-1.075000000000000355e+01,-1.925000000000000355e+01,3.325000000000000711e+01,-2.800000000000000711e+01,2.275000000000000711e+01,-1.300000000000000355e+01,0.000000000000000000e+00,4.250000000000000888e+00,2.500000000000000000e-01,-3.250000000000000888e+00,-1.400000000000000355e+01,2.700000000000000711e+01,-6.000000000000001776e+00,-1.875000000000000355e+01,2.275000000000000355e+01,-2.575000000000000711e+01,2.700000000000000711e+01,-1.525000000000000355e+01,-8.250000000000001776e+00,2.200000000000000355e+01,-5.500000000000000888e+00,-4.000000000000000000e+00,-4.500000000000000888e+00,6.250000000000001776e+00,-1.400000000000000355e+01,2.100000000000000355e+01,-2.200000000000000355e+01,2.250000000000000355e+01,-2.250000000000000355e+01,2.125000000000000355e+01,-4.250000000000000888e+00,-1.550000000000000355e+01,1.775000000000000355e+01,-4.500000000000000888e+00,-1.850000000000000355e+01,2.450000000000000711e+01,-1.525000000000000355e+01,1.250000000000000355e+01,0.000000000000000000e+00,-1.500000000000000355e+01,0.000000000000000000e+00,8.250000000000001776e+00,1.900000000000000355e+01,-3.200000000000000711e+01,2.375000000000000711e+01,-1.600000000000000355e+01,-4.750000000000000888e+00,2.200000000000000355e+01,-1.000000000000000178e+01,3.500000000000000444e+00,-7.000000000000001776e+00,-1.150000000000000355e+01,1.675000000000000355e+01,8.750000000000003553e+00,-2.500000000000000711e+01,1.475000000000000355e+01,-9.500000000000001776e+00,2.250000000000000711e+01,-3.000000000000000711e+01,3.275000000000000711e+01,-2.675000000000000711e+01,-5.000000000000000000e-01,2.050000000000000355e+01,-5.750000000000000888e+00,-1.500000000000000355e+01,3.500000000000000000e+00,1.875000000000000711e+01,-2.575000000000000711e+01,3.000000000000000711e+01,-3.500000000000000711e+01,2.975000000000000711e+01,-9.750000000000001776e+00,-1.400000000000000355e+01,2.350000000000000711e+01,-8.000000000000000000e+00,-1.850000000000000355e+01,2.425000000000000711e+01,-1.250000000000000000e+00,-1.600000000000000355e+01,-1.500000000000000000e+00,2.075000000000000355e+01,-4.750000000000000000e+00,-1.775000000000000355e+01,2.225000000000000355e+01,-1.500000000000000355e+01,-1.000000000000000000e+00,1.000000000000000000e+00,1.650000000000000355e+01,-1.800000000000000355e+01,3.250000000000000444e+00,1.000000000000000000e+00,1.250000000000000178e+01,-2.150000000000000355e+01,8.250000000000001776e+00,-3.750000000000001332e+00,2.150000000000000711e+01,-1.450000000000000355e+01,-4.500000000000000888e+00,6.000000000000001776e+00,-1.475000000000000355e+01,1.775000000000000355e+01,2.500000000000000000e-01,-1.725000000000000355e+01,2.025000000000000355e+01,-1.375000000000000355e+01,1.500000000000000355e+01,-2.600000000000000711e+01,2.300000000000000711e+01,-1.375000000000000355e+01,1.525000000000000355e+01,-1.600000000000000355e+01,1.100000000000000355e+01,1.075000000000000355e+01,-2.525000000000000711e+01,2.200000000000000355e+01,-1.975000000000000355e+01,2.500000000000000000e-01,2.275000000000000711e+01,-2.775000000000000711e+01,2.400000000000000711e+01,-4.250000000000000000e+00,-1.775000000000000355e+01,2.325000000000000355e+01,-1.475000000000000355e+01,-2.250000000000000000e+00,-2.750000000000000888e+00,1.700000000000000355e+01,-5.000000000000000000e-01,-7.500000000000001776e+00,-1.725000000000000355e+01,3.200000000000000711e+01,-1.725000000000000355e+01,-1.050000000000000355e+01,1.650000000000000355e+01,-1.050000000000000355e+01,2.200000000000000711e+01,-3.075000000000000711e+01,1.900000000000000355e+01,9.250000000000003553e+00,-1.925000000000000355e+01,1.200000000000000355e+01,-1.650000000000000355e+01,3.500000000000000000e+00,1.950000000000000711e+01,-1.350000000000000355e+01,4.750000000000000888e+00,-1.600000000000000355e+01,2.575000000000000711e+01,-2.200000000000000711e+01,-2.500000000000000000e-01,2.050000000000000711e+01,-7.000000000000002665e+00,-1.500000000000000355e+01,1.600000000000000355e+01,-2.250000000000000888e+00,-1.150000000000000355e+01,1.500000000000000355e+01,-1.125000000000000355e+01,9.500000000000001776e+00,-2.100000000000000355e+01,2.050000000000000355e+01,6.250000000000000888e+00,-2.275000000000000355e+01,8.500000000000000000e+00,5.750000000000001776e+00,9.250000000000003553e+00,-1.050000000000000355e+01,1.000000000000000000e+00,-3.750000000000000888e+00,-9.000000000000001776e+00,2.900000000000000711e+01,-2.600000000000000711e+01,-1.000000000000000000e+00,2.550000000000000711e+01,-1.925000000000000355e+01,-3.500000000000000444e+00,1.675000000000000355e+01,-2.800000000000000711e+01,3.250000000000000711e+01,-2.600000000000000711e+01,2.225000000000000711e+01,-2.450000000000000711e+01,1.575000000000000355e+01,8.000000000000000000e+00,-2.150000000000000355e+01,5.250000000000000888e+00,1.475000000000000355e+01,-2.050000000000000355e+01,2.075000000000000355e+01,-3.750000000000000000e+00,-1.850000000000000711e+01,8.250000000000003553e+00,2.150000000000000355e+01,-3.500000000000000711e+01,2.500000000000000711e+01,-8.000000000000001776e+00,-3.500000000000000888e+00,1.200000000000000355e+01,-1.950000000000000355e+01,2.225000000000000355e+01,-3.500000000000000000e+00,-1.325000000000000355e+01,-6.750000000000001776e+00,1.300000000000000355e+01,9.250000000000001776e+00,-9.500000000000001776e+00,-1.250000000000000355e+01,2.575000000000000711e+01,-1.550000000000000355e+01,-9.250000000000001776e+00,7.250000000000000888e+00,4.250000000000000888e+00,-5.000000000000000888e+00,2.075000000000000355e+01,-1.775000000000000355e+01,-1.450000000000000355e+01,3.375000000000000711e+01,-2.150000000000000355e+01,-8.500000000000003553e+00,2.825000000000000711e+01,-2.175000000000000711e+01,-6.250000000000001776e+00,2.775000000000000711e+01,-3.125000000000000711e+01,2.075000000000000355e+01,-1.875000000000000355e+01
