3.027602500000002124e+02,3.514790000000002692e+02,3.951508750000003261e+02,4.324790000000003829e+02,4.637758750000003829e+02,4.883540000000003829e+02,5.054633750000003829e+02,5.142915000000003829e+02,5.149477500000003829e+02,5.151508750000003829e+02,5.152290000000003829e+02,5.152758750000003829e+02,5.153071250000003829e+02,5.153071250000003829e+02,5.152602500000003829e+02,5.151977500000003829e+02,5.151196250000003829e+02,5.150102500000003829e+02,5.149008750000003829e+02,5.148071250000003829e+02,5.146977500000003829e+02,5.146040000000003829e+02,5.145258750000003829e+02,5.144633750000003829e+02,5.144165000000003829e+02,5.143540000000003829e+02,5.142915000000003829e+02,5.141977500000003829e+02,5.139321250000003829e+02,5.130883750000003829e+02,5.121196250000003829e+02,5.110258750000003829e+02,5.099008750000003829e+02,5.088071250000003829e+02,5.077602500000003829e+02,5.067915000000003829e+02,5.062133750000003829e+02,5.067758750000003829e+02,5.075883750000003829e+02,5.086508750000003829e+02,5.097915000000003829e+02,5.109321250000003829e+02,5.120258750000003829e+02,5.130415000000003829e+02,5.138383750000003829e+02,5.140727500000003829e+02,5.141508750000003829e+02,5.141196250000003829e+02,5.140571250000003829e+02,5.140258750000003829e+02,5.140415000000003829e+02,5.141196250000003829e+02,5.142133750000003829e+02,5.143227500000003829e+02,5.144633750000003829e+02,5.145571250000003829e+02,5.146196250000003829e+02,5.146352500000003829e+02,5.146196250000003829e+02,5.145883750000003829e+02,5.145727500000003829e+02,5.145571250000003829e+02,5.145883750000003829e+02,5.146821250000003829e+02,5.148071250000003829e+02,5.149790000000003829e+02,5.151352500000003829e+02,5.152446250000003829e+02,5.152915000000003829e+02,5.153071250000003829e+02,5.152133750000003829e+02,5.150415000000003829e+02,5.147915000000003829e+02,5.144790000000003829e+02,5.141821250000003829e+02,5.139321250000003829e+02,5.137758750000003829e+02,5.136665000000003829e+02,5.137133750000003829e+02,5.138696250000003829e+02,5.141665000000003829e+02,5.145415000000003829e+02,5.149477500000003829e+02,5.153540000000003829e+02,5.157133750000003829e+02,5.160258750000003829e+02,5.162133750000003829e+02,5.163227500000003829e+02,5.163383750000003829e+02,5.163071250000003829e+02,5.162446250000003829e+02,5.161821250000003829e+02,5.161196250000003829e+02,5.160883750000003829e+02,5.161040000000003829e+02,5.161508750000003829e+02,5.162290000000003829e+02,5.163071250000003829e+02,5.163696250000003829e+02,5.164165000000003829e+02,5.164790000000003829e+02,5.165415000000003829e+02,5.165883750000003829e+02,5.166196250000003829e+02,5.166352500000003829e+02,5.166508750000003829e+02,5.167133750000003829e+02,5.167758750000003829e+02,5.168540000000003829e+02,5.169165000000003829e+02,5.169790000000003829e+02,5.170415000000003829e+02,5.170883750000003829e+02,5.171352500000003829e+02,5.171352500000003829e+02,5.171352500000003829e+02,5.170727500000003829e+02,5.169946250000003829e+02,5.169008750000003829e+02,5.167915000000003829e+02,5.166977500000003829e+02,5.165883750000003829e+02,5.164790000000003829e+02,5.163383750000003829e+02,5.161977500000003829e+02,5.160571250000003829e+02,5.159165000000003829e+02,5.157758750000003829e+02,5.156040000000003829e+02,5.147602500000003829e+02,5.133383750000003829e+02,5.099477500000003829e+02,5.057133750000003829e+02,5.007758750000003829e+02,4.937758750000003829e+02,4.840102500000003829e+02,4.708852500000003829e+02,4.574321250000003829e+02,4.441352500000003829e+02,4.331977500000003829e+02,4.229633750000003829e+02,4.121040000000003829e+02,4.026508750000003261e+02,3.965102500000002692e+02,3.938696250000002692e+02,3.908227500000002692e+02,3.846665000000002692e+02,3.759165000000001555e+02,3.650727500000001555e+02,3.536977500000001555e+02,3.424165000000001555e+02,3.278696250000001555e+02,3.113227500000001555e+02,2.952915000000001555e+02,2.816977500000001555e+02,2.675571250000001555e+02,2.526508750000001555e+02,2.367290000000001555e+02,2.183071250000001555e+02,2.013696250000001555e+02,1.843852500000001555e+02,1.666040000000000987e+02,1.480883750000000703e+02,1.318540000000000703e+02,1.168071250000000703e+02,1.036508750000000703e+02,9.322900000000005605e+01,8.261962500000004184e+01,7.382275000000002763e+01,6.429150000000002763e+01,5.574462500000002763e+01,4.594775000000001342e+01,3.596337500000001342e+01,2.582274999999999920e+01,1.222899999999999210e+01,-1.614750000000016339e+00,-1.859912500000002566e+01,-3.484912500000003632e+01,-5.363037500000005053e+01,-7.288037500000007185e+01,-9.172412500000007185e+01,-1.114897500000001003e+02,-1.294272500000001003e+02,-1.491928750000001003e+02,-1.669741250000001287e+02,-1.847397500000001571e+02,-2.000835000000001855e+02,-2.143491250000001855e+02,-2.274897500000001855e+02,-2.390053750000001855e+02,-2.479897500000001855e+02,-2.534272500000001855e+02,-2.593960000000001855e+02,-2.649741250000001855e+02,-2.704272500000001855e+02,-2.759741250000001855e+02,-2.812553750000001855e+02,-2.865991250000001855e+02,-2.935522500000001855e+02,-3.012553750000001855e+02,-3.067710000000001855e+02,-3.121303750000001855e+02,-3.163960000000001855e+02,-3.202085000000001855e+02,-3.249116250000001855e+02,-3.316460000000001855e+02,-3.375991250000001855e+02,-3.433022500000001855e+02,-3.501928750000001855e+02,-3.570991250000001855e+02,-3.650522500000001855e+02,-3.718178750000001855e+02,-3.794116250000001855e+02,-3.851772500000002992e+02,-3.923491250000002992e+02,-4.003022500000002992e+02,-4.090366250000003561e+02,-4.171303750000003561e+02,-4.259428750000003561e+02,-4.369428750000003561e+02,-4.459741250000003561e+02,-4.546772500000003561e+02,-4.624272500000003561e+02,-4.693022500000003561e+02,-4.745991250000003561e+02,-4.793803750000003561e+02,-4.826616250000003561e+02,-4.841616250000003561e+02,-4.856772500000003561e+02,-4.867866250000003561e+02,-4.871616250000003561e+02,-4.871616250000003561e+02,-4.871460000000003561e+02,-4.871460000000003561e+02,-4.871303750000003561e+02,-4.871147500000003561e+02,-4.871303750000003561e+02,-4.871616250000003561e+02,-4.872241250000003561e+02,-4.872866250000003561e+02,-4.873335000000003561e+02,-4.873647500000003561e+02,-4.873960000000003561e+02,-4.874272500000003561e+02,-4.874116250000003561e+02,-4.873803750000003561e+02,-4.873335000000003561e+02,-4.873022500000003561e+02,-4.873178750000003561e+02,-4.873022500000003561e+02,-4.872866250000003561e+02,-4.872710000000003561e+02,-4.872866250000003561e+02,-4.873491250000003561e+02,-4.874116250000003561e+02,-4.874428750000003561e+02,-4.874272500000003561e+02,-4.874428750000003561e+02,-4.874428750000003561e+02,-4.874428750000003561e+02,-4.873960000000003561e+02,-4.873022500000003561e+02,-4.872085000000003561e+02,-4.871303750000003561e+02,-4.870678750000003561e+02,-4.870210000000003561e+02,-4.870053750000003561e+02,-4.869897500000003561e+02,-4.870366250000003561e+02,-4.870835000000003561e+02,-4.871303750000003561e+02,-4.871772500000003561e+02,-4.872241250000003561e+02,-4.872553750000003561e+02,-4.872710000000003561e+02,-4.872866250000003561e+02,-4.872553750000003561e+02,-4.872553750000003561e+02,-4.872553750000003561e+02,-4.872553750000003561e+02,-4.872553750000003561e+02,-4.872553750000003561e+02,-4.872553750000003561e+02,-4.872553750000003561e+02,-4.872866250000003561e+02,-4.868491250000003561e+02,-4.864116250000003561e+02,-4.853178750000003561e+02,-4.826303750000003561e+02,-4.798178750000003561e+02,-4.761147500000003561e+02,-4.715991250000003561e+02,-4.642241250000003561e+02,-4.559272500000003561e+02,-4.466460000000003561e+02,-4.371928750000003561e+02,-4.290678750000003561e+02,-4.196303750000003561e+02,-4.088491250000002992e+02,-3.963335000000002992e+02,-3.863491250000002992e+02,-3.773491250000001855e+02,-3.666147500000001855e+02,-3.547710000000001855e+02,-3.405210000000001855e+02,-3.253335000000001855e+02,-3.102241250000001855e+02,-2.962241250000001855e+02,-2.810678750000001855e+02,-2.634116250000001855e+02,-2.461460000000001855e+02,-2.283960000000001855e+02,-2.124585000000001855e+02,-1.962710000000001855e+02,-1.819741250000001287e+02,-1.674897500000001287e+02,-1.526616250000001003e+02,-1.401772500000001003e+02,-1.292710000000001003e+02,-1.201616250000001003e+02,-1.114585000000001003e+02,-1.051303750000001003e+02,-9.731787500000010027e+01,-9.123975000000007185e+01,-8.698975000000005764e+01,-8.159912500000005764e+01,-7.633350000000005764e+01,-7.136475000000005764e+01,-6.500537500000005764e+01,-5.784912500000005764e+01,-5.098975000000005053e+01,-4.117725000000004343e+01,-2.928662500000002922e+01,-1.698975000000002566e+01,-2.958500000000017227e+00,1.310399999999999210e+01,2.957274999999999920e+01,4.701025000000001342e+01,6.502587500000002763e+01,8.107275000000004184e+01,9.707275000000005605e+01,1.115102500000000703e+02,1.249008750000000703e+02,1.380571250000000703e+02,1.493071250000000703e+02,1.599321250000000703e+02,1.679790000000000703e+02,1.749477500000000703e+02,1.800727500000000703e+02,1.849946250000000987e+02,1.873071250000000987e+02,1.860571250000000987e+02,1.825883750000000987e+02,1.747133750000000703e+02,1.663696250000000703e+02,1.567290000000000703e+02,1.437758750000000703e+02,1.280258750000000703e+02,1.104165000000000703e+02,9.141650000000004184e+01,7.379150000000004184e+01,5.876025000000002763e+01,4.322900000000001342e+01,3.066650000000000631e+01,2.216649999999999920e+01,1.772899999999999565e+01,1.954149999999999920e+01,2.591649999999999920e+01,3.429150000000000631e+01,4.551025000000001342e+01,5.997900000000002763e+01,7.230712500000002763e+01,8.604150000000004184e+01,9.865087500000007026e+01,1.093540000000000703e+02,1.195258750000000703e+02,1.291196250000000703e+02,1.357758750000000703e+02,1.418227500000000703e+02,1.489477500000000703e+02,1.520258750000000703e+02,1.538696250000000703e+02,1.513852500000000703e+02,1.452290000000000703e+02,1.366196250000000703e+02,1.271196250000000703e+02,1.145415000000000703e+02,9.969775000000005605e+01,8.557275000000004184e+01,7.233837500000002763e+01,6.252587500000002763e+01,5.685400000000002763e+01,5.183837500000002763e+01,4.883837500000002763e+01,4.841650000000002763e+01,5.160400000000002763e+01,5.651025000000002763e+01,6.033837500000002763e+01,6.441650000000002763e+01,6.538525000000002763e+01,6.815087500000002763e+01,6.916650000000002763e+01,6.733837500000002763e+01,6.221337500000002763e+01,5.460400000000002763e+01,4.807275000000001342e+01,4.036962500000000631e+01,3.560400000000000631e+01,2.974462500000000631e+01,2.697900000000000631e+01,2.963525000000000631e+01,3.561962500000001342e+01,4.651025000000001342e+01,5.883837500000002763e+01,7.329150000000004184e+01,8.705712500000004184e+01,1.024165000000000560e+02,1.155102500000000703e+02,1.241040000000000703e+02,1.296352500000000703e+02,1.300571250000000703e+02,1.273383750000000703e+02,1.212602500000000703e+02,1.125727500000000703e+02,1.011196250000000703e+02,8.791650000000004184e+01,7.483837500000002763e+01,6.308837500000002763e+01,5.326025000000002763e+01,4.385400000000002052e+01,3.560400000000001342e+01,2.840087500000000631e+01,2.091649999999999920e+01,1.493212499999999388e+01,9.682124999999992099e+00,3.869624999999987658e+00,-2.802250000000017227e+00,-8.692875000000020336e+00,-1.316162500000002211e+01,-1.639600000000002566e+01,-1.791162500000002566e+01,-1.823975000000002566e+01,-1.786475000000002566e+01,-1.720850000000002566e+01,-1.394287500000002389e+01,-9.052250000000020336e+00,-2.958500000000016783e+00,3.541499999999988102e+00,1.146337499999999210e+01,1.986962499999999920e+01,2.954150000000000276e+01,4.168212500000001342e+01,5.252587500000002052e+01,6.294775000000002763e+01,7.158837500000002763e+01,8.058837500000004184e+01,8.854150000000004184e+01,9.643212500000007026e+01,1.037446250000000703e+02,1.082446250000000703e+02,1.117758750000000703e+02,1.152133750000000703e+02,1.188540000000000703e+02,1.206352500000000703e+02,1.228540000000000703e+02,1.238852500000000703e+02,1.240727500000000703e+02,1.260415000000000703e+02,1.293071250000000703e+02,1.322758750000000703e+02,1.350258750000000703e+02,1.380727500000000703e+02,1.397133750000000703e+02,1.422133750000000703e+02,1.436977500000000703e+02,1.430415000000000703e+02,1.411508750000000703e+02,1.384790000000000703e+02,1.357758750000000703e+02,1.335727500000000703e+02,1.318852500000000703e+02,1.295415000000000703e+02,1.282133750000000703e+02,1.273540000000000703e+02,1.282915000000000703e+02,1.292133750000000703e+02,1.304008750000000703e+02,1.318071250000000703e+02,1.328852500000000703e+02,1.337290000000000703e+02,1.349633750000000703e+02,1.373383750000000703e+02,1.371977500000000703e+02,1.380727500000000703e+02,1.373071250000000703e+02,1.360727500000000703e+02,1.346977500000000703e+02,1.321352500000000703e+02,1.284165000000000703e+02,1.224633750000000703e+02,1.172446250000000703e+02,1.093696250000000703e+02,1.019790000000000703e+02,9.210400000000005605e+01,8.172900000000004184e+01,7.110400000000002763e+01,6.004150000000002763e+01,5.005712500000001342e+01,3.896337500000001342e+01,2.966650000000000631e+01,1.965087499999999920e+01,1.205712499999999210e+01,5.260249999999987658e+00,-4.428750000000154508e-01,-5.583500000000018559e+00,-1.113037500000002211e+01,-1.578662500000002566e+01,-2.095850000000002922e+01,-2.413037500000002922e+01,-2.802100000000003632e+01,-3.311475000000003632e+01,-3.714600000000003632e+01,-4.200537500000004343e+01,-4.681787500000005053e+01,-5.022412500000005764e+01,-5.416162500000005764e+01,-5.925537500000005764e+01,-6.391162500000005764e+01,-6.775537500000005764e+01,-7.338037500000005764e+01,-7.820850000000005764e+01,-8.277100000000005764e+01,-8.963037500000007185e+01,-9.489600000000010027e+01,-1.006303750000001003e+02,-1.068178750000001003e+02,-1.126616250000001003e+02,-1.182397500000001003e+02,-1.231147500000001003e+02,-1.278335000000001003e+02,-1.311928750000001003e+02,-1.353022500000001003e+02,-1.385210000000001003e+02,-1.410366250000001003e+02,-1.443178750000001003e+02,-1.467085000000001003e+02,-1.504272500000001003e+02,-1.534585000000001003e+02,-1.568022500000001003e+02,-1.602397500000001003e+02,-1.638960000000001003e+02,-1.668022500000001003e+02,-1.686460000000001003e+02,-1.708335000000001003e+02,-1.714116250000001003e+02,-1.729741250000001003e+02,-1.742553750000001003e+02,-1.750678750000001003e+02,-1.753178750000001003e+02,-1.764272500000001003e+02,-1.776928750000001003e+02,-1.786616250000001003e+02,-1.802710000000001003e+02,-1.803647500000001003e+02,-1.791772500000001003e+02,-1.790678750000001003e+02,-1.787397500000001003e+02,-1.788803750000001003e+02,-1.789428750000001003e+02,-1.778178750000001003e+02,-1.766772500000001003e+02,-1.771772500000001003e+02,-1.798803750000001003e+02,-1.813803750000001003e+02,-1.830835000000001003e+02,-1.835210000000001003e+02,-1.845522500000001003e+02,-1.870678750000001003e+02,-1.891928750000001003e+02,-1.897085000000001003e+02,-1.888803750000001003e+02,-1.871616250000001003e+02,-1.864897500000001003e+02,-1.865210000000001003e+02,-1.847866250000001003e+02,-1.829272500000001003e+02,-1.817553750000001003e+02,-1.817085000000001003e+02,-1.808491250000001003e+02,-1.817241250000001003e+02,-1.804585000000001003e+02,-1.794428750000001003e+02,-1.794897500000001003e+02,-1.791460000000001003e+02,-1.779897500000001003e+02,-1.760053750000001003e+02,-1.756147500000001003e+02,-1.745210000000001003e+02,-1.745366250000001003e+02,-1.735678750000001003e+02,-1.737866250000001003e+02,-1.739272500000001003e+02,-1.734897500000001003e+02,-1.740835000000001003e+02,-1.743022500000001003e+02,-1.738022500000001003e+02,-1.743335000000001003e+02,-1.755522500000001003e+02,-1.750210000000001003e+02,-1.742241250000001003e+02,-1.752553750000001003e+02,-1.756147500000001003e+02,-1.750678750000001003e+02,-1.751616250000001003e+02,-1.742866250000001003e+02,-1.728803750000001003e+02,-1.719428750000001003e+02,-1.711147500000001003e+02,-1.692241250000001003e+02,-1.677397500000001003e+02,-1.671460000000001003e+02,-1.670678750000001003e+02,-1.660366250000001003e+02,-1.654428750000001003e+02,-1.655991250000001003e+02,-1.662710000000001003e+02,-1.668335000000001003e+02,-1.664897500000001003e+02,-1.661460000000001003e+02,-1.643960000000001003e+02,-1.638960000000001003e+02,-1.628803750000001003e+02,-1.610210000000001003e+02,-1.589116250000001003e+02,-1.566460000000001003e+02,-1.558022500000001003e+02,-1.542241250000001003e+02,-1.547553750000001003e+02,-1.552085000000001003e+02,-1.562397500000001003e+02,-1.580366250000001003e+02,-1.599741250000001003e+02,-1.628178750000001003e+02,-1.648647500000001003e+02,-1.673960000000001003e+02,-1.687710000000001003e+02,-1.703335000000001003e+02,-1.723960000000001003e+02,-1.732085000000001003e+02,-1.745522500000001003e+02,-1.758647500000001003e+02,-1.773178750000001003e+02,-1.786460000000001003e+02,-1.800522500000001003e+02,-1.812710000000001003e+02,-1.816772500000001003e+02,-1.834428750000001003e+02,-1.842241250000001003e+02,-1.846147500000001003e+02,-1.839585000000001003e+02,-1.838335000000001003e+02,-1.838491250000001003e+02,-1.836460000000001003e+02,-1.847866250000001003e+02,-1.855678750000001003e+02,-1.868803750000001287e+02,-1.880522500000001287e+02,-1.909428750000001571e+02,-1.942553750000001855e+02,-1.965366250000001855e+02,-1.992710000000001855e+02,-2.004116250000001855e+02,-2.009897500000001855e+02,-2.022241250000001855e+02,-2.038335000000001855e+02,-2.043647500000001855e+02,-2.039585000000001855e+02,-2.051928750000001855e+02,-2.055053750000001855e+02,-2.067710000000001855e+02,-2.091616250000001855e+02,-2.110991250000001855e+02,-2.117866250000001855e+02,-2.127397500000001855e+02,-2.141616250000001855e+02,-2.141147500000001855e+02,-2.142397500000001855e+02,-2.132866250000001855e+02,-2.119741250000001855e+02,-2.104585000000001855e+02,-2.111460000000001855e+02,-2.127085000000001855e+02,-2.134741250000001855e+02,-2.162866250000001855e+02,-2.205835000000001855e+02,-2.259585000000001855e+02,-2.317397500000001855e+02,-2.379585000000001855e+02,-2.429897500000001855e+02,-2.480053750000001855e+02,-2.539428750000001855e+02,-2.587241250000001855e+02,-2.624272500000001855e+02,-2.670053750000001855e+02,-2.702710000000001855e+02,-2.727710000000001855e+02,-2.760522500000001855e+02,-2.779897500000001855e+02,-2.797241250000001855e+02,-2.810678750000001855e+02,-2.821772500000001855e+02,-2.816616250000001855e+02,-2.825522500000001855e+02,-2.835522500000001855e+02,-2.826616250000001855e+02,-2.829585000000001855e+02,-2.829272500000001855e+02,-2.828022500000001855e+02,-2.832553750000001855e+02,-2.835366250000001855e+02,-2.825835000000001855e+02,-2.814116250000001855e+02,-2.818960000000001855e+02,-2.816616250000001855e+02,-2.822085000000001855e+02,-2.824116250000001855e+02,-2.816772500000001855e+02,-2.817241250000001855e+02,-2.819428750000001855e+02,-2.822241250000001855e+02,-2.818022500000001855e+02,-2.807241250000001855e+02,-2.779272500000001855e+02,-2.752085000000001855e+02,-2.725053750000001855e+02,-2.680678750000001855e+02,-2.633803750000001855e+02,-2.591616250000001855e+02,-2.533960000000001855e+02,-2.478960000000001855e+02,-2.434585000000001855e+02,-2.390210000000001855e+02,-2.355678750000001855e+02,-2.339272500000001855e+02,-2.313491250000001855e+02,-2.282553750000001855e+02,-2.265366250000001855e+02,-2.241928750000001855e+02,-2.218178750000001855e+02,-2.195835000000001855e+02,-2.163491250000001855e+02,-2.118335000000001855e+02,-2.089585000000001855e+02,-2.059428750000001855e+02,-2.030366250000001855e+02,-2.018335000000001855e+02,-1.999741250000001855e+02,-1.984116250000001855e+02,-1.972397500000001855e+02,-1.978803750000001855e+02,-1.977710000000001855e+02,-1.973178750000001855e+02,-1.980053750000001855e+02,-1.968960000000001855e+02,-1.963647500000001855e+02,-1.956928750000001855e+02,-1.942241250000001855e+02,-1.913335000000001571e+02,-1.898178750000001287e+02,-1.890053750000001287e+02,-1.868335000000001003e+02,-1.854897500000001003e+02,-1.835366250000001003e+02,-1.826928750000001003e+02,-1.826303750000001003e+02,-1.832553750000001003e+02,-1.824741250000001003e+02,-1.824897500000001003e+02,-1.817866250000001003e+02,-1.821772500000001003e+02,-1.838491250000001003e+02,-1.832397500000001003e+02,-1.824741250000001003e+02,-1.809116250000001003e+02,-1.793960000000001003e+02,-1.762710000000001003e+02,-1.747397500000001003e+02,-1.716147500000001003e+02,-1.664272500000001003e+02,-1.620991250000001003e+02,-1.583178750000001003e+02,-1.538803750000001003e+02,-1.496147500000001003e+02,-1.453647500000001003e+02,-1.393178750000001003e+02,-1.330678750000001003e+02,-1.287241250000001003e+02,-1.252710000000001003e+02,-1.204428750000001003e+02,-1.170678750000001003e+02,-1.126147500000001003e+02,-1.085210000000001003e+02,-1.062710000000001003e+02,-1.054272500000001003e+02,-1.029585000000001003e+02,-9.920850000000010027e+01,-9.645850000000008606e+01,-9.270850000000007185e+01,-9.094287500000005764e+01,-8.942725000000005764e+01,-8.572412500000005764e+01,-8.120850000000005764e+01,-7.744287500000005764e+01,-7.402100000000005764e+01,-7.100537500000005764e+01,-6.850537500000005764e+01,-6.461475000000005764e+01,-6.061475000000005764e+01,-5.778662500000005764e+01,-5.478662500000005764e+01,-5.264600000000005764e+01,-5.077100000000005764e+01,-4.773975000000005053e+01,-4.403662500000004343e+01,-4.109912500000003632e+01,-3.831787500000003632e+01,-3.675537500000003632e+01,-3.552100000000003632e+01,-3.320850000000003632e+01,-3.075537500000003632e+01,-2.789600000000003632e+01,-2.611475000000003632e+01,-2.263037500000003277e+01,-1.852100000000002922e+01,-1.175537500000002566e+01,-4.083500000000018559e+00,4.275874999999986770e+00,1.232274999999999210e+01,1.897899999999999565e+01,2.580712499999999920e+01,3.019775000000000631e+01,3.401025000000000631e+01,3.535400000000000631e+01,3.501025000000000631e+01,3.329150000000000631e+01,3.122900000000000631e+01,2.866650000000000631e+01,2.626025000000000631e+01,2.438525000000000631e+01,2.213524999999999920e+01,2.027587499999999565e+01,1.796337499999999565e+01,1.368212499999999210e+01,8.353999999999990322e+00,2.838374999999987214e+00,-4.208500000000017671e+00,-1.225537500000002211e+01,-2.220850000000002922e+01,-3.503662500000003632e+01,-4.856787500000004343e+01,-6.116162500000005764e+01,-7.502100000000007185e+01,-9.097412500000007185e+01,-1.086616250000001003e+02,-1.288022500000001003e+02,-1.508178750000001003e+02,-1.736928750000001287e+02,-1.992397500000001855e+02,-2.289741250000001855e+02,-2.598803750000001855e+02,-2.918178750000001855e+02,-3.241460000000001855e+02,-3.553491250000001855e+02,-3.848803750000002992e+02,-4.113960000000002992e+02,-4.340835000000002992e+02,-4.515678750000002992e+02,-4.653178750000003561e+02,-4.751147500000003561e+02,-4.814428750000003561e+02,-4.852241250000003561e+02,-4.867397500000003561e+02,-4.873178750000003561e+02,-4.873335000000003561e+02,-4.872710000000003561e+02,-4.872085000000003561e+02,-4.871616250000003561e+02,-4.871303750000003561e+02,-4.871147500000003561e+02,-4.871303750000003561e+02,-4.871616250000003561e+02,-4.872241250000003561e+02,-4.873022500000003561e+02,-4.873803750000003561e+02,-4.874585000000003561e+02,-4.875210000000003561e+02,-4.875522500000003561e+02,-4.875678750000003561e+02,-4.875835000000003561e+02,-4.875835000000003561e+02,-4.850991250000003561e+02,-4.801303750000003561e+02,-4.740366250000003561e+02,-4.665053750000003561e+02,-4.564741250000003561e+02,-4.436303750000003561e+02,-4.275210000000002992e+02,-4.095678750000002992e+02,-3.904272500000002992e+02,-3.672241250000002424e+02,-3.358022500000001855e+02,-2.944585000000001855e+02,-2.427710000000001855e+02,-1.811460000000001287e+02,-1.103960000000000719e+02,-2.766162500000001501e+01,6.097900000000005605e+01,1.497290000000001271e+02,2.343227500000001839e+02,3.104633750000002692e+02,3.740571250000002692e+02,4.250415000000003829e+02,4.636821250000003829e+02,4.885258750000003829e+02,5.038383750000003829e+02,5.125102500000003829e+02,5.160571250000003829e+02,5.166977500000003829e+02,5.170415000000003829e+02,5.172290000000003829e+02,5.173540000000003829e+02,5.174477500000003829e+02,5.175102500000003829e+02,5.175571250000003829e+02,5.174946250000003829e+02,5.174477500000003829e+02,5.173852500000003829e+02,5.173383750000003829e+02,5.173071250000003829e+02,5.172758750000003829e+02,5.172446250000003829e+02,5.171977500000003829e+02,5.172446250000003829e+02,5.172758750000003829e+02,5.172915000000003829e+02,5.173071250000003829e+02,5.173071250000003829e+02,5.173227500000003829e+02,5.173383750000003829e+02,5.173852500000003829e+02,5.173696250000003829e+02,5.173383750000003829e+02,5.173227500000003829e+02,5.173071250000003829e+02,5.173227500000003829e+02,5.173071250000003829e+02,5.172758750000003829e+02,5.172133750000003829e+02,5.171508750000003829e+02,5.171040000000003829e+02,5.170571250000003829e+02,5.170102500000003829e+02,5.169633750000003829e+02,5.169321250000003829e+02,5.169165000000003829e+02,5.169165000000003829e+02,5.169321250000003829e+02,5.169477500000003829e+02,5.169477500000003829e+02,5.169321250000003829e+02,5.168696250000003829e+02,5.167915000000003829e+02,5.166977500000003829e+02,5.165883750000003829e+02,5.164633750000003829e+02,5.162446250000003829e+02,5.147290000000003829e+02,5.118540000000003829e+02,5.076977500000003829e+02,5.015883750000003829e+02,4.928696250000003829e+02,4.804790000000003829e+02,4.648852500000003829e+02,4.452915000000003829e+02,4.239790000000003829e+02,4.002602500000003261e+02,3.739008750000002692e+02,3.450727500000002124e+02,3.154321250000001555e+02,2.864165000000001555e+02,2.563071250000001555e+02,2.261821250000001555e+02,1.952446250000001271e+02,1.727602500000000987e+02,1.593852500000000703e+02,1.568071250000000703e+02,1.637133750000000703e+02,1.804165000000000987e+02,2.089321250000001555e+02,2.498383750000001839e+02
8.968750000000000000e+00,5.750000000000004974e+01,8.170312500000007105e+01,7.937500000000005684e+01,5.039062500000004263e+01,2.625000000000002132e+01,9.390625000000005329e+00,6.250000000000003331e-01,9.375000000000005551e-02,7.812500000000005551e-02,6.250000000000004163e-02,2.031250000000001388e-01,2.343750000000001665e-01,2.343750000000001665e-01,2.187500000000001665e-01,3.125000000000003469e-02,-1.562499999999999653e-02,-9.375000000000006939e-02,-1.093750000000000833e-01,4.687500000000002082e-02,3.125000000000001388e-02,6.250000000000002776e-02,1.562500000000000000e-02,-1.718750000000001110e-01,-1.875000000000001388e-01,-1.875000000000001388e-01,-6.250000000000005551e-02,2.187500000000001388e-01,5.468750000000003331e-01,1.328125000000000888e+00,2.046875000000004885e+00,2.640625000000008882e+00,2.640625000000012434e+00,5.468750000000109912e-01,-1.843750000000001332e+00,-4.437500000000014211e+00,-6.171875000000026645e+00,-4.671875000000024869e+00,-2.546875000000012879e+00,1.406249999999998890e-01,2.437500000000011990e+00,2.609375000000011990e+00,2.328125000000008438e+00,1.625000000000004441e+00,8.281250000000004441e-01,4.687500000000002220e-01,2.031250000000001110e-01,-7.812500000000005551e-02,-2.656250000000001665e-01,-3.593750000000002220e-01,-5.000000000000003331e-01,-3.906250000000002220e-01,-2.343750000000001665e-01,-9.375000000000005551e-02,2.656250000000002220e-01,4.218750000000003331e-01,4.843750000000003331e-01,5.312500000000004441e-01,2.343750000000001943e-01,-4.687500000000001388e-02,-2.812500000000002220e-01,-5.781250000000004441e-01,-5.468750000000003331e-01,-3.906250000000003331e-01,-2.031250000000001665e-01,1.250000000000000833e-01,2.812500000000001665e-01,3.593750000000002220e-01,4.375000000000003331e-01,4.218750000000003331e-01,4.531250000000003331e-01,4.375000000000003331e-01,3.125000000000002220e-01,1.875000000000001110e-01,-7.812500000000004163e-02,-3.281250000000002220e-01,-5.468750000000003331e-01,-8.125000000000005551e-01,-8.593750000000006661e-01,-8.281250000000006661e-01,-6.250000000000004441e-01,-2.500000000000002220e-01,9.375000000000006939e-02,4.375000000000003331e-01,6.406250000000004441e-01,7.031250000000005551e-01,6.406250000000004441e-01,4.687500000000003886e-01,2.656250000000002220e-01,4.687500000000004163e-02,-1.406250000000001110e-01,-2.656250000000002220e-01,-3.281250000000002220e-01,-2.968750000000002220e-01,-1.875000000000001110e-01,-4.687500000000002776e-02,6.250000000000005551e-02,1.093750000000000833e-01,1.093750000000000833e-01,6.250000000000005551e-02,6.250000000000004163e-02,6.250000000000004163e-02,1.562500000000001041e-02,-1.562500000000001041e-02,-9.375000000000006939e-02,-1.093750000000000833e-01,-4.687500000000004163e-02,1.562500000000000347e-02,6.250000000000004163e-02,0.000000000000000000e+00,-6.250000000000004163e-02,-1.250000000000000833e-01,-4.687500000000002776e-02,1.562500000000001110e-01,2.812500000000002220e-01,4.062500000000003331e-01,2.812500000000002220e-01,4.687500000000005551e-02,-1.093750000000000694e-01,-2.500000000000001665e-01,-1.562500000000000833e-01,1.562500000000000347e-02,1.250000000000000833e-01,2.031250000000001665e-01,1.562500000000001110e-01,4.687500000000004857e-02,6.938893903907229918e-18,-4.687500000000004163e-02,-6.250000000000005551e-02,6.562500000000003331e-01,1.890625000000000888e+00,5.156250000000003553e+00,9.265625000000008882e+00,1.132812500000001421e+01,1.320312500000002132e+01,9.843750000000021316e+00,6.468750000000011546e+00,6.046875000000003553e+00,1.781249999999993561e+00,3.124999999998501199e-02,-9.109375000000015987e+00,-2.143750000000002132e+01,-2.492187500000002132e+01,-2.403125000000001421e+01,-7.078125000000002665e+00,1.278125000000000711e+01,2.456250000000001421e+01,3.193750000000002132e+01,2.296875000000001421e+01,1.171875000000000888e+01,6.250000000000177636e-02,-1.239062500000000711e+01,-1.390625000000001066e+01,-1.493750000000001066e+01,-6.218750000000003553e+00,5.109375000000002665e+00,9.765625000000005329e+00,1.831250000000001066e+01,1.504687500000001066e+01,8.046875000000007105e+00,3.968750000000005329e+00,-1.012500000000000533e+01,-1.704687500000001066e+01,-1.787500000000001066e+01,-1.839062500000001066e+01,-5.234375000000003553e+00,3.687500000000001776e+00,7.421875000000004441e+00,8.218750000000005329e+00,-3.000000000000002220e+00,-7.703125000000005329e+00,-9.531250000000007105e+00,-3.171875000000001776e+00,1.034375000000000711e+01,1.775000000000001421e+01,2.253125000000001421e+01,1.482812500000001066e+01,4.515625000000003553e+00,-5.453125000000003553e+00,-1.182812500000000888e+01,-7.921875000000007105e+00,-3.406250000000003997e+00,3.093750000000000888e+00,6.171875000000003553e+00,3.140625000000001776e+00,-1.093750000000000444e+00,-5.875000000000003553e+00,-1.167187500000000711e+01,-1.309375000000000711e+01,-1.339062500000000711e+01,-1.409375000000001066e+01,-8.906250000000007105e+00,-5.562500000000003553e+00,-4.218750000000008882e-01,8.593750000000005329e+00,1.295312500000000711e+01,1.417187500000000888e+01,9.890625000000005329e+00,-2.406250000000002220e+00,-1.426562500000000888e+01,-1.912500000000001421e+01,-1.545312500000001066e+01,-4.062500000000001776e+00,9.250000000000007105e+00,1.670312500000001066e+01,1.500000000000001066e+01,8.890625000000007105e+00,-9.375000000000044409e-02,-7.140625000000004441e+00,-8.609375000000005329e+00,-7.468750000000005329e+00,-3.640625000000002665e+00,1.515625000000001110e+00,4.843750000000003553e+00,5.890625000000003553e+00,7.343750000000004441e+00,4.515625000000002665e+00,2.796875000000001332e+00,1.984375000000001110e+00,-2.890625000000001776e+00,-3.234375000000002665e+00,-4.843750000000003553e+00,-6.968750000000004441e+00,-5.843750000000003553e+00,-6.359375000000003553e+00,-5.953125000000003553e+00,-4.296875000000002665e+00,-2.921875000000001776e+00,-1.593750000000001110e+00,-5.468750000000004441e-01,-1.718750000000001110e-01,-1.718750000000001110e-01,-6.250000000000004163e-02,0.000000000000000000e+00,1.093750000000000833e-01,2.187500000000001665e-01,2.343750000000001665e-01,2.031250000000001388e-01,7.812500000000005551e-02,-4.687500000000004163e-02,-1.875000000000001665e-01,-2.187500000000001665e-01,-1.875000000000001388e-01,-1.562500000000001110e-01,1.562500000000000694e-02,4.687500000000002776e-02,6.250000000000004163e-02,9.375000000000006939e-02,-1.562500000000001041e-02,3.125000000000002082e-02,7.812500000000005551e-02,6.250000000000005551e-02,7.812500000000006939e-02,1.562500000000001735e-02,-4.687500000000002776e-02,-1.562500000000001041e-02,3.125000000000002082e-02,-1.562500000000001041e-02,-7.812500000000005551e-02,-2.031250000000001388e-01,-3.125000000000002220e-01,-2.187500000000001110e-01,-6.250000000000004163e-02,1.093750000000000833e-01,2.968750000000002220e-01,3.125000000000002220e-01,2.343750000000001665e-01,1.562500000000001110e-01,1.562500000000001388e-02,-6.250000000000005551e-02,-7.812500000000005551e-02,-9.375000000000008327e-02,-1.093750000000000833e-01,-7.812500000000005551e-02,-6.250000000000005551e-02,-4.687500000000004163e-02,4.687500000000004163e-02,4.687500000000004163e-02,4.687500000000004163e-02,4.687500000000004163e-02,-1.562500000000001041e-02,-1.562500000000001041e-02,-1.562500000000001041e-02,-1.562500000000001041e-02,1.562500000000001041e-02,-4.218750000000003331e-01,-8.593750000000006661e-01,-1.953125000000001332e+00,-4.703125000000002665e+00,-5.765625000000003553e+00,-7.718750000000004441e+00,-7.859375000000004441e+00,-4.359375000000002665e+00,-4.906250000000003553e+00,-2.875000000000002220e+00,-3.015625000000002665e+00,-3.328125000000003109e+00,3.171875000000001332e+00,5.140625000000003553e+00,7.437500000000005329e+00,3.453125000000002665e+00,-7.421875000000003553e+00,-1.184375000000000711e+01,-1.256250000000000711e+01,-6.687500000000004441e+00,1.937500000000000888e+00,4.390625000000001776e+00,7.031249999999993339e-01,-3.703125000000003553e+00,-6.359375000000004441e+00,-4.625000000000003553e+00,1.875000000000001332e+00,4.937500000000003553e+00,5.562500000000003553e+00,4.765625000000003553e+00,2.468750000000002220e+00,2.640625000000002665e+00,6.281250000000005329e+00,6.562500000000005329e+00,6.765625000000003553e+00,8.375000000000003553e+00,2.921875000000001332e+00,2.859375000000001776e+00,2.406250000000000888e+00,-2.656250000000001776e+00,-6.093750000000000000e-01,-1.312500000000000666e+00,-2.531250000000001332e+00,-5.781250000000002220e-01,-1.921875000000001332e+00,-4.593750000000003553e+00,-7.656250000000004441e+00,-9.921875000000005329e+00,-1.265625000000000711e+01,-1.218750000000000711e+01,-6.250000000000005329e+00,-2.718750000000002665e+00,4.093750000000003553e+00,9.015625000000005329e+00,6.468750000000004441e+00,6.718750000000005329e+00,3.968750000000002665e+00,2.265625000000001332e+00,4.296875000000002665e+00,4.546875000000002665e+00,4.046875000000002665e+00,3.250000000000002220e+00,5.031250000000003553e+00,5.656250000000003553e+00,1.129687500000000711e+01,1.498437500000001066e+01,1.142187500000000711e+01,1.239062500000000711e+01,8.703125000000007105e+00,7.046875000000005329e+00,1.256250000000000888e+01,1.089062500000000711e+01,7.703125000000005329e+00,5.937500000000004441e+00,-5.625000000000008882e-01,-3.000000000000001776e+00,-1.531250000000001554e+00,-7.687500000000005329e+00,-1.600000000000000711e+01,-2.325000000000001421e+01,-3.287500000000002132e+01,-3.406250000000002132e+01,-2.343750000000001421e+01,-1.425000000000001066e+01,-1.531250000000001776e+00,1.168750000000000711e+01,1.173437500000000711e+01,1.212500000000000888e+01,1.057812500000000711e+01,1.750000000000001332e+00,-8.593750000000004441e-01,-1.328125000000001110e+00,-3.609375000000002665e+00,1.718750000000000444e+00,7.781250000000004441e+00,1.070312500000000711e+01,1.567187500000001066e+01,1.771875000000001066e+01,1.843750000000001066e+01,1.823437500000001066e+01,1.710937500000001066e+01,9.250000000000005329e+00,-2.843750000000002665e+00,-1.153125000000000888e+01,-2.185937500000001421e+01,-2.104687500000001421e+01,-1.543750000000001066e+01,-1.248437500000000711e+01,-4.671875000000002665e+00,-5.062500000000002665e+00,-3.875000000000002220e+00,-1.906250000000000888e+00,-3.796875000000002220e+00,1.062500000000000444e+00,4.156250000000002665e+00,9.328125000000005329e+00,1.493750000000001066e+01,1.601562500000001066e+01,1.251562500000000711e+01,8.437500000000007105e+00,3.843750000000003553e+00,-3.203125000000001776e+00,-5.750000000000003553e+00,-1.489062500000000888e+01,-2.262500000000001421e+01,-2.584375000000001776e+01,-2.764062500000002132e+01,-2.028125000000001421e+01,-1.154687500000000711e+01,5.000000000000008882e-01,9.609375000000007105e+00,1.631250000000000711e+01,2.090625000000001066e+01,1.768750000000001066e+01,1.728125000000001066e+01,1.592187500000001066e+01,1.457812500000001066e+01,1.778125000000001066e+01,1.546875000000000888e+01,8.421875000000005329e+00,1.187500000000000666e+00,-9.671875000000005329e+00,-1.579687500000001066e+01,-1.384375000000000888e+01,-1.231250000000000711e+01,-5.625000000000004441e+00,1.328125000000000222e+00,3.750000000000001776e+00,8.296875000000003553e+00,7.609375000000003553e+00,2.984375000000001776e+00,-2.281250000000000888e+00,-9.578125000000007105e+00,-1.267187500000000888e+01,-1.156250000000000711e+01,-7.796875000000004441e+00,-3.218750000000002665e+00,-4.062500000000003886e-01,6.875000000000004441e-01,-1.203125000000000888e+00,-2.718750000000001776e+00,-6.125000000000004441e+00,-1.137500000000000711e+01,-1.123437500000000711e+01,-1.107812500000000711e+01,-4.937500000000003553e+00,4.671875000000002665e+00,8.015625000000003553e+00,1.071875000000000711e+01,6.453125000000005329e+00,1.265625000000001332e+00,2.500000000000006661e-01,-7.656250000000001110e-01,1.921875000000001332e+00,4.046875000000002665e+00,4.265625000000002665e+00,5.515625000000003553e+00,6.750000000000005329e+00,5.906250000000003553e+00,3.375000000000001776e+00,-1.562500000000004441e-01,-5.531250000000003553e+00,-8.875000000000005329e+00,-6.390625000000003553e+00,-4.921875000000003553e+00,-1.421875000000000666e+00,5.218750000000003553e+00,5.453125000000003553e+00,8.453125000000005329e+00,1.065625000000000711e+01,5.500000000000003553e+00,4.453125000000002665e+00,1.687500000000001554e+00,-3.296875000000001776e+00,-1.781250000000000888e+00,-3.656250000000002665e+00,-6.625000000000005329e+00,-4.421875000000003553e+00,-5.187500000000003553e+00,-2.812500000000002220e+00,2.953125000000001776e+00,2.390625000000001332e+00,1.484375000000001110e+00,1.093750000000000666e+00,-4.125000000000002665e+00,-2.734375000000001776e+00,1.140625000000001110e+00,9.062500000000011102e-01,5.468750000000003553e+00,5.296875000000003553e+00,3.031250000000001776e+00,3.906250000000002665e+00,3.468750000000002665e+00,3.375000000000002665e+00,5.140625000000003553e+00,6.234375000000004441e+00,4.421875000000003553e+00,5.500000000000004441e+00,3.437500000000003109e+00,1.687500000000001332e+00,3.187500000000002220e+00,1.125000000000000444e+00,-3.281250000000005551e-01,-2.359375000000001776e+00,-7.625000000000005329e+00,-9.296875000000005329e+00,-6.828125000000004441e+00,-6.031250000000003553e+00,7.343750000000004441e-01,2.312500000000000888e+00,-8.281250000000009992e-01,1.765625000000000888e+00,-3.437500000000001776e+00,-2.015625000000000888e+00,2.187500000000001776e+00,-1.218750000000000888e+00,1.812500000000000888e+00,1.046875000000000666e+00,-1.640625000000001110e+00,4.531250000000005551e-01,6.406250000000006661e-01,-7.031250000000006661e-01,-6.093750000000004441e-01,7.343750000000006661e-01,-8.906250000000005551e-01,2.062500000000001776e+00,4.625000000000003553e+00,2.421875000000001776e+00,3.437500000000002665e+00,4.687500000000000000e-02,-3.453125000000002220e+00,-4.421875000000003553e+00,-4.156250000000003553e+00,-2.093750000000001776e+00,-7.500000000000006661e-01,1.921875000000001332e+00,-1.406250000000001110e+00,-2.937500000000002220e+00,-2.859375000000001776e+00,-4.828125000000003553e+00,1.312500000000001332e+00,4.468750000000003553e+00,5.687500000000004441e+00,7.093750000000005329e+00,9.062500000000006661e-01,-4.437500000000002665e+00,-7.593750000000005329e+00,-1.000000000000000711e+01,-6.062500000000004441e+00,-1.546875000000001332e+00,2.328125000000001332e+00,6.671875000000004441e+00,4.859375000000003553e+00,3.921875000000002665e+00,2.187500000000004441e-01,-5.515625000000003553e+00,-4.296875000000003553e+00,-5.250000000000003553e+00,-2.281250000000001776e+00,2.406250000000001776e+00,5.468750000000002220e-01,9.374999999999983347e-02,-1.078125000000000888e+00,-1.015625000000000444e+00,1.546875000000001332e+00,4.531250000000003553e+00,4.218750000000003553e+00,7.968750000000004441e-01,1.171875000000000888e+00,-6.875000000000004441e-01,6.875000000000004441e-01,3.156250000000002220e+00,-1.765625000000001332e+00,-3.453125000000002665e+00,-5.750000000000003553e+00,-7.453125000000004441e+00,-3.234375000000001776e+00,-1.218750000000000444e+00,1.437500000000000888e+00,3.328125000000002220e+00,3.906250000000002220e+00,3.859375000000001776e+00,1.250000000000000888e+00,9.531250000000007772e-01,-1.546875000000000888e+00,-3.062500000000001776e+00,-1.390625000000000888e+00,-2.656250000000001776e+00,-2.187500000000001776e+00,1.093750000000000444e+00,3.593750000000000000e-01,1.843750000000001110e+00,3.875000000000002665e+00,-1.093750000000000000e-01,1.671875000000000666e+00,1.015625000000000000e+00,-1.531250000000001332e+00,1.531250000000000666e+00,-7.500000000000006661e-01,-1.531250000000001332e+00,-3.437500000000003331e-01,-1.062500000000000666e+00,7.812500000000004441e-01,2.250000000000001776e+00,2.765625000000001776e+00,6.718750000000003331e-01,-2.218750000000001776e+00,-3.640625000000002665e+00,-4.671875000000003553e+00,-2.171875000000001332e+00,8.593750000000004441e-01,1.859375000000000888e+00,1.593750000000000888e+00,-4.218750000000003331e-01,-1.906250000000001332e+00,-1.750000000000000888e+00,1.484375000000000888e+00,4.890625000000002665e+00,5.796875000000003553e+00,4.890625000000003553e+00,-1.312500000000001554e+00,-5.375000000000003553e+00,-6.343750000000003553e+00,-5.937500000000003553e+00,6.249999999999977796e-02,2.125000000000001332e+00,2.234375000000001332e+00,1.312500000000000888e+00,-2.421875000000001776e+00,-3.187500000000002220e+00,-1.593750000000001110e+00,1.640625000000000888e+00,6.109375000000003553e+00,1.006250000000000711e+01,8.468750000000005329e+00,6.015625000000005329e+00,-4.218750000000000000e-01,-7.890625000000005329e+00,-7.156250000000005329e+00,-8.125000000000005329e+00,-1.687500000000000000e+00,5.625000000000004441e+00,4.750000000000003553e+00,6.687500000000005329e+00,7.812500000000004441e-01,-5.343750000000003553e+00,-4.953125000000003553e+00,-5.625000000000003553e+00,-1.562500000000000000e-01,4.937500000000003553e+00,4.593750000000002665e+00,3.921875000000002665e+00,-1.796875000000001554e+00,-6.593750000000004441e+00,-6.312500000000004441e+00,-6.625000000000005329e+00,-7.968750000000008882e-01,3.937500000000001776e+00,6.578125000000003553e+00,1.067187500000000711e+01,6.796875000000004441e+00,4.093750000000002665e+00,-1.515625000000000444e+00,-7.765625000000005329e+00,-6.171875000000005329e+00,-5.312500000000003553e+00,-2.343750000000004441e-01,2.906250000000001776e+00,1.578125000000000888e+00,-1.250000000000002220e-01,-3.531250000000002220e+00,-1.812500000000000888e+00,2.968750000000000555e-01,2.671875000000001332e+00,5.750000000000003553e+00,2.953125000000001776e+00,7.656250000000005551e-01,-6.093750000000003331e-01,-4.406250000000003553e+00,-4.296875000000003553e+00,-4.718750000000003553e+00,-5.281250000000003553e+00,-2.359375000000001332e+00,-1.546875000000000666e+00,2.000000000000001332e+00,5.625000000000003553e+00,8.000000000000003553e+00,1.107812500000000533e+01,1.020312500000000533e+01,6.562500000000003553e+00,1.875000000000000000e-01,-3.843750000000002665e+00,-6.562500000000003553e+00,-5.781250000000003553e+00,4.218750000000002220e-01,5.468750000000002220e-01,2.015625000000000888e+00,2.031250000000000888e+00,-4.078125000000002665e+00,-3.125000000000002220e+00,-4.187500000000002665e+00,-4.093750000000002665e+00,-2.812500000000001665e-01,-1.171875000000000666e+00,6.093750000000003331e-01,-1.343750000000000888e+00,-2.671875000000001776e+00,-1.156250000000000888e+00,-2.843750000000002220e+00,1.140625000000000000e+00,3.250000000000001776e+00,1.031250000000000444e+00,1.843750000000000888e+00,-8.281250000000008882e-01,-4.546875000000003553e+00,-1.625000000000000888e+00,-1.484375000000000888e+00,-1.437500000000000666e+00,3.390625000000001776e+00,2.187500000000000888e+00,3.515625000000001776e+00,4.843750000000002665e+00,-2.968750000000000000e-01,-2.640625000000001332e+00,-6.734375000000003553e+00,-7.906250000000003553e+00,-3.859375000000002665e+00,-6.562500000000005551e-01,3.125000000000001776e+00,1.546875000000000888e+00,-3.640625000000001776e+00,-6.578125000000003553e+00,-8.546875000000005329e+00,-5.000000000000002665e+00,3.625000000000002220e+00,8.437500000000005329e+00,9.875000000000005329e+00,9.734375000000005329e+00,2.593750000000001332e+00,-2.484375000000001776e+00,-1.828125000000001110e+00,-5.671875000000003553e+00,-4.578125000000002665e+00,-8.906250000000002220e-01,-4.125000000000002665e+00,4.531250000000004441e-01,3.937500000000002665e+00,9.375000000000006661e-01,5.109375000000003553e+00,1.640625000000001332e+00,-9.375000000000000000e-01,2.890625000000001776e+00,1.562499999999988898e-02,3.781250000000001776e+00,3.984375000000001776e+00,6.249999999999955591e-02,1.296875000000000444e+00,-2.640625000000002220e+00,-4.062500000000003553e+00,-2.218750000000001776e+00,-3.140625000000002220e+00,-3.046875000000001776e+00,-4.375000000000003331e-01,-7.656250000000005551e-01,-7.812500000000000000e-02,5.125000000000003553e+00,4.656250000000003553e+00,4.015625000000002665e+00,3.671875000000002665e+00,-4.015625000000002665e+00,-5.265625000000002665e+00,-2.046875000000000888e+00,-1.156250000000000444e+00,6.265625000000005329e+00,7.031250000000006217e+00,2.515625000000001776e+00,-4.062500000000000000e-01,-6.984375000000005329e+00,-8.984375000000007105e+00,-8.812500000000007105e+00,-5.750000000000004441e+00,-7.187500000000005551e-01,2.906250000000001776e+00,6.593750000000004441e+00,4.703125000000003553e+00,-2.656250000000001110e-01,-5.265625000000004441e+00,-8.218750000000007105e+00,-6.218750000000003553e+00,-1.328125000000000888e+00,4.546875000000003553e+00,5.765625000000003553e+00,4.375000000000003553e+00,3.046875000000002220e+00,9.843750000000005551e-01,1.468750000000000888e+00,8.125000000000004441e-01,-6.250000000000011102e-02,-2.156250000000001332e+00,-2.250000000000001332e+00,1.437500000000001332e+00,1.437500000000001332e+00,2.250000000000001332e+00,6.718750000000004441e-01,-4.156250000000002665e+00,-3.734375000000002665e+00,-1.125000000000000666e+00,-5.781250000000004441e-01,1.250000000000000666e+00,2.046875000000001332e+00,-1.203125000000000888e+00,1.156250000000000666e+00,3.656250000000002665e+00,1.140625000000000666e+00,2.515625000000001332e+00,-8.750000000000013323e-01,-5.000000000000003553e+00,-1.156250000000000888e+00,-8.593750000000007772e-01,1.015625000000000222e+00,3.734375000000001776e+00,2.343749999999997780e-01,1.437500000000000888e+00,2.500000000000001776e+00,2.421875000000001332e+00,2.812500000000001776e+00,-2.906250000000002220e+00,-8.703125000000005329e+00,-1.325000000000000711e+01,-1.314062500000000711e+01,-8.250000000000003553e+00,-1.421875000000000222e+00,5.468750000000005329e+00,8.875000000000007105e+00,1.154687500000000711e+01,1.253125000000001066e+01,1.146875000000000711e+01,9.750000000000007105e+00,5.843750000000003553e+00,-8.125000000000006661e-01,-3.937500000000002665e+00,-5.312500000000003553e+00,-5.281250000000003553e+00,1.093750000000001110e+00,2.718750000000002220e+00,2.578125000000002220e+00,4.265625000000003553e+00,4.218750000000004441e-01,3.187500000000001776e+00,9.203125000000005329e+00,1.062500000000000711e+01,1.329687500000000888e+01,7.687500000000005329e+00,-5.468749999999995559e-01,-3.328125000000001332e+00,-4.046875000000002665e+00,3.687500000000002665e+00,9.953125000000007105e+00,1.176562500000000711e+01,1.353125000000001066e+01,7.921875000000006217e+00,7.421875000000005329e+00,1.028125000000000711e+01,9.515625000000005329e+00,1.373437500000000711e+01,1.060937500000000711e+01,2.000000000000000888e+00,-6.359375000000004441e+00,-1.945312500000001066e+01,-2.718750000000001776e+01,-2.925000000000002132e+01,-2.695312500000001776e+01,-1.939062500000001421e+01,-1.209375000000000888e+01,-6.078125000000003553e+00,-2.296875000000001776e+00,-7.812500000000004441e-01,-1.406250000000000833e-01,-6.250000000000004163e-02,-6.250000000000004163e-02,0.000000000000000000e+00,1.562500000000001041e-02,1.093750000000000833e-01,2.187500000000001665e-01,2.343750000000001665e-01,2.656250000000002220e-01,1.406250000000001110e-01,-3.125000000000000694e-02,-1.406250000000000833e-01,-2.500000000000001665e-01,-1.875000000000001110e-01,-9.375000000000006939e-02,-1.562500000000001388e-02,6.250000000000004163e-02,-6.938893903907228378e-18,-2.484375000000001332e+00,-7.453125000000003553e+00,-1.354687500000000711e+01,-2.095312500000001421e+01,-2.110937500000001421e+01,-1.414062500000000888e+01,-5.937500000000003553e+00,6.046875000000005329e+00,7.281250000000005329e+00,-4.171875000000003553e+00,-1.978125000000001421e+01,-4.931250000000004263e+01,-7.506250000000005684e+01,-8.718750000000005684e+01,-8.818750000000005684e+01,-5.910937500000004263e+01,-1.325000000000001776e+01,3.375000000000000711e+01,7.684375000000004263e+01,9.620312500000005684e+01,9.223437500000005684e+01,7.525000000000005684e+01,4.985937500000004263e+01,2.676562500000002842e+01,1.207812500000001066e+01,3.593750000000002665e+00,4.218750000000002776e-01,1.562500000000001110e-01,1.875000000000001665e-01,3.125000000000002220e-01,3.750000000000002776e-01,3.437500000000002220e-01,2.812500000000001665e-01,1.718750000000001110e-01,-1.562500000000000000e-02,-9.375000000000005551e-02,-1.562500000000001110e-01,-1.093750000000000694e-01,-1.562500000000001041e-02,1.562500000000001041e-02,4.687500000000002776e-02,-3.125000000000002776e-02,-7.812500000000005551e-02,-1.093750000000000833e-01,-1.250000000000000833e-01,-7.812500000000005551e-02,4.687500000000004857e-02,1.562500000000001110e-01,2.031250000000001388e-01,2.187500000000001665e-01,-1.562499999999998612e-02,-1.718750000000001110e-01,-2.187500000000001110e-01,-2.031250000000001110e-01,9.375000000000004163e-02,2.343750000000001665e-01,2.656250000000001665e-01,2.031250000000001110e-01,-4.687500000000002082e-02,-1.250000000000000833e-01,-1.406250000000001110e-01,-9.375000000000006939e-02,1.562500000000001041e-02,-1.562500000000001735e-02,-6.250000000000005551e-02,-1.250000000000001110e-01,-1.406250000000001110e-01,-3.125000000000004163e-02,9.375000000000005551e-02,2.343750000000001665e-01,2.968750000000002220e-01,2.500000000000001665e-01,1.562500000000001110e-01,1.562500000000000694e-02,-1.093750000000000833e-01,-7.812500000000005551e-02,1.312500000000000666e+00,4.125000000000001776e+00,8.281250000000007105e+00,1.401562500000001421e+01,1.710937500000002132e+01,1.837500000000002487e+01,1.759375000000001776e+01,1.368750000000001066e+01,1.150000000000000178e+01,7.968749999999992006e+00,4.703124999999992895e+00,2.531249999999994671e+00,-4.531250000000036637e-01,-6.875000000000002220e-01,-3.906250000000001110e-01,-7.812500000000000000e-02,1.046875000000000444e+00,-6.781250000000005329e+00,-2.459375000000001421e+01,-5.189062500000002842e+01,-9.029687500000005684e+01,-1.070625000000000853e+02,-9.689062500000008527e+01,-5.854687500000004974e+01
5.575000000000001421e+01,9.500000000000004263e+01,3.587500000000002842e+01,2.625000000000007994e+00,3.125000000000001665e-01,-1.250000000000000555e-01,1.250000000000000555e-01,6.250000000000002776e-02,-6.250000000000002776e-02,0.000000000000000000e+00,-6.250000000000002776e-02,0.000000000000000000e+00,1.875000000000000833e-01,1.875000000000000833e-01,0.000000000000000000e+00,0.000000000000000000e+00,1.250000000000000555e-01,-1.875000000000000833e-01,-3.125000000000001110e-01,1.250000000000000833e-01,2.500000000000001110e-01,6.250000000000002776e-02,-6.250000000000002776e-02,-6.250000000000002776e-02,0.000000000000000000e+00,-1.875000000000001110e-01,-2.500000000000001110e-01,6.250000000000002776e-02,2.500000000000001110e-01,3.125000000000001665e-01,3.125000000000002220e-01,6.250000000000004163e-02,4.375000000000071609e-01,3.125000000000015099e+00,3.812500000000001776e+00,-3.625000000000015099e+00,-8.812500000000010658e+00,-2.625000000000007994e+00,2.937499999999987566e+00,1.937500000000001110e+00,7.500000000000145439e-01,6.875000000000073275e-01,6.250000000000002220e-01,3.125000000000001665e-01,-1.875000000000001110e-01,-6.250000000000005551e-02,3.750000000000001665e-01,1.875000000000000833e-01,-3.125000000000001110e-01,-4.375000000000002220e-01,-6.250000000000005551e-02,2.500000000000001110e-01,-2.500000000000001110e-01,-5.000000000000002220e-01,2.500000000000001110e-01,5.000000000000002220e-01,1.250000000000000555e-01,6.250000000000002776e-02,1.250000000000000555e-01,1.875000000000001110e-01,-6.250000000000002776e-02,-5.000000000000002220e-01,-3.125000000000001665e-01,-6.250000000000004163e-02,-1.250000000000000555e-01,1.250000000000000833e-01,3.125000000000001665e-01,1.250000000000000555e-01,0.000000000000000000e+00,0.000000000000000000e+00,6.250000000000002776e-02,2.500000000000001110e-01,3.750000000000002220e-01,6.250000000000002776e-02,-3.750000000000002220e-01,-1.250000000000000278e-01,2.500000000000001110e-01,-1.250000000000000555e-01,-6.250000000000003331e-01,-5.625000000000003331e-01,-6.250000000000005551e-02,1.875000000000000555e-01,-6.250000000000004163e-02,-6.250000000000001388e-02,3.750000000000001665e-01,5.000000000000002220e-01,1.250000000000000833e-01,-6.250000000000002776e-02,1.250000000000000555e-01,1.250000000000000555e-01,-1.250000000000000555e-01,-1.875000000000000833e-01,-6.250000000000002776e-02,-6.250000000000002776e-02,-1.875000000000000833e-01,-1.250000000000000555e-01,1.875000000000001110e-01,3.125000000000001665e-01,0.000000000000000000e+00,-2.500000000000001110e-01,-6.250000000000002776e-02,1.250000000000000555e-01,1.250000000000000555e-01,1.250000000000000555e-01,-6.250000000000002776e-02,-3.125000000000001665e-01,-1.875000000000001110e-01,1.875000000000001110e-01,3.125000000000001665e-01,6.250000000000002776e-02,-1.875000000000000833e-01,-1.875000000000000833e-01,-6.250000000000002776e-02,-6.250000000000002776e-02,6.250000000000002776e-02,4.375000000000002220e-01,3.750000000000002220e-01,-6.250000000000005551e-02,-3.125000000000002220e-01,-3.125000000000001665e-01,-6.250000000000002776e-02,1.250000000000000555e-01,1.250000000000000555e-01,1.875000000000000833e-01,1.250000000000000555e-01,-1.250000000000000555e-01,-1.875000000000000833e-01,0.000000000000000000e+00,1.875000000000000833e-01,6.250000000000002776e-02,-2.500000000000001110e-01,-1.250000000000000833e-01,2.500000000000001110e-01,2.875000000000000888e+00,7.500000000000009770e+00,9.625000000000017764e+00,6.375000000000003553e+00,-1.000000000000001776e+01,-1.843750000000001421e+01,1.025000000000000355e+01,3.112500000000001421e+01,1.812500000000000000e+00,-3.975000000000002132e+01,-3.825000000000001421e+01,3.187500000000003553e+00,2.537500000000001066e+01,2.000000000000000711e+01,1.437500000000000711e+01,4.375000000000008882e-01,-7.437500000000003553e+00,3.500000000000000444e+00,8.000000000000003553e+00,-7.937500000000001776e+00,-2.337500000000001066e+01,-1.075000000000000711e+01,1.131250000000000355e+01,2.056250000000000711e+01,1.068750000000000355e+01,-1.437500000000000533e+01,-4.687500000000000000e+00,2.412500000000001421e+01,6.000000000000001776e+00,-2.156250000000001421e+01,-1.775000000000001066e+01,-5.687500000000002665e+00,2.562500000000001332e+00,1.812500000000000888e+00,5.437500000000003553e+00,1.543750000000000711e+01,6.937500000000001776e+00,-1.356250000000000711e+01,-2.318750000000001066e+01,-7.062500000000003553e+00,1.481250000000000711e+01,1.525000000000000711e+01,8.562500000000003553e+00,7.500000000000002665e+00,4.062500000000000888e+00,-8.687500000000003553e+00,-1.356250000000000711e+01,-4.875000000000002665e+00,-1.125000000000000444e+00,4.562500000000002665e+00,1.375000000000000711e+01,6.562500000000001776e+00,-1.168750000000000533e+01,-1.306250000000000533e+01,7.000000000000001776e+00,1.206250000000000355e+01,-1.612500000000000711e+01,-2.418750000000001066e+01,8.812500000000003553e+00,1.768750000000000711e+01,-8.375000000000003553e+00,-1.718750000000000711e+01,2.500000000000001776e+00,2.506250000000001066e+01,1.943750000000000711e+01,-9.312500000000005329e+00,-1.625000000000001066e+01,-5.375000000000003553e+00,-1.368750000000000533e+01,-1.531250000000000711e+01,1.493750000000000533e+01,2.918750000000001421e+01,6.125000000000002665e+00,-1.031250000000000533e+01,-6.125000000000002665e+00,-4.375000000000001110e-01,1.687500000000000444e+00,-2.250000000000000888e+00,-9.812500000000005329e+00,-4.875000000000002665e+00,1.306250000000000711e+01,1.518750000000000711e+01,-8.562500000000005329e+00,-1.600000000000000711e+01,1.281250000000000533e+01,1.818750000000000711e+01,-1.293750000000000533e+01,-1.456250000000000533e+01,7.250000000000003553e+00,5.875000000000003553e+00,-5.625000000000001776e+00,-5.812500000000002665e+00,-1.437500000000000888e+00,1.875000000000000833e-01,6.250000000000002776e-02,-2.500000000000001110e-01,-1.875000000000001110e-01,6.250000000000002776e-02,6.250000000000002776e-02,-6.250000000000002776e-02,-1.250000000000000555e-01,0.000000000000000000e+00,1.250000000000000555e-01,1.250000000000000555e-01,1.875000000000000833e-01,1.250000000000000555e-01,-1.875000000000001110e-01,-2.500000000000001110e-01,6.250000000000002776e-02,6.250000000000002776e-02,-1.875000000000000833e-01,-1.250000000000000555e-01,6.250000000000002776e-02,2.500000000000001110e-01,1.875000000000001110e-01,-1.875000000000001110e-01,-2.500000000000001110e-01,-6.250000000000002776e-02,1.875000000000001110e-01,4.375000000000002220e-01,6.250000000000000000e-02,-5.625000000000003331e-01,-3.125000000000002220e-01,3.750000000000002220e-01,4.375000000000002220e-01,0.000000000000000000e+00,-3.750000000000001665e-01,-3.125000000000001110e-01,0.000000000000000000e+00,0.000000000000000000e+00,0.000000000000000000e+00,2.500000000000001110e-01,1.875000000000001110e-01,0.000000000000000000e+00,6.250000000000002776e-02,0.000000000000000000e+00,-1.250000000000000555e-01,-6.250000000000002776e-02,0.000000000000000000e+00,6.250000000000002776e-02,6.250000000000002776e-02,-1.875000000000001110e-01,-1.875000000000001110e-01,1.875000000000001110e-01,1.875000000000001110e-01,-6.250000000000002776e-02,-6.250000000000002776e-02,0.000000000000000000e+00,0.000000000000000000e+00,0.000000000000000000e+00,0.000000000000000000e+00,0.000000000000000000e+00,0.000000000000000000e+00,0.000000000000000000e+00,0.000000000000000000e+00,6.250000000000002776e-02,-1.687500000000000888e+00,-3.687500000000001776e+00,-1.062500000000000444e+00,-4.437500000000001776e+00,-8.687500000000003553e+00,8.750000000000005329e+00,1.643750000000000711e+01,-1.112500000000000533e+01,-2.731250000000001066e+01,1.937500000000003553e+00,3.437500000000001421e+01,1.512500000000000355e+01,-1.800000000000001066e+01,-1.581250000000000888e+01,-1.168750000000000711e+01,-1.031250000000000711e+01,1.487500000000000533e+01,2.631250000000001066e+01,-2.000000000000001776e+00,-2.200000000000000711e+01,-8.750000000000001776e+00,4.750000000000003553e+00,2.000000000000000888e+00,3.250000000000000888e+00,1.218750000000000533e+01,1.687500000000000000e+00,-1.625000000000000711e+01,-3.500000000000000000e+00,1.487500000000000711e+01,5.187500000000001776e+00,-2.875000000000001776e+00,8.125000000000006661e-01,1.875000000000003331e-01,4.187500000000001776e+00,3.125000000000000000e-01,-5.375000000000002665e+00,5.937500000000002665e+00,-6.250000000000000000e-01,-1.387500000000000711e+01,6.562500000000003553e+00,1.600000000000000711e+01,-1.043750000000000533e+01,-1.493750000000000711e+01,7.937500000000002665e+00,5.625000000000001776e+00,-1.312500000000000533e+01,-1.362500000000000533e+01,3.750000000000000000e-01,1.387500000000000533e+01,7.187500000000001776e+00,-6.312500000000003553e+00,2.687500000000001776e+00,7.250000000000003553e+00,-6.187500000000003553e+00,-7.125000000000003553e+00,6.375000000000003553e+00,1.225000000000000533e+01,2.750000000000000888e+00,-1.175000000000000355e+01,-9.000000000000003553e+00,1.093750000000000533e+01,1.318750000000000711e+01,5.000000000000001776e+00,6.500000000000001776e+00,-5.687500000000001776e+00,-1.193750000000000355e+01,6.437500000000002665e+00,1.456250000000000711e+01,1.225000000000000533e+01,2.375000000000000888e+00,-1.962500000000000711e+01,-1.206250000000000533e+01,1.575000000000000888e+01,1.143750000000000533e+01,-2.937500000000001776e+00,-9.437500000000003553e+00,-2.262500000000001066e+01,-1.575000000000000711e+01,7.500000000000001110e-01,-7.062500000000003553e+00,-2.750000000000000888e+00,1.281250000000000533e+01,6.187500000000001776e+00,6.562500000000003553e+00,5.250000000000002665e+00,-1.237500000000000711e+01,-9.375000000000017764e-01,1.443750000000000711e+01,-7.437500000000004441e+00,-1.556250000000000888e+01,4.750000000000001776e+00,1.325000000000000711e+01,9.687500000000003553e+00,1.875000000000000888e+00,-5.437500000000002665e+00,3.625000000000001776e+00,1.475000000000000711e+01,7.687500000000003553e+00,3.875000000000000888e+00,-3.125000000000017764e-01,-2.350000000000001066e+01,-2.425000000000000711e+01,5.812500000000003553e+00,1.837500000000000711e+01,6.250000000000000000e-02,-1.862500000000000711e+01,-6.750000000000003553e+00,1.162500000000000533e+01,8.187500000000003553e+00,-4.250000000000001776e+00,-1.381250000000000533e+01,-4.250000000000001776e+00,1.787500000000000711e+01,1.887500000000000711e+01,2.000000000000000000e+00,-7.312500000000003553e+00,-8.437500000000003553e+00,1.312500000000000888e+00,1.412500000000000711e+01,1.125000000000000000e+00,-1.637500000000000711e+01,-1.481250000000000533e+01,-1.050000000000000355e+01,-5.000000000000003553e+00,1.687500000000000444e+00,-3.124999999999991118e-01,-2.937500000000000888e+00,8.250000000000003553e+00,1.381250000000000533e+01,5.687500000000002665e+00,4.562500000000002665e+00,-7.500000000000000000e-01,-7.437500000000003553e+00,6.937500000000001776e+00,1.918750000000000711e+01,9.437500000000003553e+00,-5.875000000000003553e+00,-1.093750000000000711e+01,-4.562500000000001776e+00,-6.187500000000002665e+00,-1.106250000000000533e+01,7.000000000000003553e+00,1.275000000000000533e+01,-1.193750000000000711e+01,-9.750000000000005329e+00,1.893750000000000711e+01,1.662500000000000711e+01,-1.093750000000000533e+01,-1.475000000000000711e+01,1.312500000000000888e+00,-2.562500000000001776e+00,-1.256250000000000711e+01,3.687500000000000888e+00,1.650000000000000711e+01,-3.250000000000000000e+00,-1.612500000000000711e+01,3.000000000000000000e+00,1.281250000000000533e+01,-1.937500000000000888e+00,-1.275000000000000711e+01,-1.181250000000000711e+01,-2.375000000000001332e+00,4.625000000000002665e+00,5.937500000000003553e+00,1.281250000000000533e+01,8.937500000000003553e+00,-1.112500000000000533e+01,-1.706250000000000711e+01,3.812500000000000000e+00,1.906250000000000711e+01,6.875000000000000000e-01,-1.456250000000000711e+01,3.000000000000000000e+00,1.087500000000000533e+01,-4.062500000000001776e+00,1.750000000000000888e+00,1.375000000000000711e+01,-6.062500000000003553e+00,-1.968750000000001066e+01,-1.687500000000001776e+00,8.875000000000003553e+00,3.125000000000001776e+00,-3.812500000000001776e+00,-5.437500000000002665e+00,7.312500000000002665e+00,1.012500000000000355e+01,-1.312500000000000222e+00,3.125000000000000888e+00,1.562500000000000000e+00,-1.200000000000000533e+01,-1.812500000000000000e+00,1.200000000000000711e+01,2.562500000000000888e+00,-1.181250000000000533e+01,-1.143750000000000533e+01,5.500000000000001776e+00,9.562500000000003553e+00,-4.812500000000002665e+00,1.187500000000000888e+00,1.025000000000000533e+01,-7.125000000000001776e+00,-1.275000000000000533e+01,4.999999999999995559e-01,7.625000000000003553e+00,9.937500000000005329e+00,-1.125000000000000888e+00,-1.087500000000000533e+01,3.125000000000001776e+00,1.087500000000000533e+01,-2.312500000000000000e+00,-6.375000000000001776e+00,3.000000000000001332e+00,7.687500000000003553e+00,4.000000000000001776e+00,-4.562500000000001776e+00,-2.937500000000000888e+00,4.437500000000001776e+00,6.250000000000044409e-02,-1.000000000000000444e+00,5.125000000000001776e+00,6.875000000000004441e-01,-8.625000000000003553e+00,-1.125000000000000355e+01,-3.000000000000001776e+00,9.937500000000003553e+00,6.000000000000002665e+00,-1.312500000000000888e+00,-7.500000000000004441e-01,-7.125000000000003553e+00,-3.125000000000002220e+00,4.562500000000001776e+00,3.062500000000001776e+00,6.062500000000002665e+00,-4.562500000000001776e+00,-1.306250000000000533e+01,8.250000000000005329e+00,1.200000000000000711e+01,-1.056250000000000533e+01,-5.000000000000003553e+00,9.750000000000003553e+00,-3.250000000000001776e+00,-6.875000000000003553e+00,5.625000000000001776e+00,5.937500000000002665e+00,1.437500000000000666e+00,-2.687500000000001776e+00,-3.000000000000001776e+00,2.562500000000000888e+00,-2.125000000000000888e+00,-1.081250000000000533e+01,1.312500000000000000e+00,1.500000000000000711e+01,1.437500000000000888e+00,-1.106250000000000355e+01,-5.125000000000001776e+00,2.625000000000000888e+00,3.125000000000000888e+00,-5.062500000000002665e+00,-2.500000000000008882e-01,1.443750000000000711e+01,6.562500000000004441e+00,-8.937500000000003553e+00,-9.375000000000005329e+00,-4.875000000000002665e+00,-3.750000000000002220e-01,2.687500000000001332e+00,1.375000000000000666e+00,-1.875000000000000555e-01,3.437500000000001776e+00,6.875000000000003553e+00,-1.812500000000001332e+00,-5.562500000000002665e+00,9.375000000000005551e-01,-5.250000000000002665e+00,-7.125000000000003553e+00,5.000000000000001776e+00,9.500000000000003553e+00,5.875000000000002665e+00,-6.312500000000002665e+00,-1.731250000000000711e+01,-2.000000000000000000e+00,1.962500000000001066e+01,1.068750000000000711e+01,-7.187500000000003553e+00,-8.812500000000003553e+00,-7.500000000000003553e+00,2.312500000000001776e+00,1.512500000000000711e+01,7.562500000000002665e+00,-9.125000000000003553e+00,-1.681250000000000711e+01,-4.437500000000001776e+00,1.437500000000000711e+01,5.687500000000003553e+00,-1.218750000000000533e+01,-4.562500000000001776e+00,9.250000000000003553e+00,6.125000000000002665e+00,1.187500000000000222e+00,-2.125000000000000888e+00,-1.025000000000000533e+01,-2.500000000000000000e-01,1.406250000000000711e+01,-2.375000000000000000e+00,-1.493750000000000533e+01,1.125000000000000888e+00,9.625000000000003553e+00,2.250000000000000888e+00,-3.625000000000001332e+00,-1.625000000000000222e+00,3.875000000000001776e+00,-1.750000000000000888e+00,-1.812500000000000444e+00,6.187500000000002665e+00,-4.437500000000001776e+00,-5.937500000000002665e+00,1.062500000000000355e+01,1.375000000000000000e+00,-1.550000000000000711e+01,1.000000000000000000e+00,1.643750000000000711e+01,1.062500000000000000e+00,-7.687500000000004441e+00,-8.125000000000006661e-01,-5.437500000000001776e+00,-5.812500000000002665e+00,8.750000000000003553e+00,8.312500000000003553e+00,-6.750000000000003553e+00,-4.875000000000002665e+00,7.375000000000003553e+00,1.125000000000000888e+00,-1.218750000000000533e+01,-4.375000000000001776e+00,1.512500000000000711e+01,1.493750000000000711e+01,-4.187500000000001776e+00,-1.356250000000000711e+01,-9.437500000000005329e+00,5.625000000000000000e-01,9.312500000000003553e+00,2.250000000000000000e+00,-4.375000000000001776e+00,3.187500000000001332e+00,3.812500000000001776e+00,-6.437500000000002665e+00,-7.875000000000003553e+00,2.312500000000000888e+00,7.125000000000002665e+00,1.625000000000000222e+00,1.500000000000000666e+00,8.750000000000003553e+00,3.375000000000001332e+00,-7.312500000000003553e+00,-9.250000000000003553e+00,-8.000000000000003553e+00,1.937500000000001332e+00,7.687500000000003553e+00,4.125000000000001776e+00,5.250000000000001776e+00,-1.250000000000000444e+00,-5.312500000000001776e+00,7.500000000000003331e-01,-6.250000000000003553e+00,-1.081250000000000533e+01,6.812500000000001776e+00,1.981250000000000711e+01,3.750000000000002665e+00,-1.675000000000000711e+01,-5.812500000000003553e+00,9.000000000000003553e+00,-4.562500000000001776e+00,-1.112500000000000355e+01,4.937500000000002665e+00,1.243750000000000533e+01,6.250000000000000000e-01,-5.437500000000001776e+00,7.687500000000003553e+00,8.937500000000003553e+00,-7.000000000000003553e+00,-1.456250000000000711e+01,-9.187500000000003553e+00,7.875000000000002665e+00,1.631250000000000711e+01,8.750000000000017764e-01,-1.106250000000000355e+01,-2.375000000000000888e+00,1.750000000000001554e+00,-6.375000000000002665e+00,2.812500000000000888e+00,1.425000000000000711e+01,-1.062500000000000000e+00,-8.937500000000005329e+00,2.125000000000000888e+00,1.125000000000000888e+00,-3.312500000000001332e+00,1.562500000000000444e+00,-5.000000000000000000e-01,-9.125000000000003553e+00,-2.750000000000000888e+00,1.268750000000000533e+01,4.000000000000001776e+00,-1.281250000000000533e+01,-3.750000000000000000e-01,1.806250000000000711e+01,1.150000000000000533e+01,-5.000000000000002665e+00,-1.268750000000000711e+01,-9.000000000000003553e+00,5.500000000000002665e+00,7.312500000000003553e+00,-6.875000000000003553e+00,4.375000000000000000e-01,1.062500000000000533e+01,-2.937500000000001776e+00,-8.375000000000003553e+00,-3.062500000000001776e+00,-1.250000000000002220e-01,4.500000000000001776e+00,2.625000000000001332e+00,-5.062500000000001776e+00,-3.250000000000001332e+00,7.312500000000003553e+00,1.437500000000001776e+00,-1.137500000000000533e+01,-2.000000000000001776e+00,6.687500000000002665e+00,5.125000000000001776e+00,5.937500000000002665e+00,-6.437500000000001776e+00,-1.268750000000000533e+01,5.687500000000001776e+00,7.125000000000002665e+00,-5.937500000000002665e+00,-1.000000000000000444e+00,3.750000000000001776e+00,1.250000000000001110e-01,-1.437500000000000666e+00,3.250000000000001332e+00,1.006250000000000355e+01,-2.812500000000001776e+00,-2.131250000000001066e+01,-8.937500000000005329e+00,1.631250000000000711e+01,1.256250000000000711e+01,-7.812500000000003553e+00,-4.062500000000001776e+00,5.937500000000002665e+00,-8.062500000000003553e+00,-1.462500000000000533e+01,7.500000000000008882e-01,1.150000000000000533e+01,1.487500000000000711e+01,5.812500000000002665e+00,-1.318750000000000711e+01,-5.937500000000003553e+00,8.062500000000003553e+00,-3.562500000000001776e+00,-3.000000000000001776e+00,5.187500000000002665e+00,-5.812500000000002665e+00,-4.125000000000002665e+00,3.875000000000000888e+00,2.000000000000000888e+00,6.812500000000003553e+00,1.375000000000000888e+00,-8.500000000000003553e+00,-2.437500000000000888e+00,3.875000000000001776e+00,4.187500000000001776e+00,6.250000000000004441e-01,1.937500000000001332e+00,1.500000000000000888e+00,-9.375000000000003553e+00,-8.125000000000000000e-01,1.181250000000000533e+01,-6.937500000000003553e+00,-1.350000000000000533e+01,9.750000000000005329e+00,9.812500000000003553e+00,-8.187500000000003553e+00,-8.312500000000003553e+00,1.062500000000000000e+00,1.350000000000000711e+01,1.250000000000000711e+01,-9.375000000000003553e+00,-1.475000000000000711e+01,-4.000000000000001776e+00,2.625000000000001332e+00,1.050000000000000533e+01,5.875000000000002665e+00,-2.187500000000000888e+00,2.625000000000001332e+00,-3.812500000000002220e+00,-1.337500000000000711e+01,4.375000000000000000e-01,1.000000000000000533e+01,-8.562500000000003553e+00,-1.206250000000000533e+01,1.381250000000000711e+01,1.612500000000000711e+01,-4.687500000000001776e+00,-7.125000000000002665e+00,-3.937500000000002220e+00,-1.118750000000000533e+01,-3.875000000000001776e+00,1.400000000000000533e+01,1.118750000000000355e+01,-1.375000000000000444e+00,-6.375000000000002665e+00,-8.437500000000003553e+00,8.750000000000008882e-01,1.468750000000000711e+01,6.062500000000001776e+00,-1.268750000000000533e+01,-9.312500000000003553e+00,1.000000000000000222e+00,3.500000000000000888e+00,1.318750000000000711e+01,7.750000000000003553e+00,-1.693750000000000711e+01,-1.506250000000000711e+01,6.312500000000003553e+00,1.175000000000000533e+01,6.000000000000002665e+00,-6.062500000000002665e+00,-1.181250000000000533e+01,3.937500000000001776e+00,7.937500000000003553e+00,-3.125000000000000888e+00,4.000000000000002665e+00,6.000000000000003553e+00,-7.750000000000003553e+00,-1.037500000000000533e+01,-2.875000000000001776e+00,1.056250000000000355e+01,1.406250000000000533e+01,-5.500000000000001776e+00,-1.543750000000000711e+01,-1.812500000000000888e+00,1.156250000000000533e+01,9.312500000000003553e+00,-1.250000000000000888e+00,-4.937500000000002665e+00,-7.000000000000002665e+00,-1.212500000000000533e+01,-6.937500000000003553e+00,7.875000000000003553e+00,1.018750000000000355e+01,-8.750000000000008882e-01,-2.875000000000001332e+00,4.000000000000001776e+00,7.000000000000003553e+00,5.375000000000002665e+00,1.625000000000000888e+00,2.500000000000004996e-01,-1.312500000000000444e+00,-9.375000000000003553e+00,-6.250000000000003553e+00,7.250000000000003553e+00,3.625000000000002665e+00,-3.750000000000000000e-01,5.500000000000002665e+00,-3.750000000000000000e-01,-6.562500000000002665e+00,-5.562500000000001776e+00,2.062500000000000444e+00,2.043750000000000711e+01,1.825000000000000711e+01,-9.687500000000005329e+00,-2.212500000000001066e+01,-8.062500000000003553e+00,8.062500000000003553e+00,1.200000000000000711e+01,1.212500000000000533e+01,2.500000000000000000e+00,-1.187500000000000711e+01,-2.500000000000000000e-01,1.168750000000000711e+01,1.875000000000017764e-01,-3.750000000000000000e-01,8.437500000000001776e+00,7.875000000000003553e+00,1.687500000000002442e+00,-9.187500000000005329e+00,-1.543750000000000711e+01,-1.268750000000000533e+01,-7.750000000000002665e+00,-3.062500000000000888e+00,-3.125000000000001665e-01,2.500000000000001110e-01,0.000000000000000000e+00,-2.500000000000001110e-01,-6.250000000000002776e-02,1.250000000000000555e-01,6.250000000000002776e-02,-6.250000000000002776e-02,-1.250000000000000555e-01,0.000000000000000000e+00,1.250000000000000555e-01,1.250000000000000555e-01,1.250000000000000555e-01,6.250000000000002776e-02,6.250000000000002776e-02,0.000000000000000000e+00,-3.125000000000001110e-01,-3.125000000000001110e-01,1.250000000000000833e-01,3.125000000000001665e-01,0.000000000000000000e+00,-1.875000000000000833e-01,6.250000000000002776e-02,6.250000000000002776e-02,-1.875000000000000833e-01,-6.250000000000002776e-02,-9.687500000000003553e+00,-2.950000000000001066e+01,-1.456250000000000533e+01,3.450000000000001421e+01,3.262500000000001421e+01,-1.737500000000000711e+01,-2.793750000000001066e+01,4.750000000000001776e+00,1.306250000000000533e+01,-3.993750000000001421e+01,-7.968750000000002842e+01,-3.100000000000001421e+01,1.925000000000000355e+01,1.325000000000000178e+01,2.406250000000000000e+01,5.156250000000000711e+01,4.093750000000002132e+01,1.318750000000001954e+01,1.937500000000007994e+00,6.875000000000003331e-01,6.250000000000005551e-02,-3.750000000000001665e-01,-2.500000000000001110e-01,1.250000000000000833e-01,2.500000000000001110e-01,1.875000000000000833e-01,0.000000000000000000e+00,-6.250000000000002776e-02,1.875000000000001110e-01,2.500000000000001110e-01,0.000000000000000000e+00,-1.250000000000000555e-01,-2.500000000000001110e-01,-2.500000000000001110e-01,1.875000000000000833e-01,4.375000000000002220e-01,-6.250000000000000000e-02,-4.375000000000002220e-01,6.250000000000000000e-02,3.125000000000001110e-01,-1.875000000000000833e-01,-2.500000000000001110e-01,1.250000000000000555e-01,0.000000000000000000e+00,-6.250000000000002776e-02,3.750000000000002220e-01,3.750000000000002220e-01,-1.875000000000000833e-01,-6.250000000000003331e-01,-3.750000000000002220e-01,3.125000000000001110e-01,4.375000000000001665e-01,1.875000000000000833e-01,6.250000000000002776e-02,-1.250000000000000555e-01,-2.500000000000001110e-01,-1.875000000000000833e-01,6.250000000000002776e-02,2.500000000000001110e-01,6.250000000000002776e-02,-1.250000000000000555e-01,-6.250000000000002776e-02,-6.250000000000002776e-02,-1.875000000000000833e-01,-6.250000000000002776e-02,3.125000000000001110e-01,3.125000000000001110e-01,-6.250000000000002776e-02,-1.250000000000000555e-01,1.250000000000000555e-01,1.250000000000000555e-01,-1.875000000000001110e-01,-3.125000000000001665e-01,0.000000000000000000e+00,2.500000000000001110e-01,3.750000000000001665e-01,5.750000000000008882e+00,1.562500000000001954e+01,9.750000000000003553e+00,-8.500000000000017764e+00,-5.750000000000008882e+00,1.225000000000000711e+01,1.162500000000000533e+01,-6.125000000000003553e+00,-1.075000000000000533e+01,1.250000000000001332e+00,5.312500000000001776e+00,1.375000000000000222e+00,6.875000000000002220e-01,-3.500000000000001776e+00,-4.812500000000001776e+00,6.562500000000004441e+00,8.812500000000005329e+00,-3.912500000000002132e+01,-1.128125000000000568e+02,-7.781250000000004263e+01
1.172500000000000284e+02,4.749999999999987566e+00,1.000000000000014433e+00,2.500000000000000555e-01,2.500000000000000555e-01,-7.500000000000002220e-01,7.500000000000002220e-01,-2.500000000000000555e-01,-2.500000000000000555e-01,5.000000000000001110e-01,-5.000000000000001110e-01,2.500000000000000555e-01,0.000000000000000000e+00,0.000000000000000000e+00,2.500000000000000555e-01,-5.000000000000001110e-01,5.000000000000001110e-01,0.000000000000000000e+00,-7.500000000000002220e-01,7.500000000000002220e-01,-2.500000000000000555e-01,0.000000000000000000e+00,2.500000000000000555e-01,-5.000000000000001110e-01,5.000000000000001110e-01,-2.500000000000000555e-01,-2.500000000000000555e-01,2.500000000000000555e-01,0.000000000000000000e+00,0.000000000000000000e+00,2.500000000000000555e-01,0.000000000000000000e+00,-2.500000000000000555e-01,2.500000000000142664e-01,1.999999999999986233e+00,4.000000000000001776e+00,-1.350000000000000355e+01,7.250000000000001776e+00,-1.250000000000000222e+00,9.999999999999860112e-01,-2.499999999999858447e-01,5.000000000000001110e-01,-2.500000000000000555e-01,7.500000000000002220e-01,-7.500000000000002220e-01,2.500000000000000555e-01,0.000000000000000000e+00,5.000000000000001110e-01,-7.500000000000002220e-01,5.000000000000001110e-01,-7.500000000000002220e-01,7.500000000000002220e-01,0.000000000000000000e+00,-1.000000000000000222e+00,7.500000000000002220e-01,2.500000000000000555e-01,-5.000000000000001110e-01,5.000000000000001110e-01,-2.500000000000000555e-01,0.000000000000000000e+00,5.000000000000001110e-01,-7.500000000000002220e-01,0.000000000000000000e+00,5.000000000000001110e-01,-7.500000000000002220e-01,5.000000000000001110e-01,0.000000000000000000e+00,0.000000000000000000e+00,0.000000000000000000e+00,0.000000000000000000e+00,0.000000000000000000e+00,0.000000000000000000e+00,2.500000000000000555e-01,0.000000000000000000e+00,0.000000000000000000e+00,-7.500000000000002220e-01,1.250000000000014655e+00,-1.000000000000028644e+00,5.000000000000285327e-01,-7.500000000000286438e-01,2.500000000000142664e-01,2.500000000000000555e-01,-2.500000000000000555e-01,0.000000000000000000e+00,0.000000000000000000e+00,5.000000000000001110e-01,-2.500000000000000555e-01,0.000000000000000000e+00,0.000000000000000000e+00,2.500000000000000555e-01,-2.500000000000000555e-01,0.000000000000000000e+00,0.000000000000000000e+00,0.000000000000000000e+00,0.000000000000000000e+00,-2.500000000000000555e-01,2.500000000000000555e-01,0.000000000000000000e+00,2.500000000000000555e-01,-5.000000000000001110e-01,2.500000000000000555e-01,0.000000000000000000e+00,0.000000000000000000e+00,0.000000000000000000e+00,2.500000000000000555e-01,-5.000000000000001110e-01,2.500000000000000555e-01,-2.500000000000000555e-01,5.000000000000001110e-01,-2.500000000000000555e-01,0.000000000000000000e+00,0.000000000000000000e+00,-2.500000000000000555e-01,5.000000000000001110e-01,-7.500000000000002220e-01,7.500000000000002220e-01,0.000000000000000000e+00,-2.500000000000000555e-01,2.500000000000000555e-01,-5.000000000000001110e-01,2.500000000000000555e-01,0.000000000000000000e+00,0.000000000000000000e+00,0.000000000000000000e+00,2.500000000000000555e-01,-2.500000000000000555e-01,0.000000000000000000e+00,0.000000000000000000e+00,0.000000000000000000e+00,2.500000000000000555e-01,-2.500000000000000555e-01,-2.500000000000000555e-01,5.000000000000001110e-01,-2.500000000000000555e-01,2.500000000000000555e-01,1.025000000000001599e+01,-1.200000000000001599e+01,2.425000000000000355e+01,-4.075000000000000711e+01,1.525000000000000355e+01,2.475000000000000355e+01,-1.075000000000000178e+01,-1.250000000000000000e+00,-3.750000000000000711e+01,1.675000000000000711e+01,2.075000000000000355e+01,-1.950000000000000355e+01,2.550000000000000711e+01,-4.750000000000001776e+00,-1.925000000000000355e+01,2.475000000000000711e+01,-1.975000000000000355e+01,2.625000000000000355e+01,-3.425000000000000711e+01,2.000000000000000000e+00,1.875000000000000355e+01,-1.925000000000000355e+01,3.600000000000000711e+01,-2.325000000000000711e+01,-2.200000000000000355e+01,4.525000000000001421e+01,-1.075000000000000355e+01,-2.075000000000000355e+01,1.250000000000000355e+01,-1.400000000000000355e+01,3.750000000000001332e+00,1.700000000000000355e+01,-3.675000000000000711e+01,5.125000000000001421e+01,-3.450000000000000711e+01,2.225000000000000355e+01,-2.250000000000000711e+01,-1.100000000000000178e+01,3.175000000000000711e+01,-2.150000000000000711e+01,2.125000000000000711e+01,-1.100000000000000355e+01,5.000000000000000888e+00,1.250000000000000178e+01,-4.100000000000000711e+01,4.525000000000001421e+01,-4.425000000000001421e+01,3.750000000000000711e+01,-2.900000000000000711e+01,4.100000000000000711e+01,-4.075000000000000711e+01,2.175000000000000355e+01,-2.425000000000000711e+01,3.625000000000000711e+01,-1.775000000000000355e+01,-2.300000000000000355e+01,1.325000000000000355e+01,2.300000000000000355e+01,-2.650000000000000711e+01,8.750000000000001776e+00,-1.475000000000000355e+01,2.075000000000000711e+01,7.000000000000001776e+00,-2.000000000000000000e+00,-2.450000000000000711e+01,2.400000000000000711e+01,-1.300000000000000178e+01,-1.350000000000000355e+01,5.750000000000001776e+00,2.475000000000000711e+01,-6.750000000000001776e+00,-1.425000000000000355e+01,1.725000000000000355e+01,-2.250000000000000711e+01,2.575000000000000711e+01,-2.450000000000000711e+01,2.300000000000000711e+01,-3.450000000000000711e+01,3.300000000000000711e+01,-1.200000000000000355e+01,1.725000000000000355e+01,-3.375000000000000711e+01,1.225000000000000355e+01,3.250000000000000711e+01,-3.450000000000000711e+01,5.000000000000008882e-01,1.100000000000000178e+01,2.500000000000000000e-01,-5.500000000000000888e+00,-5.000000000000001110e-01,5.000000000000001110e-01,-5.000000000000001110e-01,7.500000000000002220e-01,-7.500000000000002220e-01,2.500000000000000555e-01,0.000000000000000000e+00,0.000000000000000000e+00,0.000000000000000000e+00,0.000000000000000000e+00,-2.500000000000000555e-01,5.000000000000001110e-01,-5.000000000000001110e-01,5.000000000000001110e-01,-2.500000000000000555e-01,2.500000000000000555e-01,-5.000000000000001110e-01,2.500000000000000555e-01,2.500000000000000555e-01,-5.000000000000001110e-01,2.500000000000000555e-01,0.000000000000000000e+00,-2.500000000000000555e-01,7.500000000000002220e-01,-7.500000000000002220e-01,2.500000000000000555e-01,0.000000000000000000e+00,-2.500000000000000555e-01,5.000000000000001110e-01,0.000000000000000000e+00,-2.500000000000000555e-01,-5.000000000000001110e-01,7.500000000000002220e-01,-2.500000000000000555e-01,2.500000000000000555e-01,-2.500000000000000555e-01,-2.500000000000000555e-01,2.500000000000000555e-01,0.000000000000000000e+00,-2.500000000000000555e-01,2.500000000000000555e-01,2.500000000000000555e-01,-5.000000000000001110e-01,5.000000000000001110e-01,-2.500000000000000555e-01,0.000000000000000000e+00,0.000000000000000000e+00,0.000000000000000000e+00,0.000000000000000000e+00,0.000000000000000000e+00,2.500000000000000555e-01,-7.500000000000002220e-01,7.500000000000002220e-01,-2.500000000000000555e-01,0.000000000000000000e+00,0.000000000000000000e+00,0.000000000000000000e+00,0.000000000000000000e+00,0.000000000000000000e+00,0.000000000000000000e+00,0.000000000000000000e+00,0.000000000000000000e+00,0.000000000000000000e+00,0.000000000000000000e+00,0.000000000000000000e+00,0.000000000000000000e+00,2.500000000000000555e-01,-7.750000000000001776e+00,1.475000000000000355e+01,-1.775000000000000355e+01,-4.500000000000001776e+00,3.850000000000000711e+01,-3.575000000000000711e+01,1.350000000000000355e+01,-3.350000000000000711e+01,4.825000000000001421e+01,-2.500000000000000000e+00,-2.150000000000000711e+01,2.000000000000000000e+00,1.075000000000000355e+01,-2.975000000000000711e+01,2.125000000000000711e+01,7.250000000000001776e+00,1.125000000000000355e+01,-3.850000000000000711e+01,2.825000000000000355e+01,-2.225000000000000355e+01,2.725000000000000711e+01,-3.100000000000000711e+01,2.925000000000000711e+01,-4.750000000000000888e+00,-1.100000000000000355e+01,-6.750000000000001776e+00,1.775000000000000355e+01,4.250000000000000888e+00,-2.600000000000000711e+01,3.500000000000000711e+01,-3.025000000000000711e+01,1.400000000000000355e+01,1.225000000000000355e+01,-3.025000000000000711e+01,2.300000000000000355e+01,5.000000000000000888e+00,-2.550000000000000711e+01,7.750000000000001776e+00,2.350000000000000711e+01,-1.725000000000000355e+01,-1.350000000000000355e+01,1.400000000000000355e+01,1.075000000000000178e+01,-2.400000000000000711e+01,1.150000000000000355e+01,-1.150000000000000355e+01,7.750000000000001776e+00,1.750000000000000355e+01,-2.650000000000000711e+01,1.025000000000000355e+01,1.500000000000000355e+01,-2.225000000000000711e+01,1.350000000000000355e+01,-1.550000000000000355e+01,2.650000000000000711e+01,-1.925000000000000711e+01,1.550000000000000355e+01,-2.600000000000000711e+01,1.450000000000000355e+01,1.925000000000000355e+01,-3.175000000000000711e+01,3.225000000000000711e+01,-1.000000000000000178e+01,-1.975000000000000711e+01,1.900000000000000355e+01,2.500000000000000888e+00,-9.250000000000001776e+00,2.400000000000000355e+01,-2.050000000000000355e+01,-1.800000000000000355e+01,2.975000000000000711e+01,-1.250000000000000000e+00,-1.800000000000000355e+01,2.425000000000000355e+01,-2.550000000000000711e+01,-8.000000000000001776e+00,1.550000000000000355e+01,7.500000000000002220e-01,-3.550000000000000711e+01,5.525000000000001421e+01,-3.750000000000000711e+01,1.100000000000000355e+01,2.025000000000000355e+01,-2.600000000000000711e+01,-3.000000000000001776e+00,2.650000000000000711e+01,-8.000000000000003553e+00,-3.125000000000000711e+01,4.025000000000001421e+01,-3.025000000000000711e+01,3.150000000000000711e+01,-2.125000000000000711e+01,1.550000000000000355e+01,-2.275000000000000711e+01,2.975000000000000711e+01,-8.750000000000001776e+00,-9.000000000000001776e+00,2.300000000000000355e+01,-1.725000000000000355e+01,-2.550000000000000355e+01,2.850000000000000711e+01,-1.200000000000000355e+01,1.950000000000000355e+01,-2.100000000000000711e+01,-1.325000000000000178e+01,3.850000000000000711e+01,-3.700000000000000711e+01,3.750000000000000711e+01,-3.600000000000000711e+01,1.150000000000000355e+01,1.750000000000000000e+00,1.350000000000000355e+01,-3.000000000000000000e+00,-1.200000000000000355e+01,1.825000000000000355e+01,-3.175000000000000711e+01,3.475000000000000711e+01,-4.250000000000000000e+00,-2.625000000000000711e+01,2.775000000000000711e+01,-3.675000000000000711e+01,3.050000000000000711e+01,-2.825000000000000711e+01,2.925000000000000711e+01,-2.600000000000000711e+01,9.750000000000001776e+00,1.650000000000000355e+01,-1.675000000000000355e+01,1.025000000000000178e+01,6.500000000000001776e+00,-1.875000000000000355e+01,8.750000000000001776e+00,1.150000000000000178e+01,-2.250000000000000000e+00,5.000000000000000000e-01,-5.500000000000000888e+00,-7.000000000000001776e+00,1.750000000000000355e+01,-2.475000000000000711e+01,2.750000000000000000e+00,3.025000000000000711e+01,-2.800000000000000711e+01,-4.750000000000000000e+00,1.550000000000000355e+01,9.250000000000003553e+00,-7.250000000000001776e+00,-1.725000000000000355e+01,1.625000000000000355e+01,-7.500000000000000000e-01,-1.300000000000000355e+01,-1.500000000000000000e+00,2.050000000000000355e+01,-5.500000000000000888e+00,-1.600000000000000355e+01,3.500000000000000000e+00,1.900000000000000711e+01,-1.550000000000000355e+01,1.250000000000000444e+00,7.500000000000000000e-01,-1.850000000000000355e+01,3.275000000000000711e+01,-3.375000000000000711e+01,3.025000000000000711e+01,-7.250000000000001776e+00,1.000000000000000444e+00,-1.200000000000000355e+01,-3.750000000000001776e+00,2.200000000000000711e+01,-3.250000000000000000e+00,-1.575000000000000355e+01,1.000000000000000000e+00,2.325000000000000711e+01,-2.075000000000000711e+01,-1.250000000000000000e+00,1.925000000000000355e+01,-2.750000000000000000e+00,-2.375000000000000711e+01,1.150000000000000355e+01,9.500000000000003553e+00,-1.600000000000000355e+01,2.025000000000000355e+01,-2.200000000000000355e+01,5.750000000000000888e+00,2.225000000000000355e+01,-2.650000000000000711e+01,1.200000000000000178e+01,1.100000000000000355e+01,-1.975000000000000711e+01,-2.250000000000000000e+00,2.350000000000000711e+01,-1.975000000000000355e+01,1.475000000000000355e+01,-2.200000000000000711e+01,7.750000000000002665e+00,1.600000000000000355e+01,-1.525000000000000355e+01,-5.750000000000000888e+00,2.350000000000000711e+01,-9.750000000000003553e+00,-2.275000000000000355e+01,3.275000000000000711e+01,-3.000000000000000711e+01,2.625000000000000711e+01,-2.750000000000000000e+00,-1.950000000000000711e+01,1.500000000000000355e+01,-1.750000000000000666e+00,1.025000000000000178e+01,-2.750000000000000711e+01,3.125000000000000711e+01,-2.475000000000000711e+01,2.325000000000000711e+01,-1.125000000000000355e+01,-1.075000000000000178e+01,2.400000000000000711e+01,-2.150000000000000355e+01,1.400000000000000355e+01,-1.200000000000000355e+01,2.200000000000000355e+01,-3.000000000000000711e+01,2.475000000000000711e+01,-2.950000000000000711e+01,2.250000000000000711e+01,6.000000000000001776e+00,-2.600000000000000711e+01,3.150000000000000711e+01,-2.175000000000000355e+01,-7.000000000000000888e+00,3.000000000000000711e+01,-3.500000000000000711e+01,2.800000000000000711e+01,-2.750000000000000000e+00,-2.275000000000000711e+01,1.225000000000000355e+01,1.825000000000000355e+01,-1.975000000000000355e+01,-8.750000000000000000e+00,2.600000000000000711e+01,-1.075000000000000355e+01,-1.925000000000000355e+01,3.325000000000000711e+01,-2.800000000000000711e+01,2.275000000000000711e+01,-1.300000000000000355e+01,0.000000000000000000e+00,4.250000000000000888e+00,2.500000000000000000e-01,-3.250000000000000888e+00,-1.400000000000000355e+01,2.700000000000000711e+01,-6.000000000000001776e+00,-1.875000000000000355e+01,2.275000000000000355e+01,-2.575000000000000711e+01,2.700000000000000711e+01,-1.525000000000000355e+01,-8.250000000000001776e+00,2.200000000000000355e+01,-5.500000000000000888e+00,-4.000000000000000000e+00,-4.500000000000000888e+00,6.250000000000001776e+00,-1.400000000000000355e+01,2.100000000000000355e+01,-2.200000000000000355e+01,2.250000000000000355e+01,-2.250000000000000355e+01,2.125000000000000355e+01,-4.250000000000000888e+00,-1.550000000000000355e+01,1.775000000000000355e+01,-4.500000000000000888e+00,-1.850000000000000355e+01,2.450000000000000711e+01,-1.525000000000000355e+01,1.250000000000000355e+01,0.000000000000000000e+00,-1.500000000000000355e+01,0.000000000000000000e+00,8.250000000000001776e+00,1.900000000000000355e+01,-3.200000000000000711e+01,2.375000000000000711e+01,-1.600000000000000355e+01,-4.750000000000000888e+00,2.200000000000000355e+01,-1.000000000000000178e+01,3.500000000000000444e+00,-7.000000000000001776e+00,-1.150000000000000355e+01,1.675000000000000355e+01,8.750000000000003553e+00,-2.500000000000000711e+01,1.475000000000000355e+01,-9.500000000000001776e+00,2.250000000000000711e+01,-3.000000000000000711e+01,3.275000000000000711e+01,-2.675000000000000711e+01,-5.000000000000000000e-01,2.050000000000000355e+01,-5.750000000000000888e+00,-1.500000000000000355e+01,3.500000000000000000e+00,1.875000000000000711e+01,-2.575000000000000711e+01,3.000000000000000711e+01,-3.500000000000000711e+01,2.975000000000000711e+01,-9.750000000000001776e+00,-1.400000000000000355e+01,2.350000000000000711e+01,-8.000000000000000000e+00,-1.850000000000000355e+01,2.425000000000000711e+01,-1.250000000000000000e+00,-1.600000000000000355e+01,-1.500000000000000000e+00,2.075000000000000355e+01,-4.750000000000000000e+00,-1.775000000000000355e+01,2.225000000000000355e+01,-1.500000000000000355e+01,-1.000000000000000000e+00,1.000000000000000000e+00,1.650000000000000355e+01,-1.800000000000000355e+01,3.250000000000000444e+00,1.000000000000000000e+00,1.250000000000000178e+01,-2.150000000000000355e+01,8.250000000000001776e+00,-3.750000000000001332e+00,2.150000000000000711e+01,-1.450000000000000355e+01,-4.500000000000000888e+00,6.000000000000001776e+00,-1.475000000000000355e+01,1.775000000000000355e+01,2.500000000000000000e-01,-1.725000000000000355e+01,2.025000000000000355e+01,-1.375000000000000355e+01,1.500000000000000355e+01,-2.600000000000000711e+01,2.300000000000000711e+01,-1.375000000000000355e+01,1.525000000000000355e+01,-1.600000000000000355e+01,1.100000000000000355e+01,1.075000000000000355e+01,-2.525000000000000711e+01,2.200000000000000355e+01,-1.975000000000000355e+01,2.500000000000000000e-01,2.275000000000000711e+01,-2.775000000000000711e+01,2.400000000000000711e+01,-4.250000000000000000e+00,-1.775000000000000355e+01,2.325000000000000355e+01,-1.475000000000000355e+01,-2.250000000000000000e+00,-2.750000000000000888e+00,1.700000000000000355e+01,-5.000000000000000000e-01,-7.500000000000001776e+00,-1.725000000000000355e+01,3.200000000000000711e+01,-1.725000000000000355e+01,-1.050000000000000355e+01,1.650000000000000355e+01,-1.050000000000000355e+01,2.200000000000000711e+01,-3.075000000000000711e+01,1.900000000000000355e+01,9.250000000000003553e+00,-1.925000000000000355e+01,1.200000000000000355e+01,-1.650000000000000355e+01,3.500000000000000000e+00,1.950000000000000711e+01,-1.350000000000000355e+01,4.750000000000000888e+00,-1.600000000000000355e+01,2.575000000000000711e+01,-2.200000000000000711e+01,-2.500000000000000000e-01,2.050000000000000711e+01,-7.000000000000002665e+00,-1.500000000000000355e+01,1.600000000000000355e+01,-2.250000000000000888e+00,-1.150000000000000355e+01,1.500000000000000355e+01,-1.125000000000000355e+01,9.500000000000001776e+00,-2.100000000000000355e+01,2.050000000000000355e+01,6.250000000000000888e+00,-2.275000000000000355e+01,8.500000000000000000e+00,5.750000000000001776e+00,9.250000000000003553e+00,-1.050000000000000355e+01,1.000000000000000000e+00,-3.750000000000000888e+00,-9.000000000000001776e+00,2.900000000000000711e+01,-2.600000000000000711e+01,-1.000000000000000000e+00,2.550000000000000711e+01,-1.925000000000000355e+01,-3.500000000000000444e+00,1.675000000000000355e+01,-2.800000000000000711e+01,3.250000000000000711e+01,-2.600000000000000711e+01,2.225000000000000711e+01,-2.450000000000000711e+01,1.575000000000000355e+01,8.000000000000000000e+00,-2.150000000000000355e+01,5.250000000000000888e+00,1.475000000000000355e+01,-2.050000000000000355e+01,2.075000000000000355e+01,-3.750000000000000000e+00,-1.850000000000000711e+01,8.250000000000003553e+00,2.150000000000000355e+01,-3.500000000000000711e+01,2.500000000000000711e+01,-8.000000000000001776e+00,-3.500000000000000888e+00,1.200000000000000355e+01,-1.950000000000000355e+01,2.225000000000000355e+01,-3.500000000000000000e+00,-1.325000000000000355e+01,-6.750000000000001776e+00,1.300000000000000355e+01,9.250000000000001776e+00,-9.500000000000001776e+00,-1.250000000000000355e+01,2.575000000000000711e+01,-1.550000000000000355e+01,-9.250000000000001776e+00,7.250000000000000888e+00,4.250000000000000888e+00,-5.000000000000000888e+00,2.075000000000000355e+01,-1.775000000000000355e+01,-1.450000000000000355e+01,3.375000000000000711e+01,-2.150000000000000355e+01,-8.500000000000003553e+00,2.825000000000000711e+01,-2.175000000000000711e+01,-6.250000000000001776e+00,2.775000000000000711e+01,-3.125000000000000711e+01,2.075000000000000355e+01,7.750000000000002665e+00,-3.100000000000000711e+01,3.125000000000000711e+01,-2.475000000000000711e+01,1.800000000000000711e+01,-2.000000000000000888e+00,-1.550000000000000355e+01,2.925000000000000711e+01,-2.625000000000000711e+01,-5.000000000000000000e-01,2.050000000000000355e+01,-6.500000000000000888e+00,-2.150000000000000355e+01,1.575000000000000355e+01,1.750000000000000355e+01,-3.300000000000000711e+01,2.475000000000000711e+01,-1.950000000000000355e+01,1.075000000000000178e+01,1.225000000000000355e+01,-6.250000000000002665e+00,-2.200000000000000355e+01,2.825000000000000711e+01,-2.725000000000000711e+01,1.775000000000000355e+01,1.200000000000000355e+01,-3.175000000000000711e+01,3.475000000000000711e+01,-2.300000000000000355e+01,9.000000000000001776e+00,-2.050000000000000355e+01,3.175000000000000711e+01,-1.525000000000000355e+01,-1.650000000000000355e+01,1.675000000000000355e+01,1.300000000000000355e+01,-1.600000000000000355e+01,0.000000000000000000e+00,8.500000000000001776e+00,-1.150000000000000355e+01,-4.750000000000000000e+00,9.250000000000001776e+00,1.350000000000000178e+01,-2.300000000000000355e+01,2.350000000000000711e+01,-2.475000000000000711e+01,1.100000000000000355e+01,-2.500000000000000000e-01,1.400000000000000355e+01,-1.500000000000000355e+01,-9.750000000000003553e+00,2.250000000000000711e+01,-2.275000000000000711e+01,1.400000000000000355e+01,1.425000000000000355e+01,-1.975000000000000355e+01,-8.750000000000003553e+00,1.475000000000000355e+01,-2.000000000000000444e+00,-5.000000000000002220e-01,1.075000000000000178e+01,-2.275000000000000711e+01,6.250000000000001776e+00,2.175000000000000711e+01,-2.850000000000000711e+01,1.300000000000000355e+01,1.325000000000000355e+01,-2.275000000000000711e+01,1.200000000000000178e+01,-8.500000000000001776e+00,-1.750000000000000000e+00,2.125000000000000711e+01,-1.025000000000000355e+01,-1.475000000000000355e+01,1.525000000000000355e+01,-1.450000000000000355e+01,2.850000000000000711e+01,-2.700000000000000711e+01,1.700000000000000355e+01,-1.050000000000000355e+01,-2.500000000000000000e-01,-5.000000000000000888e+00,-2.000000000000000000e+00,2.175000000000000355e+01,-2.325000000000000355e+01,1.625000000000000355e+01,-1.400000000000000355e+01,1.825000000000000355e+01,-1.475000000000000355e+01,1.725000000000000355e+01,-1.800000000000000355e+01,1.575000000000000355e+01,-8.250000000000001776e+00,-1.200000000000000178e+01,1.500000000000000355e+01,4.250000000000000888e+00,-2.175000000000000711e+01,2.800000000000000711e+01,-1.500000000000000355e+01,-3.250000000000000888e+00,1.125000000000000355e+01,-1.975000000000000711e+01,1.725000000000000355e+01,1.600000000000000355e+01,-1.800000000000000355e+01,-2.500000000000000000e-01,-1.100000000000000178e+01,1.300000000000000355e+01,7.500000000000000000e-01,-4.500000000000000888e+00,2.050000000000000355e+01,-2.250000000000000355e+01,-5.750000000000001776e+00,3.300000000000000711e+01,-2.900000000000000711e+01,1.025000000000000355e+01,7.500000000000001776e+00,-1.000000000000000355e+01,1.675000000000000355e+01,-1.575000000000000355e+01,1.750000000000000888e+00,-6.250000000000001776e+00,-1.000000000000000222e+00,-5.000000000000001110e-01,2.500000000000000555e-01,0.000000000000000000e+00,2.500000000000000555e-01,-5.000000000000001110e-01,2.500000000000000555e-01,0.000000000000000000e+00,0.000000000000000000e+00,0.000000000000000000e+00,0.000000000000000000e+00,-2.500000000000000555e-01,5.000000000000001110e-01,-5.000000000000001110e-01,5.000000000000001110e-01,-2.500000000000000555e-01,0.000000000000000000e+00,2.500000000000000555e-01,-2.500000000000000555e-01,-2.500000000000000555e-01,2.500000000000000555e-01,0.000000000000000000e+00,2.500000000000000555e-01,-5.000000000000001110e-01,2.500000000000000555e-01,2.500000000000000555e-01,-5.000000000000001110e-01,2.500000000000000555e-01,0.000000000000000000e+00,0.000000000000000000e+00,-3.925000000000000711e+01,3.875000000000000711e+01,2.225000000000000355e+01,-2.650000000000000355e+01,-1.275000000000000355e+01,1.275000000000000355e+01,-2.500000000000000888e+00,3.000000000000000711e+01,-9.100000000000001421e+01,2.150000000000000711e+01,2.375000000000000355e+01,-1.400000000000000355e+01,-4.500000000000000000e+00,3.850000000000000711e+01,1.499999999999986233e+00,1.250000000000014655e+00,2.500000000000000555e-01,-2.500000000000000555e-01,7.500000000000002220e-01,-1.000000000000000222e+00,5.000000000000001110e-01,-2.500000000000000555e-01,2.500000000000000555e-01,0.000000000000000000e+00,0.000000000000000000e+00,0.000000000000000000e+00,-2.500000000000000555e-01,7.500000000000002220e-01,-7.500000000000002220e-01,5.000000000000001110e-01,-2.500000000000000555e-01,-2.500000000000000555e-01,2.500000000000000555e-01,0.000000000000000000e+00,5.000000000000001110e-01,-1.000000000000000222e+00,5.000000000000001110e-01,2.500000000000000555e-01,-2.500000000000000555e-01,-2.500000000000000555e-01,2.500000000000000555e-01,2.500000000000000555e-01,-7.500000000000002220e-01,7.500000000000002220e-01,0.000000000000000000e+00,-2.500000000000000555e-01,2.500000000000000555e-01,-1.000000000000000222e+00,1.000000000000000222e+00,-2.500000000000000555e-01,0.000000000000000000e+00,2.500000000000000555e-01,-2.500000000000000555e-01,0.000000000000000000e+00,0.000000000000000000e+00,-2.500000000000000555e-01,5.000000000000001110e-01,-2.500000000000000555e-01,0.000000000000000000e+00,0.000000000000000000e+00,0.000000000000000000e+00,0.000000000000000000e+00,-2.500000000000000555e-01,2.500000000000000555e-01,2.500000000000000555e-01,-2.500000000000000555e-01,0.000000000000000000e+00,0.000000000000000000e+00,2.500000000000000555e-01,-2.500000000000000555e-01,0.000000000000000000e+00,-2.500000000000000555e-01,5.000000000000001110e-01,-2.500000000000000555e-01,0.000000000000000000e+00,1.250000000000014433e+00,1.849999999999998934e+01,-1.875000000000000355e+01,-2.000000000000000444e+00,1.125000000000000178e+01,5.000000000000000000e-01,6.250000000000001776e+00,-2.450000000000000711e+01,2.275000000000000711e+01,-1.250000000000000355e+01,1.025000000000000355e+01,-1.125000000000000355e+01,1.625000000000000355e+01,-2.325000000000000355e+01,1.625000000000000355e+01,1.500000000000001776e+00,-5.000000000000000000e-01,-1.350000000000000355e+01,-1.217500000000000284e+02
