2.477973750000001587e+02,2.393911250000001587e+02,2.289692500000001587e+02,2.164067500000001587e+02,2.023130000000001587e+02,1.866411250000001303e+02,1.713442500000001019e+02,1.569067500000000734e+02,1.429692500000000734e+02,1.283598750000000734e+02,1.133911250000000734e+02,9.757862500000005923e+01,8.165675000000004502e+01,6.654737500000003081e+01,5.137550000000001660e+01,3.571925000000000949e+01,1.985987500000000239e+01,4.312999999999991729e+00,-1.121825000000001893e+01,-2.610887500000002603e+01,-4.145262500000004025e+01,-5.739012500000005446e+01,-7.387450000000006867e+01,-9.032762500000008288e+01,-1.062026250000000971e+02,-1.204057500000000971e+02,-1.348745000000000971e+02,-1.493120000000000971e+02,-1.622807500000000971e+02,-1.744838750000001255e+02,-1.847807500000001255e+02,-1.921870000000001824e+02,-1.979057500000001824e+02,-2.030307500000001824e+02,-2.049838750000001824e+02,-2.046713750000001824e+02,-2.033276250000001824e+02,-2.001557500000001824e+02,-1.965307500000001824e+02,-1.937651250000001824e+02,-1.902182500000001255e+02,-1.866713750000000971e+02,-1.844526250000000971e+02,-1.820776250000000971e+02,-1.797495000000000971e+02,-1.774838750000000971e+02,-1.753276250000000971e+02,-1.724995000000000971e+02,-1.703432500000000971e+02,-1.680620000000000971e+02,-1.641870000000000971e+02,-1.607807500000000971e+02,-1.560463750000000971e+02,-1.517182500000000971e+02,-1.465463750000000971e+02,-1.412026250000000971e+02,-1.355307500000000971e+02,-1.283901250000000971e+02,-1.217807500000000971e+02,-1.149526250000000971e+02,-1.088745000000000971e+02,-1.022651250000000971e+02,-9.623387500000009709e+01,-9.007762500000006867e+01,-8.329637500000005446e+01,-7.843700000000005446e+01,-7.384325000000005446e+01,-6.856200000000005446e+01,-6.432762500000005446e+01,-5.965575000000005446e+01,-5.476512500000005446e+01,-5.053075000000005446e+01,-4.707762500000005446e+01,-4.218700000000004025e+01,-3.764012500000003314e+01,-3.359325000000003314e+01,-2.801512500000003314e+01,-2.371825000000002603e+01,-1.934325000000002603e+01,-1.460887500000002248e+01,-9.968250000000018929e+00,-6.374500000000015376e+00,-1.499500000000012268e+00,3.266124999999990397e+00,7.016124999999991729e+00,1.218799999999999528e+01,1.732862499999999883e+01,2.234425000000000239e+01,2.768800000000000949e+01,3.406300000000000949e+01,3.862550000000000949e+01,4.290675000000001660e+01,4.681300000000002370e+01,4.882862500000003081e+01,5.090675000000003081e+01,5.314112500000003081e+01,5.426612500000003081e+01,5.434425000000003081e+01,5.526612500000003081e+01,5.518800000000003081e+01,5.601612500000003081e+01,5.768800000000003081e+01,5.801612500000003081e+01,5.823487500000003081e+01,5.953175000000003081e+01,6.001612500000003081e+01,6.035987500000003081e+01,6.160987500000003081e+01,6.195362500000003081e+01,6.287550000000003081e+01,6.484425000000003081e+01,6.642237500000003081e+01,6.753175000000003081e+01,7.042237500000003081e+01,7.326612500000003081e+01,7.650050000000003081e+01,7.962550000000003081e+01,8.176612500000003081e+01,8.420362500000003081e+01,8.678175000000003081e+01,8.904737500000003081e+01,9.007862500000003081e+01,9.032862500000003081e+01,8.992237500000003081e+01,8.975050000000003081e+01,8.973487500000003081e+01,8.890675000000003081e+01,8.706300000000003081e+01,8.603175000000003081e+01,8.500050000000003081e+01,8.503175000000003081e+01,8.542237500000003081e+01,8.610987500000003081e+01,8.610987500000003081e+01,8.576612500000003081e+01,8.665675000000003081e+01,8.629737500000003081e+01,8.535987500000003081e+01,8.295362500000003081e+01,7.935987500000003081e+01,7.521925000000003081e+01,7.251612500000003081e+01,6.973487500000003081e+01,6.543800000000003081e+01,6.157862500000003081e+01,5.823487500000003081e+01,5.590675000000003081e+01,5.429737500000003081e+01,5.306300000000003081e+01,5.025050000000003081e+01,4.846925000000003081e+01,4.850050000000003081e+01,4.873487500000003081e+01,5.006300000000003081e+01,5.132862500000003081e+01,5.253175000000003081e+01,5.340675000000003081e+01,5.512550000000003081e+01,5.531300000000003081e+01,5.439112500000003081e+01,5.262550000000003081e+01,4.965675000000003081e+01,4.589112500000001660e+01,4.290675000000000949e+01,3.956300000000000949e+01,3.635987500000000949e+01,3.457862500000000949e+01,3.246925000000000949e+01,3.173487500000000949e+01,3.025050000000000949e+01,2.975050000000000949e+01,2.748487500000000949e+01,2.546925000000000949e+01,2.279737500000000239e+01,1.873487499999999883e+01,1.531299999999999883e+01,9.859874999999995282e+00,5.234874999999991729e+00,2.973749999999881766e-01,-3.233875000000014044e+00,-7.312000000000017153e+00,-1.143700000000001893e+01,-1.399950000000002248e+01,-1.689012500000002248e+01,-1.832762500000002248e+01,-1.903075000000002248e+01,-2.065575000000002248e+01,-2.293700000000002603e+01,-2.365575000000002603e+01,-2.401512500000002959e+01,-2.506200000000003314e+01,-2.614012500000003314e+01,-2.657762500000003314e+01,-2.835887500000003314e+01,-2.920262500000003314e+01,-2.915575000000003314e+01,-3.014012500000003314e+01,-3.157762500000003314e+01,-3.410887500000003314e+01,-3.601512500000003314e+01,-3.918700000000003314e+01,-4.212450000000003314e+01,-4.535887500000004025e+01,-4.962450000000005446e+01,-5.465575000000005446e+01,-5.904637500000005446e+01,-6.253075000000005446e+01,-6.724950000000005446e+01,-7.117137500000005446e+01,-7.442137500000005446e+01,-7.703075000000005446e+01,-7.990575000000005446e+01,-8.135887500000005446e+01,-8.331200000000005446e+01,-8.467137500000005446e+01,-8.512450000000005446e+01,-8.734325000000005446e+01,-8.995262500000006867e+01,-9.310887500000006867e+01,-9.582762500000009709e+01,-1.004057500000000971e+02,-1.047963750000000971e+02,-1.110307500000000971e+02,-1.180307500000000971e+02,-1.230776250000000971e+02,-1.284838750000000971e+02,-1.348276250000000971e+02,-1.406088750000000971e+02,-1.442338750000000971e+02,-1.476088750000000971e+02,-1.496245000000000971e+02,-1.504370000000000971e+02,-1.523276250000000971e+02,-1.541245000000000971e+02,-1.543588750000000971e+02,-1.549057500000000971e+02,-1.571401250000000971e+02,-1.602495000000000971e+02,-1.626088750000000971e+02,-1.661713750000000971e+02,-1.695776250000000971e+02,-1.715620000000000971e+02,-1.744526250000000971e+02,-1.779526250000000971e+02,-1.795932500000000971e+02,-1.793432500000000971e+02,-1.789370000000000971e+02,-1.763276250000000971e+02,-1.722182500000000971e+02,-1.688588750000000971e+02,-1.635932500000000971e+02,-1.566713750000000971e+02,-1.497026250000000971e+02,-1.432026250000000971e+02,-1.371557500000000971e+02,-1.321401250000000971e+02,-1.269838750000000971e+02,-1.217338750000000971e+02,-1.173588750000000971e+02,-1.137651250000000971e+02,-1.104682500000000971e+02,-1.070932500000000971e+02,-1.042495000000000971e+02,-1.014370000000000971e+02,-9.932762500000009709e+01,-9.684325000000008288e+01,-9.448387500000006867e+01,-9.124950000000006867e+01,-8.929637500000005446e+01,-8.771825000000005446e+01,-8.568700000000005446e+01,-8.379637500000005446e+01,-8.209325000000005446e+01,-8.015575000000005446e+01,-7.849950000000005446e+01,-7.839012500000005446e+01,-7.656200000000005446e+01,-7.546825000000005446e+01,-7.406200000000005446e+01,-7.281200000000005446e+01,-7.084325000000005446e+01,-6.874950000000005446e+01,-6.596825000000005446e+01,-6.035887500000005446e+01,-5.551512500000005446e+01,-4.871825000000004735e+01,-4.057762500000004025e+01,-3.101512500000003314e+01,-2.181200000000002603e+01,-1.329637500000002248e+01,-5.968250000000016264e+00,-1.140125000000012490e+00,3.203624999999990397e+00,6.109874999999991729e+00,5.391124999999991729e+00,2.422374999999989953e+00,-3.421375000000014044e+00,-1.060887500000001893e+01,-1.792137500000002248e+01,-2.674950000000002603e+01,-3.560887500000003314e+01,-4.664012500000004025e+01,-5.656200000000005446e+01,-6.674950000000005446e+01,-7.559325000000005446e+01,-8.474950000000006867e+01,-9.429637500000009709e+01,-1.025463750000000971e+02,-1.107182500000000971e+02,-1.165307500000000971e+02,-1.209682500000000971e+02,-1.237651250000000971e+02,-1.248745000000000971e+02,-1.228588750000000971e+02,-1.194370000000000971e+02,-1.146088750000000971e+02,-1.086088750000000971e+02,-1.014057500000000971e+02,-9.371825000000009709e+01,-8.576512500000006867e+01,-7.746825000000005446e+01,-6.967137500000005446e+01,-6.017137500000005446e+01,-5.009325000000004025e+01,-4.107762500000004025e+01,-3.235887500000003314e+01,-2.504637500000002603e+01,-1.735887500000002248e+01,-8.874500000000017153e+00,-1.718250000000012268e+00,3.109874999999990397e+00,6.609874999999991729e+00,1.184424999999999706e+01,1.643799999999999883e+01,2.178175000000000239e+01,2.620362500000000949e+01,2.909425000000000949e+01,3.217237500000000949e+01,3.557862500000000949e+01,3.940675000000000949e+01,4.115675000000000949e+01,4.292237500000000949e+01,4.401612500000000949e+01,4.393800000000000949e+01,4.348487500000000949e+01,4.353175000000000949e+01,4.382862500000000949e+01,4.315675000000000949e+01,4.220362500000000949e+01,3.967237500000000949e+01,3.712550000000000949e+01,3.531300000000000949e+01,3.200050000000000949e+01,2.762550000000000949e+01,2.164112500000000239e+01,1.518799999999999883e+01,1.020362499999999528e+01,6.297374999999992617e+00,3.328624999999990397e+00,4.692499999999882876e-01,7.973749999999887317e-01,1.922374999999989509e+00,6.000499999999992617e+00,1.184424999999999528e+01,1.771924999999999883e+01,2.532862500000000239e+01,3.203175000000000949e+01,4.012550000000001660e+01,4.728175000000002370e+01,5.445362500000003081e+01,5.950050000000003081e+01,6.457862500000003081e+01,6.882862500000003081e+01,7.081300000000003081e+01,7.384425000000003081e+01,7.640675000000003081e+01,7.773487500000003081e+01,8.010987500000003081e+01,8.385987500000003081e+01,8.567237500000003081e+01,8.756300000000003081e+01,9.035987500000003081e+01,9.126612500000003081e+01,9.035987500000003081e+01,9.043800000000003081e+01,8.887550000000003081e+01,8.560987500000003081e+01,8.296925000000003081e+01,7.940675000000003081e+01,7.484425000000003081e+01,7.198487500000003081e+01,6.954737500000003081e+01,6.648487500000003081e+01,6.262550000000003081e+01,5.964112500000003081e+01,5.800050000000003081e+01,5.707862500000003081e+01,5.806300000000003081e+01,5.810987500000003081e+01,6.009425000000003081e+01,6.195362500000003081e+01,6.642237500000003081e+01,7.103175000000003081e+01,7.409425000000003081e+01,7.862550000000003081e+01,8.267237500000003081e+01,8.715675000000003081e+01,9.098487500000004502e+01,9.590675000000005923e+01,9.864112500000007344e+01,1.007348750000000734e+02,1.042661250000000734e+02,1.073442500000000734e+02,1.096880000000000734e+02,1.116880000000000734e+02,1.129223750000000734e+02,1.128755000000000734e+02,1.144848750000000734e+02,1.176567500000000734e+02,1.196098750000000734e+02,1.205473750000000734e+02,1.212036250000000734e+02,1.225630000000000734e+02,1.237505000000000734e+02,1.271880000000000734e+02,1.299848750000000734e+02,1.323286250000000734e+02,1.364536250000000734e+02,1.405942500000000734e+02,1.461098750000000734e+02,1.518130000000000734e+02,1.589380000000000734e+02,1.638755000000000734e+02,1.693286250000000734e+02,1.736411250000000734e+02,1.770317500000000734e+02,1.821411250000000734e+02,1.878286250000001019e+02,1.937036250000001587e+02,1.991723750000001587e+02,2.057973750000001587e+02,2.116723750000001587e+02,2.191723750000001587e+02,2.273911250000001587e+02,2.340317500000001587e+02,2.380942500000001587e+02,2.401255000000001587e+02,2.398286250000001587e+02,2.378286250000001587e+02,2.345786250000001587e+02,2.294067500000001587e+02,2.212661250000001587e+02,2.119380000000001587e+02,2.031098750000001587e+02,1.959223750000001587e+02,1.896723750000001019e+02,1.849536250000000734e+02,1.825630000000000734e+02,1.798755000000000734e+02,1.794067500000000734e+02,1.815317500000000734e+02,1.837348750000000734e+02,1.848598750000000734e+02,1.877973750000001019e+02,1.901723750000001019e+02,1.906723750000001019e+02,1.916567500000001019e+02,1.896723750000001019e+02,1.844380000000001019e+02,1.776567500000000734e+02,1.707661250000000734e+02,1.613130000000000734e+02,1.503130000000000734e+02,1.401255000000000734e+02,1.306411250000000734e+02,1.244067500000000734e+02,1.212192500000000734e+02,1.211880000000000734e+02,1.218442500000000734e+02,1.248130000000000734e+02,1.307661250000000734e+02,1.360317500000000734e+02,1.408598750000000734e+02,1.465317500000000734e+02,1.510005000000000734e+02,1.546880000000000734e+02,1.581723750000000734e+02,1.600161250000000734e+02,1.601567500000000734e+02,1.607817500000000734e+02,1.619692500000000734e+02,1.608755000000000734e+02,1.583130000000000734e+02,1.547192500000000734e+02,1.524536250000000734e+02,1.509067500000000734e+02,1.489692500000000734e+02,1.479380000000000734e+02,1.469380000000000734e+02,1.460317500000000734e+02,1.474223750000000734e+02,1.491723750000000734e+02,1.495786250000000734e+02,1.495473750000000734e+02,1.511411250000000734e+02,1.509380000000000734e+02,1.502661250000000734e+02,1.513130000000000734e+02,1.512973750000000734e+02,1.513442500000000734e+02,1.518755000000000734e+02,1.531723750000000734e+02,1.529067500000000734e+02,1.543755000000000734e+02,1.551567500000000734e+02,1.544848750000000734e+02,1.546880000000000734e+02,1.554692500000000734e+02,1.544848750000000734e+02,1.530630000000000734e+02,1.525942500000000734e+02,1.505786250000000734e+02,1.484848750000000734e+02,1.451723750000000734e+02,1.394380000000000734e+02,1.320786250000000734e+02,1.266255000000000734e+02,1.198286250000000734e+02,1.113755000000000734e+02,1.030786250000000734e+02,9.676612500000005923e+01,9.292237500000004502e+01,9.162550000000004502e+01,9.121925000000004502e+01,8.967237500000003081e+01,9.087550000000004502e+01,9.339112500000004502e+01,9.762550000000005923e+01,1.005161250000000734e+02,1.015005000000000734e+02,1.020630000000000734e+02,1.043755000000000734e+02,1.078911250000000734e+02,1.090942500000000734e+02,1.112192500000000734e+02,1.114536250000000734e+02,1.123286250000000734e+02,1.143130000000000734e+02,1.164536250000000734e+02,1.165942500000000734e+02,1.154380000000000734e+02,1.158755000000000734e+02,1.147817500000000734e+02,1.151255000000000734e+02,1.150473750000000734e+02,1.151880000000000734e+02,1.141880000000000734e+02,1.140942500000000734e+02,1.150942500000000734e+02,1.155942500000000734e+02,1.165005000000000734e+02,1.167192500000000734e+02,1.157505000000000734e+02,1.141567500000000734e+02,1.128130000000000734e+02,1.108130000000000734e+02,1.087192500000000734e+02,1.063598750000000734e+02,1.040786250000000734e+02,1.012505000000000734e+02,1.005630000000000734e+02,1.001880000000000734e+02,1.003755000000000734e+02,1.012036250000000734e+02,1.017817500000000734e+02,1.028911250000000734e+02,1.059536250000000734e+02,1.107036250000000734e+02,1.148755000000000734e+02,1.191723750000000734e+02,1.235786250000000734e+02,1.275786250000000734e+02,1.315473750000000734e+02,1.353755000000000734e+02,1.368755000000000734e+02,1.369692500000000734e+02,1.356567500000000734e+02,1.340786250000000734e+02,1.328911250000000734e+02,1.310005000000000734e+02,1.292036250000000734e+02,1.255786250000000734e+02,1.213286250000000734e+02,1.174067500000000734e+02,1.147973750000000734e+02,1.117973750000000734e+02,1.063442500000000734e+02,1.014380000000000734e+02,9.632862500000005923e+01,9.231300000000004502e+01,8.882862500000004502e+01,8.451612500000003081e+01,7.943800000000003081e+01,7.406300000000003081e+01,7.120362500000003081e+01,6.720362500000003081e+01,6.262550000000003081e+01,5.921925000000003081e+01,5.606300000000003081e+01,5.271925000000003081e+01,4.893800000000002370e+01,4.560987500000001660e+01,4.098487500000001660e+01,3.792237500000000949e+01,3.490675000000000949e+01,3.128175000000000949e+01,2.818800000000000949e+01,2.718800000000000949e+01,2.770362500000000949e+01,2.881300000000000949e+01,3.096925000000000949e+01,3.406300000000000949e+01,3.828175000000000949e+01,4.240675000000001660e+01,4.750050000000002370e+01,5.084425000000003081e+01,5.410987500000003081e+01,5.739112500000003081e+01,5.967237500000003081e+01,6.018800000000003081e+01,6.114112500000003081e+01,6.185987500000003081e+01,6.143800000000003081e+01,6.176612500000003081e+01,6.137550000000003081e+01,6.145362500000003081e+01,6.220362500000003081e+01,6.395362500000003081e+01,6.392237500000003081e+01,6.421925000000003081e+01,6.414112500000003081e+01,6.376612500000003081e+01,6.298487500000003081e+01,6.067237500000003081e+01,5.796925000000003081e+01,5.428175000000003081e+01,5.231300000000003081e+01,4.967237500000002370e+01,4.756300000000001660e+01,4.593800000000001660e+01,4.496925000000000949e+01,4.584425000000001660e+01,4.725050000000001660e+01,4.989112500000003081e+01,5.201612500000003081e+01,5.521925000000003081e+01,5.889112500000003081e+01,6.271925000000003081e+01,6.773487500000003081e+01,7.196925000000003081e+01,7.776612500000003081e+01,8.331300000000003081e+01,8.898487500000004502e+01,9.600050000000007344e+01,1.033755000000000734e+02,1.120161250000000734e+02,1.201255000000000734e+02,1.289536250000000734e+02,1.355005000000000734e+02,1.424380000000000734e+02,1.498286250000000734e+02,1.552973750000000734e+02,1.595473750000000734e+02,1.623442500000000734e+02,1.640942500000000734e+02,1.641098750000000734e+02,1.656098750000000734e+02,1.662661250000000734e+02,1.660942500000000734e+02,1.657192500000000734e+02,1.658130000000000734e+02,1.651880000000000734e+02,1.655942500000000734e+02,1.680005000000000734e+02,1.689692500000000734e+02,1.702036250000000734e+02,1.715317500000000734e+02,1.733442500000000734e+02,1.750473750000000734e+02,1.782505000000000734e+02,1.806098750000000734e+02,1.809223750000000734e+02,1.823130000000000734e+02,1.836255000000000734e+02,1.844848750000000734e+02,1.851411250000000734e+02,1.860161250000000734e+02,1.857505000000000734e+02,1.858911250000000734e+02,1.875630000000000734e+02,1.880786250000000734e+02,1.888598750000001019e+02,1.894848750000001019e+02,1.908442500000001019e+02,1.913755000000001019e+02,1.910317500000001019e+02,1.901723750000001019e+02,1.878130000000001019e+02,1.852192500000001019e+02,1.819380000000000734e+02,1.797036250000000734e+02,1.755630000000000734e+02,1.718130000000000734e+02,1.695942500000000734e+02,1.667348750000000734e+02,1.643755000000000734e+02,1.633755000000000734e+02,1.623130000000000734e+02,1.601567500000000734e+02,1.589223750000000734e+02,1.574223750000000734e+02,1.548598750000000734e+02,1.529223750000000734e+02,1.511880000000000734e+02,1.484380000000000734e+02,1.453911250000000734e+02,1.421567500000000734e+02,1.397192500000000734e+02,1.372348750000000734e+02,1.349536250000000734e+02,1.324848750000000734e+02,1.287973750000000734e+02,1.242505000000000734e+02,1.204380000000000734e+02,1.167036250000000734e+02,1.110473750000000734e+02,1.050005000000000734e+02,9.825050000000007344e+01,9.218800000000004502e+01,8.753175000000004502e+01,8.365675000000003081e+01,7.823487500000003081e+01,7.290675000000003081e+01,6.918800000000003081e+01,6.614112500000003081e+01,6.381300000000003081e+01,6.076612500000003081e+01,5.696925000000003081e+01,5.342237500000003081e+01,5.085987500000003081e+01,4.806300000000003081e+01,4.423487500000001660e+01,4.000050000000000949e+01,3.532862500000000949e+01,3.057862500000000949e+01,2.560987500000000594e+01,2.007862500000000239e+01,1.465674999999999706e+01,1.046924999999999528e+01,6.609874999999991729e+00,3.031749999999990397e+00,1.098749999999881766e-01,-2.483875000000013600e+00,-4.405750000000015376e+00,-6.015125000000016264e+00,-6.780750000000017153e+00,-8.171375000000017153e+00,-9.624500000000018929e+00,-1.134325000000001893e+01,-1.256200000000002248e+01,-1.410887500000002248e+01,-1.562450000000002248e+01,-1.601512500000002248e+01,-1.726512500000002248e+01,-1.839012500000002248e+01,-1.870262500000002248e+01,-1.817137500000002248e+01,-1.876512500000002248e+01,-1.812450000000002248e+01,-1.710887500000002248e+01,-1.715575000000002248e+01,-1.671825000000002248e+01,-1.640575000000002248e+01,-1.581200000000002248e+01,-1.592137500000002248e+01,-1.457762500000002248e+01,-1.456200000000002248e+01,-1.531200000000002248e+01,-1.524950000000002248e+01,-1.560887500000002248e+01,-1.570262500000002248e+01,-1.728075000000002248e+01,-1.862450000000002248e+01,-2.151512500000002603e+01,-2.320262500000002959e+01,-2.398387500000002959e+01,-2.610887500000003314e+01,-2.823387500000003314e+01,-3.092137500000003314e+01,-3.268700000000003314e+01,-3.446825000000003314e+01,-3.531200000000003314e+01,-3.753075000000003314e+01,-4.001512500000003314e+01,-4.168700000000003314e+01,-4.295262500000003314e+01,-4.412450000000003314e+01,-4.539012500000003314e+01,-4.604637500000003314e+01,-4.656200000000003314e+01,-4.637450000000003314e+01,-4.623387500000003314e+01,-4.509325000000003314e+01,-4.387450000000003314e+01,-4.224950000000003314e+01,-3.996825000000003314e+01,-3.856200000000003314e+01,-3.776512500000003314e+01,-3.643700000000003314e+01,-3.498387500000003314e+01,-3.517137500000003314e+01,-3.484325000000003314e+01,-3.442137500000003314e+01,-3.499950000000003314e+01,-3.487450000000003314e+01,-3.462450000000003314e+01,-3.484325000000003314e+01,-3.554637500000003314e+01,-3.562450000000003314e+01,-3.671825000000003314e+01,-3.853075000000003314e+01,-4.023387500000003314e+01,-4.243700000000003314e+01,-4.429637500000004025e+01,-4.603075000000004025e+01,-4.864012500000005446e+01,-5.078075000000005446e+01,-5.342137500000005446e+01,-5.593700000000005446e+01,-5.773387500000005446e+01,-5.954637500000005446e+01,-6.196825000000005446e+01,-6.454637500000005446e+01,-6.574950000000005446e+01,-6.817137500000005446e+01,-6.976512500000005446e+01,-7.098387500000005446e+01,-7.268700000000005446e+01,-7.442137500000005446e+01,-7.570262500000005446e+01,-7.693700000000005446e+01,-7.793700000000005446e+01,-7.804637500000005446e+01,-7.789012500000005446e+01,-7.745262500000005446e+01,-7.646825000000005446e+01,-7.545262500000005446e+01,-7.324950000000005446e+01,-7.079637500000005446e+01,-6.873387500000005446e+01,-6.542137500000005446e+01,-6.224950000000005446e+01,-5.892137500000005446e+01,-5.582762500000005446e+01,-5.128075000000005446e+01,-4.812450000000005446e+01,-4.531200000000004025e+01,-4.195262500000003314e+01,-4.042137500000003314e+01,-3.809325000000003314e+01,-3.506200000000003314e+01,-3.287450000000003314e+01,-3.218700000000003314e+01,-3.176512500000003314e+01,-3.112450000000003314e+01,-3.176512500000003314e+01,-3.281200000000003314e+01,-3.634325000000003314e+01,-4.262450000000004025e+01,-4.914012500000004735e+01,-5.762450000000005446e+01,-6.642137500000005446e+01,-7.696825000000005446e+01,-8.843700000000006867e+01,-1.002182500000000971e+02,-1.119995000000000971e+02,-1.245151250000000971e+02,-1.389213750000000971e+02,-1.527495000000000971e+02,-1.682026250000001255e+02,-1.848120000000001539e+02,-2.041713750000001824e+02,-2.254526250000001824e+02,-2.493120000000001824e+02,-2.738745000000001824e+02,-2.984057500000001824e+02,-3.243432500000001824e+02,-3.507651250000002392e+02,-3.764213750000003529e+02,-3.983745000000003529e+02,-4.181401250000003529e+02,-4.337338750000003529e+02,-4.462182500000003529e+02,-4.559682500000003529e+02,-4.626401250000003529e+02,-4.663745000000003529e+02,-4.680463750000003529e+02,-4.690776250000003529e+02,-4.690932500000003529e+02,-4.691557500000003529e+02,-4.692026250000003529e+02,-4.692495000000003529e+02,-4.692963750000003529e+02,-4.693432500000003529e+02,-4.693588750000003529e+02,-4.693745000000003529e+02,-4.694057500000003529e+02,-4.693901250000003529e+02,-4.693745000000003529e+02,-4.693588750000003529e+02,-4.693588750000003529e+02,-4.693745000000003529e+02,-4.694057500000003529e+02,-4.694526250000003529e+02,-4.694526250000003529e+02,-4.694682500000003529e+02,-4.694838750000003529e+02,-4.694995000000003529e+02,-4.694995000000003529e+02,-4.694682500000003529e+02,-4.694370000000003529e+02,-4.693745000000003529e+02,-4.693745000000003529e+02,-4.693745000000003529e+02,-4.693745000000003529e+02,-4.693745000000003529e+02,-4.693745000000003529e+02,-4.693901250000003529e+02,-4.694057500000003529e+02,-4.694370000000003529e+02,-4.694370000000003529e+02,-4.694370000000003529e+02,-4.694526250000003529e+02,-4.694526250000003529e+02,-4.694370000000003529e+02,-4.694213750000003529e+02,-4.694057500000003529e+02,-4.693901250000003529e+02,-4.693745000000003529e+02,-4.693588750000003529e+02,-4.686713750000003529e+02,-4.663745000000003529e+02,-4.622963750000003529e+02,-4.563276250000003529e+02,-4.479370000000003529e+02,-4.363588750000003529e+02,-4.212807500000003529e+02,-4.020776250000003529e+02,-3.801245000000003529e+02,-3.576088750000002392e+02,-3.342338750000001824e+02,-3.099682500000001824e+02,-2.850307500000001824e+02,-2.612026250000001824e+02,-2.390620000000001824e+02,-2.192651250000001824e+02,-2.008901250000001824e+02,-1.822338750000001255e+02,-1.640620000000001255e+02,-1.461401250000000971e+02,-1.298432500000000971e+02,-1.127651250000000971e+02,-9.485887500000008288e+01,-7.574950000000006867e+01,-5.595262500000004735e+01,-3.621825000000003314e+01,-1.601512500000002248e+01,3.766124999999989065e+00,2.504737500000000239e+01,4.500050000000001660e+01,6.467237500000003081e+01,8.253175000000004502e+01,9.881300000000005923e+01,1.144380000000000734e+02,1.282973750000000734e+02,1.414848750000000734e+02,1.525317500000000734e+02,1.626567500000000734e+02,1.707661250000000734e+02,1.789848750000000734e+02,1.880786250000001019e+02,1.972817500000001587e+02,2.074067500000001587e+02,2.170942500000001587e+02,2.264067500000001587e+02,2.357505000000001587e+02,2.445942500000001587e+02,2.515630000000001587e+02,2.546567500000001587e+02,2.533442500000001587e+02
2.382812500000001421e+01,1.467187500000000711e+01,4.156250000000002665e+00,-3.156250000000000888e+00,-7.062500000000003553e+00,-8.828125000000005329e+00,-6.218750000000003553e+00,-1.343750000000001332e+00,4.156250000000002665e+00,8.515625000000005329e+00,8.609375000000005329e+00,5.671875000000003553e+00,7.187500000000006661e-01,-4.671875000000002665e+00,-6.937500000000003553e+00,-7.468750000000005329e+00,-5.109375000000003553e+00,1.250000000000000222e+00,5.843750000000003553e+00,9.234375000000003553e+00,9.015625000000003553e+00,1.640625000000000888e+00,-4.687500000000003553e+00,-8.609375000000005329e+00,-9.484375000000005329e+00,-3.218750000000001776e+00,1.875000000000001776e+00,2.750000000000001776e+00,1.281250000000000666e+00,-4.140625000000003553e+00,-1.015625000000000711e+01,-1.300000000000001066e+01,-1.353125000000001066e+01,-1.403125000000001066e+01,-1.126562500000000711e+01,-7.140625000000005329e+00,-4.421875000000003553e+00,7.812500000000002220e-01,4.031250000000002665e+00,3.890625000000002665e+00,3.843750000000002665e+00,1.859375000000001332e+00,-4.218750000000002776e-01,-1.421875000000000888e+00,-6.250000000000004441e-01,-2.031250000000001665e-01,-2.343750000000001665e-01,1.062500000000000666e+00,-1.531250000000000888e+00,-1.687500000000000888e+00,-1.125000000000000888e+00,-2.843750000000002220e+00,-1.203125000000000888e+00,-3.343750000000002665e+00,-4.015625000000003553e+00,-3.234375000000001776e+00,-2.281250000000001332e+00,1.390625000000001110e+00,2.031250000000001776e+00,2.640625000000001776e+00,-3.749999999999997780e-01,-2.234375000000001332e+00,-8.281250000000002220e-01,-6.718749999999998890e-01,4.109375000000002665e+00,5.375000000000003553e+00,2.781250000000001776e+00,2.062500000000000888e+00,-1.234375000000000888e+00,-3.468750000000002665e+00,-1.421875000000000888e+00,3.124999999999988898e-02,7.812500000000013878e-02,2.875000000000001776e+00,2.015625000000000888e+00,-1.031250000000000444e+00,-7.343750000000006661e-01,-3.281250000000002665e+00,-3.781250000000003109e+00,-1.562500000000044409e-02,2.406250000000001332e+00,4.812500000000003553e+00,6.000000000000004441e+00,2.171875000000001332e+00,-3.015625000000001776e+00,-7.562500000000005329e+00,-9.203125000000007105e+00,-5.531250000000003553e+00,-6.250000000000044409e-02,7.000000000000004441e+00,9.937500000000007105e+00,7.406250000000005329e+00,4.687500000000003553e+00,6.718750000000006661e-01,-1.656250000000000888e+00,1.046875000000000888e+00,2.359375000000001776e+00,9.062500000000006661e-01,1.296875000000000888e+00,-1.312500000000000666e+00,-3.703125000000002220e+00,-3.125000000000000000e-01,6.718750000000005551e-01,5.781250000000003331e-01,3.281250000000001776e+00,7.343750000000000000e-01,-2.234375000000001776e+00,-1.718750000000002220e-01,-1.765625000000000888e+00,-1.687500000000000888e+00,1.656250000000001110e+00,-1.671875000000001110e+00,-2.906250000000002220e+00,-2.046875000000001776e+00,-5.015625000000003553e+00,-1.750000000000001776e+00,1.062500000000000444e+00,1.984375000000000888e+00,5.859375000000003553e+00,4.968750000000003553e+00,3.453125000000002220e+00,1.109375000000000888e+00,-1.890625000000000888e+00,-1.046875000000000666e+00,7.500000000000008882e-01,4.453125000000003553e+00,5.468750000000003553e+00,3.125000000000002665e+00,-5.312500000000002220e-01,-5.625000000000003553e+00,-6.593750000000004441e+00,-6.421875000000004441e+00,-3.484375000000002665e+00,9.531250000000007772e-01,3.109375000000001776e+00,6.843750000000003553e+00,7.390625000000003553e+00,5.578125000000003553e+00,3.921875000000002665e+00,1.265625000000000666e+00,-3.125000000000001388e-02,-1.562500000000001388e-02,-5.468750000000004441e-01,-2.750000000000001776e+00,-4.765625000000003553e+00,-4.109375000000002665e+00,-2.218750000000001332e+00,1.453125000000000888e+00,4.437500000000002665e+00,1.937500000000001332e+00,-1.406250000000000666e+00,-5.500000000000003553e+00,-8.296875000000005329e+00,-7.562500000000005329e+00,-5.265625000000003553e+00,-2.812500000000004441e-01,3.156250000000002220e+00,7.937500000000007105e+00,1.081250000000000888e+01,8.234375000000007105e+00,7.437500000000005329e+00,2.218750000000001776e+00,-2.953125000000002220e+00,-2.843750000000001776e+00,-5.750000000000003553e+00,-4.546875000000002665e+00,-3.015625000000001776e+00,-3.593750000000001776e+00,-1.171875000000000666e+00,-3.125000000000001110e-01,2.500000000000001332e+00,4.578125000000002665e+00,6.531250000000003553e+00,6.515625000000003553e+00,4.203125000000001776e+00,1.625000000000000444e+00,-2.546875000000002220e+00,-2.609375000000001776e+00,-3.484375000000001776e+00,-1.453125000000000444e+00,1.250000000000004441e-01,-2.187500000000001332e+00,-1.375000000000001110e+00,-3.609375000000002665e+00,-3.859375000000002665e+00,-2.093750000000000888e+00,-1.406250000000000666e+00,1.062500000000000666e+00,1.906250000000001332e+00,3.765625000000002220e+00,1.937500000000001332e+00,-1.359375000000000444e+00,-2.359375000000001332e+00,-6.078125000000003553e+00,-2.734375000000001776e+00,1.468750000000000888e+00,3.453125000000002220e+00,7.265625000000005329e+00,4.296875000000002665e+00,2.265625000000001776e+00,9.375000000000007772e-01,-1.125000000000000666e+00,4.843750000000002220e-01,7.500000000000003331e-01,1.093750000000000666e+00,1.359375000000000888e+00,6.562500000000004441e-01,2.500000000000003331e-01,-2.078125000000001332e+00,-3.140625000000001776e+00,-4.468750000000003553e+00,-6.218750000000004441e+00,-3.265625000000002220e+00,-1.562500000000000888e+00,1.421875000000001110e+00,4.750000000000003553e+00,4.406250000000002665e+00,4.015625000000001776e+00,2.421875000000001332e+00,2.203125000000001332e+00,1.531250000000001110e+00,1.734375000000001332e+00,3.218750000000001776e+00,2.343750000000001332e+00,2.140625000000001332e+00,1.359375000000000444e+00,-2.984375000000001776e+00,-6.515625000000005329e+00,-7.328125000000005329e+00,-9.015625000000005329e+00,-6.250000000000004441e+00,-2.062500000000001332e+00,-5.468750000000003331e-01,4.062500000000002665e+00,5.421875000000003553e+00,5.281250000000003553e+00,5.140625000000003553e+00,5.000000000000004441e-01,-1.078125000000000666e+00,-1.703125000000001332e+00,-2.109375000000001776e+00,1.250000000000000555e-01,3.281250000000002220e-01,-1.359375000000000666e+00,-3.343750000000001776e+00,-4.281250000000002665e+00,-6.937500000000003553e+00,-8.984375000000005329e+00,-8.593750000000005329e+00,-9.828125000000007105e+00,-6.281250000000003553e+00,1.296875000000000888e+00,5.390625000000003553e+00,8.765625000000005329e+00,8.406250000000003553e+00,1.515625000000000666e+00,-2.390625000000001332e+00,-3.515625000000001776e+00,-3.890625000000002220e+00,1.828125000000000888e+00,5.593750000000003553e+00,5.093750000000002665e+00,6.062500000000003553e+00,8.750000000000008882e-01,-3.421875000000001776e+00,-2.281250000000001332e+00,-4.890625000000003553e+00,-1.437500000000001332e+00,2.359375000000001332e+00,5.937500000000004441e-01,4.687500000000002665e+00,4.734375000000002665e+00,1.531250000000001332e+00,2.656250000000002220e+00,-2.875000000000002220e+00,-5.984375000000004441e+00,-3.750000000000002665e+00,-3.031250000000002665e+00,3.812500000000001776e+00,7.062500000000003553e+00,5.781250000000003553e+00,1.375000000000001332e+00,-8.406250000000005329e+00,-1.501562500000001066e+01,-1.742187500000001066e+01,-1.303125000000000711e+01,-4.296875000000002665e+00,6.078125000000003553e+00,1.068750000000000711e+01,9.296875000000005329e+00,7.781250000000005329e+00,2.328125000000001776e+00,4.734375000000002665e+00,1.045312500000000711e+01,1.198437500000000711e+01,1.557812500000001066e+01,1.148437500000000711e+01,5.921875000000003553e+00,2.921875000000002220e+00,-7.500000000000013323e-01,-2.140625000000002220e+00,-2.984375000000001776e+00,-2.500000000000001776e+00,-3.250000000000001776e+00,5.937500000000008882e-01,2.125000000000001776e+00,1.171875000000001554e+00,3.046875000000002220e+00,-3.906250000000002220e+00,-7.593750000000005329e+00,-1.090625000000000711e+01,-1.742187500000001066e+01,-1.375000000000000711e+01,-1.239062500000000711e+01,-7.562500000000005329e+00,1.421875000000001554e+00,9.843750000000013323e-01,4.593750000000003553e+00,1.843750000000000888e+00,-5.109375000000003553e+00,-3.093750000000002665e+00,-7.078125000000005329e+00,-3.953125000000003109e+00,1.968750000000000888e+00,-4.687500000000001388e-02,3.984375000000003109e+00,4.484375000000003553e+00,4.109375000000003553e+00,7.375000000000005329e+00,5.781250000000003553e+00,1.953125000000000888e+00,-1.421875000000001554e+00,-3.218750000000002220e+00,-3.062500000000002220e+00,1.093750000000000222e+00,3.109375000000001776e+00,2.531250000000001776e+00,2.765625000000001776e+00,7.343750000000006661e-01,1.593750000000001110e+00,3.343750000000002220e+00,2.515625000000001776e+00,2.796875000000001776e+00,2.375000000000001776e+00,5.156250000000003331e-01,2.343750000000001776e+00,2.296875000000001776e+00,-1.031250000000000444e+00,-7.656250000000001110e-01,-2.734375000000001332e+00,-8.750000000000000000e-01,6.750000000000003553e+00,9.937500000000007105e+00,1.131250000000000711e+01,8.234375000000005329e+00,-1.875000000000000000e-01,-7.515625000000004441e+00,-1.060937500000000711e+01,-1.276562500000000888e+01,-1.178125000000000711e+01,-7.296875000000005329e+00,-7.046875000000005329e+00,-3.687500000000002665e+00,-2.343750000000000888e+00,-4.218750000000001776e+00,-3.078125000000001776e+00,-3.218750000000001776e+00,-4.375000000000004441e-01,3.093750000000001776e+00,7.484375000000004441e+00,8.687500000000005329e+00,7.046875000000005329e+00,6.046875000000003553e+00,8.750000000000006661e-01,-1.031250000000000444e+00,-1.031250000000000666e+00,-2.546875000000001776e+00,-2.171875000000001776e+00,-2.296875000000001776e+00,-2.421875000000001776e+00,-1.875000000000001554e+00,2.515625000000001776e+00,8.234375000000007105e+00,1.045312500000000711e+01,1.325000000000000888e+01,8.875000000000007105e+00,-1.109375000000001332e+00,-6.406250000000005329e+00,-1.071875000000000711e+01,-7.718750000000006217e+00,1.953125000000001110e+00,8.390625000000005329e+00,1.007812500000000711e+01,4.750000000000002665e+00,-4.078125000000002665e+00,-1.225000000000000711e+01,-1.295312500000000711e+01,-9.437500000000005329e+00,-4.609375000000002665e+00,2.468750000000001332e+00,1.546875000000000444e+00,1.203125000000000444e+00,-1.156250000000001332e+00,-4.593750000000003553e+00,-1.937500000000000888e+00,-8.593750000000004441e-01,3.718750000000002665e+00,3.828125000000002665e+00,1.718750000000000444e+00,7.968750000000000000e-01,-3.734375000000002665e+00,5.468750000000004441e-01,4.343750000000003553e+00,4.187500000000003553e+00,6.375000000000005329e+00,-2.968750000000000000e-01,-4.500000000000003553e+00,-2.921875000000001776e+00,-4.031250000000002665e+00,2.015625000000001332e+00,2.515625000000001776e+00,-2.656250000000006661e-01,2.750000000000001332e+00,-1.187500000000000444e+00,5.000000000000008882e-01,1.390625000000001332e+00,-6.328125000000003553e+00,-8.203125000000005329e+00,-1.028125000000000711e+01,-9.859375000000007105e+00,1.874999999999986677e-01,7.812500000000004441e+00,1.018750000000000533e+01,1.123437500000000711e+01,3.609375000000002220e+00,-3.031250000000001776e+00,-5.078125000000003553e+00,-7.890625000000005329e+00,-5.640625000000003553e+00,-5.796875000000003553e+00,-5.421875000000003553e+00,-7.968750000000007772e-01,2.265625000000000888e+00,8.546875000000005329e+00,1.134375000000000711e+01,6.906250000000003553e+00,5.625000000000003553e+00,4.484375000000002665e+00,7.171875000000004441e+00,1.692187500000001066e+01,1.815625000000001421e+01,1.348437500000001066e+01,4.000000000000003553e+00,-1.279687500000000711e+01,-1.917187500000001421e+01,-1.842187500000001066e+01,-1.407812500000000711e+01,-2.250000000000001332e+00,2.750000000000001776e+00,2.031250000000001332e+00,5.937500000000001110e-01,-4.421875000000003553e+00,-7.359375000000005329e+00,-4.296875000000002665e+00,8.281250000000009992e-01,5.328125000000003553e+00,1.015625000000000711e+01,1.307812500000000888e+01,1.212500000000000711e+01,1.371875000000000711e+01,1.473437500000001066e+01,8.375000000000005329e+00,3.312500000000001776e+00,-8.250000000000005329e+00,-2.039062500000001421e+01,-2.128125000000001421e+01,-2.378125000000001421e+01,-1.581250000000001066e+01,-5.281250000000003553e+00,-3.125000000000001332e+00,5.609375000000003553e+00,6.093750000000003553e+00,3.140625000000002665e+00,6.218750000000004441e+00,1.875000000000001110e+00,-1.874999999999997780e-01,7.031250000000006661e-01,-1.078125000000000444e+00,1.718750000000001332e+00,6.843750000000003553e+00,8.968750000000005329e+00,8.562500000000005329e+00,5.687500000000003553e+00,-1.343750000000000000e+00,-5.328125000000003553e+00,-5.218750000000003553e+00,-5.593750000000003553e+00,-3.437500000000002220e+00,-2.312500000000001776e+00,-3.218750000000002665e+00,-2.296875000000001776e+00,2.031250000000001110e-01,1.796875000000001110e+00,3.265625000000001776e+00,4.921875000000002665e+00,2.500000000000001332e+00,6.718750000000005551e-01,-1.562500000000000888e+00,-3.984375000000002665e+00,-3.843750000000002665e+00,-4.062500000000002665e+00,-2.343750000000002220e-01,1.593750000000001110e+00,2.562500000000001332e+00,5.781250000000003553e+00,2.578125000000001776e+00,6.250000000000003331e-01,6.562500000000003331e-01,-3.546875000000002665e+00,-2.187500000000001776e+00,1.031250000000000666e+00,2.109375000000001776e+00,6.640625000000004441e+00,8.265625000000005329e+00,8.375000000000005329e+00,8.734375000000005329e+00,6.125000000000004441e+00,3.109375000000002665e+00,-2.875000000000001776e+00,-9.078125000000005329e+00,-1.089062500000000711e+01,-1.292187500000000888e+01,-1.093750000000000711e+01,-7.718750000000006217e+00,-7.109375000000005329e+00,-2.125000000000001332e+00,3.234375000000002220e+00,6.250000000000004441e+00,7.171875000000005329e+00,4.500000000000003553e+00,-2.437500000000001776e+00,-5.125000000000003553e+00,-3.765625000000002665e+00,-3.843750000000003109e+00,1.156250000000000444e+00,3.671875000000002665e+00,3.296875000000001776e+00,5.562500000000003553e+00,4.046875000000003553e+00,-2.812500000000004441e-01,-1.500000000000001110e+00,-3.625000000000003109e+00,-2.343750000000002220e+00,3.500000000000002220e+00,3.203125000000001776e+00,3.937500000000002665e+00,-4.375000000000000000e-01,-7.156250000000005329e+00,-5.343750000000003553e+00,-5.343750000000003553e+00,3.125000000000000000e-01,7.156250000000005329e+00,6.875000000000005329e+00,8.593750000000007105e+00,5.812500000000003553e+00,1.375000000000000888e+00,-7.187500000000002220e-01,-5.484375000000003553e+00,-6.890625000000004441e+00,-6.250000000000004441e+00,-4.312500000000003553e+00,7.500000000000002220e-01,2.937500000000001776e+00,1.609375000000000666e+00,-3.125000000000027756e-02,-4.890625000000002665e+00,-8.265625000000005329e+00,-6.515625000000003553e+00,-7.500000000000004441e+00,-4.546875000000002665e+00,1.546875000000001776e+00,4.046875000000003553e+00,1.145312500000000711e+01,1.406250000000000888e+01,9.500000000000005329e+00,5.906250000000003553e+00,-2.843750000000002220e+00,-6.078125000000004441e+00,-3.265625000000002220e+00,-5.000000000000006661e-01,4.796875000000003553e+00,5.296875000000003553e+00,4.609375000000002665e+00,2.718750000000001776e+00,1.203125000000000666e+00,7.656250000000003331e-01,-2.531250000000001776e+00,-2.562500000000001776e+00,-3.140625000000001776e+00,-1.125000000000000222e+00,2.984375000000002665e+00,3.359375000000002665e+00,3.500000000000002665e+00,2.500000000000002220e-01,-3.328125000000002665e+00,-3.765625000000002665e+00,-3.937500000000002665e+00,-2.781250000000001776e+00,1.187500000000000888e+00,1.343750000000000888e+00,1.250000000000000666e+00,4.078125000000002665e+00,8.906250000000004441e-01,1.390625000000000444e+00,1.781250000000000666e+00,-4.656250000000003553e+00,-5.250000000000003553e+00,-8.187500000000007105e+00,-1.164062500000000711e+01,-6.625000000000003553e+00,-5.968750000000003553e+00,-2.625000000000001332e+00,3.718750000000002220e+00,1.843750000000000888e+00,3.437500000000002220e+00,3.531250000000002220e+00,-1.046875000000000444e+00,1.546875000000000888e+00,3.453125000000001776e+00,3.000000000000001776e+00,7.171875000000003553e+00,5.578125000000002665e+00,6.249999999999977796e-02,-1.765625000000001332e+00,-6.500000000000003553e+00,-7.828125000000003553e+00,-2.578125000000000888e+00,-7.812499999999955591e-02,3.515625000000002665e+00,6.906250000000005329e+00,3.921875000000002665e+00,4.296875000000002665e+00,2.953125000000001776e+00,3.281250000000001110e-01,2.843750000000001776e+00,7.812500000000008882e-01,3.125000000000004441e-01,-1.093750000000000000e-01,-5.375000000000003553e+00,-7.000000000000005329e+00,-6.906250000000005329e+00,-7.281250000000005329e+00,-2.187500000000000888e+00,9.218750000000008882e-01,-8.906250000000003331e-01,1.468750000000001332e+00,-2.203125000000001332e+00,-3.718750000000002220e+00,1.562500000000022204e-02,-3.031250000000001332e+00,-6.406250000000000000e-01,-1.250000000000000888e+00,-4.671875000000003553e+00,-2.687500000000001776e+00,-3.250000000000001776e+00,-1.890625000000001332e+00,-5.625000000000002220e-01,-5.156250000000002220e-01,6.250000000000005551e-01,3.312500000000001776e+00,7.234375000000003553e+00,1.032812500000000711e+01,1.007812500000000711e+01,5.781250000000003553e+00,1.531250000000001332e+00,-2.609375000000001776e+00,-2.796875000000001776e+00,1.109375000000000444e+00,1.968750000000000888e+00,2.093750000000001332e+00,1.375000000000000666e+00,-3.000000000000001776e+00,-2.968750000000001776e+00,-2.250000000000001332e+00,-2.906250000000001776e+00,-1.203125000000000888e+00,-2.468750000000001776e+00,-6.562500000000004441e-01,1.515625000000000888e+00,2.375000000000001332e+00,4.765625000000002665e+00,1.328125000000000444e+00,-1.312500000000000888e+00,-8.750000000000005551e-01,-1.859375000000001332e+00,1.359375000000000666e+00,4.671875000000002665e+00,2.625000000000001776e+00,1.421875000000000888e+00,-2.250000000000001776e+00,-6.390625000000004441e+00,-5.359375000000003553e+00,-3.171875000000001776e+00,2.281250000000001776e+00,6.875000000000005329e+00,9.031250000000005329e+00,7.828125000000005329e+00,4.000000000000001776e+00,2.093750000000001332e+00,-1.437500000000000888e+00,-1.328125000000000888e+00,-1.062500000000000888e+00,-3.812500000000002665e+00,-2.906250000000001776e+00,-2.671875000000001776e+00,-2.937500000000001776e+00,5.625000000000004441e-01,2.187500000000001332e+00,2.812499999999998335e-01,1.203125000000000666e+00,2.031250000000002220e-01,-1.296875000000000888e+00,2.765625000000001332e+00,2.812500000000001332e+00,2.062500000000001332e+00,2.421875000000001776e+00,-2.281250000000000888e+00,-3.093750000000001776e+00,-2.109375000000001332e+00,-2.578125000000001776e+00,7.031250000000004441e-01,2.828125000000001776e+00,3.937500000000002220e+00,6.812500000000003553e+00,6.984375000000003553e+00,4.265625000000001776e+00,5.000000000000000000e-01,-3.375000000000001776e+00,-5.937500000000003553e+00,-5.593750000000003553e+00,-2.843750000000001776e+00,-2.234375000000001332e+00,-3.437500000000004441e-01,1.750000000000000888e+00,1.359375000000000888e+00,2.250000000000001332e+00,-5.156250000000004441e-01,-4.031250000000002665e+00,-4.671875000000002665e+00,-3.734375000000001776e+00,1.937500000000001110e+00,6.828125000000003553e+00,8.687500000000005329e+00,7.796875000000003553e+00,1.421875000000000888e+00,-3.734375000000001776e+00,-6.203125000000003553e+00,-6.718750000000003553e+00,-2.156250000000000888e+00,1.015625000000000888e+00,8.437500000000009992e-01,-4.843750000000001110e-01,-4.265625000000002665e+00,-6.281250000000003553e+00,-3.484375000000002220e+00,3.125000000000022204e-02,3.421875000000002220e+00,5.750000000000003553e+00,2.406250000000001332e+00,-6.875000000000004441e-01,-2.328125000000001332e+00,-4.437500000000002665e+00,-1.984375000000001332e+00,2.656250000000001110e-01,-4.218750000000002776e-01,2.031250000000000555e-01,-9.531250000000007772e-01,-3.046875000000002220e+00,-1.375000000000001110e+00,-6.406250000000004441e-01,7.187500000000006661e-01,2.281250000000001776e+00,1.718750000000001332e+00,1.375000000000000888e+00,-7.031250000000003331e-01,-1.609375000000000888e+00,-2.187500000000001332e+00,-1.312500000000000888e+00,1.250000000000000888e+00,4.109375000000002665e+00,5.640625000000003553e+00,3.718750000000001776e+00,2.250000000000001332e+00,-1.734375000000001110e+00,-2.734375000000001776e+00,-1.390625000000000888e+00,-1.640625000000001110e+00,1.718750000000001665e-01,4.687500000000011102e-02,1.062500000000000888e+00,1.906250000000001332e+00,1.750000000000001110e+00,1.531250000000000888e+00,-2.109375000000001776e+00,-3.312500000000002665e+00,-3.109375000000002665e+00,-3.125000000000002665e+00,1.203125000000000666e+00,1.859375000000001110e+00,4.375000000000004441e-01,3.750000000000003331e-01,-4.828125000000002665e+00,-5.718750000000003553e+00,-4.062500000000003553e+00,-4.000000000000003553e+00,1.343750000000000444e+00,4.000000000000001776e+00,4.265625000000002665e+00,5.937500000000004441e+00,3.421875000000003109e+00,8.593750000000007772e-01,-1.281250000000000888e+00,-4.078125000000002665e+00,-3.187500000000001776e+00,-2.625000000000001776e+00,1.000000000000000000e+00,4.656250000000002665e+00,3.484375000000002220e+00,5.437500000000003553e+00,1.593750000000001332e+00,-1.968750000000000888e+00,3.593750000000004996e-01,-2.187500000000001332e+00,1.296875000000001332e+00,3.093750000000002220e+00,-4.843750000000003331e-01,4.687500000000003331e-01,-2.640625000000001776e+00,-1.812500000000001332e+00,1.296875000000000888e+00,1.671875000000001332e+00,3.406250000000002665e+00,-7.656250000000002220e-01,-3.187500000000001776e+00,-3.953125000000002665e+00,-4.921875000000003553e+00,1.171875000000001110e+00,4.000000000000002665e+00,3.859375000000002665e+00,4.578125000000003553e+00,-2.062500000000001776e+00,-6.500000000000003553e+00,-6.390625000000003553e+00,-7.984375000000005329e+00,-2.484375000000001332e+00,2.281250000000001776e+00,2.703125000000001776e+00,4.562500000000002665e+00,-1.406250000000000000e-01,-4.328125000000002665e+00,-6.453125000000003553e+00,-7.500000000000003553e+00,-2.453125000000001332e+00,1.203125000000000666e+00,6.093750000000003553e+00,7.312500000000003553e+00,3.312500000000001776e+00,9.531250000000002220e-01,-2.453125000000001776e+00,-3.031250000000001776e+00,-8.125000000000005551e-01,1.687500000000001332e+00,1.437500000000001110e+00,2.453125000000001332e+00,4.625000000000002665e+00,3.640625000000001776e+00,8.437500000000005329e+00,9.031250000000005329e+00,7.000000000000003553e+00,9.515625000000007105e+00,5.875000000000003553e+00,4.984375000000003553e+00,4.218750000000003553e+00,-7.500000000000003331e-01,-2.406250000000001332e+00,-3.500000000000002665e+00,-2.234375000000001776e+00,3.171875000000001776e+00,8.875000000000007105e+00,1.264062500000001066e+01,1.300000000000001066e+01,9.171875000000007105e+00,4.828125000000003553e+00,3.125000000000001776e+00,5.000000000000003553e+00,7.468750000000005329e+00,7.656250000000005329e+00,1.453125000000001776e+00,-9.515625000000007105e+00,-1.837500000000001421e+01,-2.523437500000001776e+01,-2.451562500000001776e+01,-1.871875000000001421e+01,-1.309375000000000711e+01,-6.484375000000003553e+00,-2.750000000000001776e+00,-1.015625000000000666e+00,7.812500000000005551e-02,1.562500000000001110e-01,1.562500000000001110e-01,7.812500000000005551e-02,6.938893903907228378e-18,-7.812500000000005551e-02,-1.562500000000001110e-01,-1.406250000000001110e-01,-1.250000000000000833e-01,-9.375000000000005551e-02,1.562500000000001735e-02,6.250000000000005551e-02,1.093750000000000833e-01,1.093750000000000833e-01,6.250000000000004163e-02,3.125000000000002082e-02,1.562500000000001041e-02,1.562500000000001041e-02,-3.125000000000002776e-02,-7.812500000000006939e-02,-1.875000000000001665e-01,-1.875000000000001665e-01,-9.375000000000008327e-02,0.000000000000000000e+00,1.875000000000001665e-01,1.875000000000001665e-01,1.250000000000001110e-01,6.250000000000005551e-02,-6.250000000000004163e-02,-6.250000000000004163e-02,-4.687500000000002776e-02,-3.125000000000002082e-02,0.000000000000000000e+00,0.000000000000000000e+00,0.000000000000000000e+00,1.562500000000001041e-02,1.562500000000001041e-02,0.000000000000000000e+00,-1.562500000000001041e-02,-9.375000000000005551e-02,-1.093750000000000555e-01,-6.250000000000004163e-02,-1.562500000000001041e-02,-5.156250000000003331e-01,-2.750000000000001776e+00,-6.890625000000003553e+00,-1.292187500000000711e+01,-1.887500000000001421e+01,-2.139062500000001421e+01,-2.009375000000001421e+01,-1.535937500000001243e+01,-8.812500000000007105e+00,-3.203125000000002665e+00,1.046875000000000444e+00,5.781250000000003553e+00,9.218750000000007105e+00,1.014062500000000711e+01,9.875000000000007105e+00,5.203125000000003553e+00,1.328125000000001554e+00,3.593750000000002220e-01,-6.250000000000002220e-01,1.390625000000000888e+00,1.218750000000000666e+00,-1.359375000000000666e+00,-2.828125000000001332e+00,-5.250000000000002665e+00,-6.609375000000004441e+00,-4.718750000000003553e+00,-3.359375000000002665e+00,-1.562500000000088818e-02,4.890625000000003553e+00,6.125000000000003553e+00,7.703125000000004441e+00,6.031250000000003553e+00,4.062500000000001776e+00,4.250000000000002665e+00,5.015625000000003553e+00,7.765625000000005329e+00,7.031250000000004441e+00,6.593750000000004441e+00,3.421875000000002220e+00,-1.093750000000002776e-01,4.687499999999983347e-02,-3.843750000000003109e+00,-6.031250000000003553e+00,-8.156250000000003553e+00,-9.906250000000005329e+00,-2.750000000000001332e+00,8.093750000000005329e+00,2.006250000000001421e+01,2.984375000000002132e+01,3.021875000000002132e+01
5.937500000000003553e+00,-1.250000000000000222e+00,-5.812500000000003553e+00,-4.375000000000004441e-01,5.062500000000001776e+00,-3.250000000000002220e+00,-1.206250000000000533e+01,-6.250000000000002665e+00,6.937500000000002665e+00,1.218750000000000533e+01,5.312500000000002665e+00,-3.187500000000001332e+00,-3.062500000000001332e+00,1.937500000000000444e+00,-8.750000000000004441e-01,-8.437500000000003553e+00,-3.437500000000000888e+00,4.000000000000001776e+00,-1.812500000000000888e+00,1.875000000000004441e-01,1.400000000000000533e+01,1.206250000000000355e+01,-7.125000000000003553e+00,-2.000000000000000711e+01,-8.750000000000001776e+00,9.437500000000005329e+00,4.812500000000001776e+00,-6.250000000000000000e-01,9.812500000000005329e+00,9.375000000000000000e-01,-1.850000000000000711e+01,-6.750000000000001776e+00,9.750000000000003553e+00,-2.125000000000001776e+00,-1.268750000000000711e+01,-6.125000000000003553e+00,2.312500000000000888e+00,7.187500000000003553e+00,1.312500000000000000e+00,-5.312500000000002665e+00,4.187500000000002665e+00,7.875000000000003553e+00,-5.062500000000003553e+00,-6.687500000000003553e+00,2.937500000000001776e+00,1.000000000000000888e+00,-1.125000000000000444e+00,4.250000000000001776e+00,4.375000000000004441e-01,-4.937500000000001776e+00,-2.625000000000000888e+00,1.187500000000000444e+00,3.312500000000001776e+00,1.250000000000002220e-01,-2.625000000000001332e+00,-3.500000000000001776e+00,-4.125000000000001776e+00,6.250000000000000000e-02,5.562500000000002665e+00,6.125000000000002665e+00,5.625000000000000000e-01,-5.437500000000002665e+00,-8.375000000000003553e+00,-1.187500000000000000e+00,1.050000000000000355e+01,3.875000000000000888e+00,-2.875000000000001776e+00,4.562500000000001776e+00,-2.125000000000000888e+00,-9.812500000000003553e+00,3.250000000000001776e+00,5.812500000000003553e+00,-4.187500000000001776e+00,-3.750000000000004441e-01,2.937500000000001332e+00,1.437500000000000888e+00,2.812500000000001776e+00,-5.437500000000002665e+00,-7.312500000000003553e+00,4.687500000000001776e+00,1.875000000000000000e+00,-4.625000000000001776e+00,7.062500000000003553e+00,1.062500000000000355e+01,-3.437500000000001776e+00,-8.812500000000003553e+00,-4.812500000000002665e+00,-6.000000000000003553e+00,-2.312500000000001776e+00,8.750000000000003553e+00,8.000000000000003553e+00,3.500000000000001776e+00,4.312500000000001776e+00,-5.687500000000002665e+00,-1.143750000000000533e+01,2.375000000000000888e+00,8.937500000000003553e+00,4.562500000000001776e+00,1.000000000000000666e+00,-9.062500000000003553e+00,-6.750000000000002665e+00,8.687500000000003553e+00,1.875000000000001776e+00,-6.250000000000001776e+00,5.250000000000003553e+00,3.312500000000002220e+00,-3.562500000000001332e+00,8.750000000000007772e-01,-4.875000000000002665e+00,-4.125000000000002665e+00,9.062500000000003553e+00,3.562500000000001776e+00,-5.062500000000002665e+00,-3.062500000000001332e+00,-4.437500000000001776e+00,-1.875000000000000000e-01,5.125000000000001776e+00,8.125000000000004441e-01,-2.750000000000000888e+00,-4.375000000000002220e-01,7.312500000000003553e+00,8.625000000000003553e+00,-5.375000000000002665e+00,-1.506250000000000711e+01,-2.687500000000001776e+00,1.387500000000000533e+01,8.937500000000003553e+00,-3.375000000000001776e+00,-2.437500000000001332e+00,-3.125000000000001110e-01,-5.875000000000003553e+00,-6.437500000000003553e+00,2.937500000000000888e+00,4.750000000000001776e+00,-2.062500000000000444e+00,-1.437500000000000444e+00,2.625000000000001332e+00,7.125000000000002665e+00,8.437500000000003553e+00,-5.062500000000001776e+00,-1.462500000000000711e+01,8.125000000000000000e-01,1.512500000000000711e+01,5.125000000000001776e+00,-9.250000000000005329e+00,-1.231250000000000533e+01,-5.875000000000001776e+00,9.312500000000003553e+00,1.406250000000000711e+01,-1.124999999999999112e+00,-8.000000000000003553e+00,-1.437500000000000888e+00,-1.875000000000000888e+00,-4.687500000000001776e+00,-5.000000000000000000e-01,5.625000000000006661e-01,-2.000000000000000888e+00,2.500000000000000888e+00,5.437500000000002665e+00,5.687500000000002665e+00,6.750000000000003553e+00,-3.562500000000002220e+00,-7.875000000000004441e+00,2.500000000000000888e+00,1.000000000000000444e+00,-5.000000000000001776e+00,-1.000000000000000444e+00,2.187500000000000888e+00,-2.500000000000000000e-01,-3.375000000000001332e+00,-1.187500000000000444e+00,3.500000000000001776e+00,4.562500000000001776e+00,1.250000000000000444e+00,8.750000000000005551e-01,3.625000000000001332e+00,2.499999999999993339e-01,-6.562500000000002665e+00,-6.500000000000002665e+00,2.500000000000000888e+00,6.250000000000002665e+00,3.187500000000001776e+00,-1.812500000000001110e+00,-1.093750000000000533e+01,-4.000000000000001776e+00,1.243750000000000533e+01,2.875000000000000888e+00,-1.381250000000000711e+01,-1.937500000000000000e+00,1.281250000000000711e+01,2.687500000000001776e+00,-2.937500000000000888e+00,1.000000000000000666e+00,-7.250000000000003553e+00,-7.500000000000003553e+00,3.750000000000001776e+00,5.750000000000002665e+00,3.125000000000001332e+00,4.375000000000001776e+00,2.812500000000001776e+00,-9.187500000000003553e+00,-8.687500000000003553e+00,1.218750000000000533e+01,1.068750000000000533e+01,-1.312500000000000533e+01,-9.500000000000003553e+00,1.368750000000000711e+01,8.812500000000003553e+00,-1.118750000000000355e+01,-6.875000000000002665e+00,5.562500000000002665e+00,2.937500000000001332e+00,-5.062500000000001776e+00,-8.812500000000003553e+00,6.250000000000000000e-02,1.143750000000000533e+01,6.000000000000003553e+00,-4.000000000000001776e+00,-4.000000000000001776e+00,-1.312500000000000444e+00,2.437500000000000888e+00,8.375000000000003553e+00,-1.250000000000008882e-01,-1.225000000000000711e+01,2.000000000000000000e+00,1.493750000000000711e+01,-1.250000000000000000e-01,-9.062500000000003553e+00,-4.875000000000001776e+00,-7.312500000000003553e+00,4.375000000000000000e-01,1.006250000000000355e+01,-3.312500000000001776e+00,-1.112500000000000533e+01,5.250000000000001776e+00,1.418750000000000711e+01,-1.875000000000000000e-01,-6.687500000000003553e+00,3.750000000000001776e+00,-2.812500000000000888e+00,-1.100000000000000533e+01,7.750000000000003553e+00,1.268750000000000533e+01,-8.375000000000005329e+00,-8.000000000000005329e+00,5.437500000000002665e+00,-2.562500000000001776e+00,-5.125000000000002665e+00,5.125000000000002665e+00,-3.500000000000001776e+00,-1.356250000000000711e+01,-4.562500000000001776e+00,7.375000000000001776e+00,1.500000000000000533e+01,8.812500000000003553e+00,-8.312500000000003553e+00,-8.812500000000003553e+00,6.250000000000022204e-02,6.250000000000022204e-02,2.500000000000000000e-01,4.375000000000003331e-01,2.812500000000001776e+00,8.750000000000003553e+00,2.625000000000000888e+00,-6.687500000000002665e+00,-8.062500000000003553e+00,-3.312500000000001332e+00,8.500000000000003553e+00,4.250000000000001776e+00,-8.062500000000003553e+00,1.312500000000000888e+00,5.125000000000001776e+00,-1.375000000000000888e+00,4.312500000000001776e+00,2.687500000000000888e+00,-5.312500000000001776e+00,-5.875000000000002665e+00,-6.437500000000003553e+00,6.250000000000000000e-02,1.131250000000000533e+01,1.062500000000000533e+01,-1.812500000000000000e+00,-6.812500000000003553e+00,-1.312500000000001110e+00,-7.750000000000003553e+00,-1.718750000000000711e+01,-4.312500000000001776e+00,1.250000000000000533e+01,1.068750000000000533e+01,8.062500000000003553e+00,3.750000000000000888e+00,-1.287500000000000711e+01,-1.137500000000000533e+01,7.500000000000003553e+00,1.568750000000000711e+01,1.181250000000000533e+01,-1.250000000000000000e+00,-7.000000000000002665e+00,5.625000000000004441e-01,2.312500000000001332e+00,-1.875000000000000555e-01,1.687500000000000888e+00,-1.625000000000000888e+00,-7.437500000000003553e+00,-1.937500000000000888e+00,5.437500000000002665e+00,7.687500000000004441e+00,8.125000000000008882e-01,-1.006250000000000533e+01,6.875000000000000000e-01,8.187500000000003553e+00,-9.750000000000005329e+00,-1.681250000000000711e+01,-4.187500000000001776e+00,7.062500000000002665e+00,2.000000000000000444e+00,-5.062500000000001776e+00,5.875000000000002665e+00,6.687500000000003553e+00,-3.312500000000001332e+00,-3.875000000000001776e+00,-7.437500000000002665e+00,-4.062500000000000888e+00,3.687500000000001332e+00,5.437500000000001776e+00,8.937500000000003553e+00,-4.375000000000001776e+00,-1.693750000000000711e+01,4.812500000000004441e+00,2.275000000000001066e+01,7.250000000000001776e+00,-1.237500000000000533e+01,-1.631250000000000711e+01,-5.062500000000002665e+00,1.468750000000000711e+01,1.475000000000000888e+01,-7.562500000000001776e+00,-1.412500000000000533e+01,4.500000000000001776e+00,1.306250000000000533e+01,-4.937500000000001776e+00,-1.037500000000000355e+01,1.125000000000000711e+01,1.125000000000000711e+01,-1.243750000000000533e+01,-1.081250000000000533e+01,8.687500000000003553e+00,1.368750000000000533e+01,1.875000000000000000e+00,-1.512500000000000711e+01,-1.193750000000000533e+01,6.250000000000003553e+00,1.112500000000000533e+01,1.087500000000000533e+01,7.437500000000003553e+00,-7.187500000000003553e+00,-1.087500000000000533e+01,-1.125000000000000444e+00,-7.500000000000000000e-01,-2.875000000000000888e+00,-2.687500000000001776e+00,-6.312500000000003553e+00,2.500000000000000000e-01,7.062500000000003553e+00,-1.875000000000000000e-01,-5.937500000000003553e+00,-4.000000000000002665e+00,1.250000000000000000e-01,1.937500000000001332e+00,8.750000000000006661e-01,3.875000000000001776e+00,1.068750000000000533e+01,1.437500000000000888e+00,-1.262500000000000711e+01,2.000000000000000000e+00,1.093750000000000355e+01,-9.875000000000005329e+00,-8.125000000000003553e+00,1.375000000000000711e+01,2.562500000000001776e+00,-1.537500000000000711e+01,-1.312500000000000888e+00,7.312500000000003553e+00,1.750000000000001110e+00,1.037500000000000355e+01,8.812500000000003553e+00,-4.687500000000002665e+00,-1.250000000000000888e+00,-4.375000000000001776e+00,-1.806250000000000711e+01,-7.625000000000003553e+00,1.712500000000000711e+01,2.225000000000001066e+01,5.187500000000001776e+00,-1.325000000000000533e+01,-1.643750000000000711e+01,-5.312500000000003553e+00,3.187500000000001776e+00,3.062500000000001776e+00,-1.000000000000000888e+00,-1.437500000000001110e+00,7.687500000000003553e+00,3.437500000000001776e+00,-1.118750000000000533e+01,-5.875000000000002665e+00,4.250000000000002665e+00,9.375000000000002220e-01,2.000000000000000888e+00,1.143750000000000533e+01,1.250000000000000000e-01,-1.643750000000000711e+01,-3.000000000000001776e+00,6.125000000000001776e+00,2.187500000000000888e+00,1.250000000000000711e+01,8.937500000000003553e+00,-1.506250000000000711e+01,-2.025000000000001066e+01,2.687500000000001776e+00,2.043750000000001066e+01,5.500000000000002665e+00,-9.875000000000003553e+00,-6.500000000000002665e+00,-3.000000000000001332e+00,7.375000000000003553e+00,8.687500000000003553e+00,-4.187500000000001776e+00,-2.437500000000000888e+00,-5.000000000000002665e+00,-1.493750000000000711e+01,-3.187500000000000888e+00,9.812500000000005329e+00,1.100000000000000533e+01,1.200000000000000711e+01,6.250000000000000000e-02,-1.343750000000000711e+01,-7.750000000000003553e+00,2.375000000000001332e+00,4.250000000000001776e+00,1.187500000000000444e+00,-2.062500000000000888e+00,-8.812500000000003553e+00,-8.875000000000003553e+00,8.875000000000003553e+00,1.693750000000000711e+01,7.062500000000004441e+00,-1.437500000000000222e+00,-1.325000000000000711e+01,-1.293750000000000711e+01,1.156250000000000711e+01,2.400000000000001066e+01,1.406250000000000533e+01,-8.750000000000000000e-01,-1.200000000000000533e+01,-1.468750000000000711e+01,-1.543750000000000711e+01,-3.062500000000000888e+00,1.475000000000000711e+01,3.187500000000000000e+00,-6.125000000000003553e+00,8.937500000000003553e+00,7.500000000000000000e-01,-1.693750000000000711e+01,-1.687500000000000000e+00,6.812500000000003553e+00,-5.687500000000002665e+00,6.000000000000002665e+00,1.881250000000000711e+01,-2.750000000000001776e+00,-1.381250000000000711e+01,5.312500000000001776e+00,1.912500000000000711e+01,1.293750000000000533e+01,-8.312500000000001776e+00,-1.968750000000000711e+01,-1.156250000000000533e+01,-4.125000000000001776e+00,4.375000000000004441e-01,-4.000000000000001776e+00,-3.375000000000001776e+00,1.143750000000000355e+01,2.187500000000000000e+00,-6.687500000000003553e+00,8.812500000000003553e+00,6.875000000000000000e-01,-1.093750000000000533e+01,8.187500000000001776e+00,1.037500000000000355e+01,-1.406250000000000711e+01,-1.406250000000000711e+01,1.387500000000000711e+01,2.462500000000001066e+01,2.312500000000000000e+00,-1.731250000000000711e+01,-8.562500000000003553e+00,1.625000000000000444e+00,1.687500000000000888e+00,7.562500000000004441e+00,1.875000000000000000e-01,-1.625000000000000711e+01,-1.312500000000000000e+00,1.668750000000000711e+01,-3.312500000000001776e+00,-1.400000000000000711e+01,9.500000000000007105e+00,1.412500000000000711e+01,-5.875000000000002665e+00,-9.937500000000003553e+00,7.500000000000008882e-01,4.312500000000002665e+00,2.500000000000002220e-01,-6.375000000000001776e+00,-7.437500000000002665e+00,9.875000000000007105e+00,1.487500000000000711e+01,-9.500000000000007105e+00,-1.025000000000000711e+01,1.018750000000000355e+01,4.375000000000001776e+00,-6.562500000000002665e+00,-5.562500000000001776e+00,-4.125000000000001776e+00,7.937500000000002665e+00,1.587500000000000711e+01,-1.500000000000000000e+00,-1.425000000000000711e+01,2.812500000000000888e+00,1.787500000000000711e+01,5.062500000000001776e+00,-1.043750000000000533e+01,-1.456250000000000711e+01,-1.193750000000000533e+01,6.625000000000001776e+00,1.681250000000000711e+01,-5.750000000000001776e+00,-2.343750000000000711e+01,-7.312500000000000888e+00,2.018750000000001066e+01,2.337500000000001066e+01,-3.937500000000001776e+00,-2.031250000000000711e+01,-3.437500000000001776e+00,4.687500000000001776e+00,-1.937500000000000666e+00,7.187500000000003553e+00,3.437500000000001776e+00,-1.406250000000000533e+01,1.875000000000000000e-01,1.931250000000000711e+01,4.500000000000001776e+00,-1.312500000000000533e+01,-8.687500000000003553e+00,1.875000000000000222e+00,2.437500000000000888e+00,2.062500000000000888e+00,9.687500000000003553e+00,4.312500000000002665e+00,-9.125000000000003553e+00,-1.118750000000000355e+01,-6.937500000000003553e+00,7.000000000000001776e+00,1.268750000000000533e+01,-1.562500000000000000e+00,-3.687500000000000888e+00,5.937500000000002665e+00,4.125000000000001776e+00,-3.687500000000001776e+00,-3.812500000000002220e+00,1.625000000000000444e+00,-1.937500000000000888e+00,-9.437500000000003553e+00,-4.125000000000001776e+00,9.250000000000003553e+00,1.425000000000000711e+01,-4.375000000000008882e-01,-1.768750000000000711e+01,-5.875000000000001776e+00,1.012500000000000355e+01,-1.562500000000001776e+00,-6.812500000000003553e+00,9.375000000000002220e-01,-3.062500000000001776e+00,-4.375000000000000000e-01,1.212500000000000533e+01,1.443750000000000711e+01,3.187500000000002220e+00,-1.150000000000000533e+01,-1.018750000000000355e+01,-1.812500000000000888e+00,-1.875000000000000278e-01,7.562500000000003553e+00,1.268750000000000533e+01,-8.750000000000017764e-01,-1.406250000000000711e+01,-3.937500000000001776e+00,1.225000000000000533e+01,1.100000000000000355e+01,-4.312500000000002665e+00,-1.962500000000001066e+01,-9.625000000000005329e+00,1.900000000000000711e+01,1.918750000000000711e+01,-1.087500000000000533e+01,-1.850000000000000711e+01,8.937500000000005329e+00,1.512500000000000711e+01,-1.287500000000000711e+01,-1.562500000000000711e+01,9.062500000000005329e+00,1.150000000000000533e+01,3.750000000000000000e-01,-5.375000000000002665e+00,-8.562500000000003553e+00,5.250000000000001776e+00,1.362500000000000533e+01,-2.812500000000001776e+00,-1.012500000000000533e+01,-4.687500000000001776e+00,-2.500000000000002220e-01,1.375000000000000666e+00,-5.187500000000001776e+00,-4.125000000000001776e+00,2.562500000000000888e+00,3.312500000000001776e+00,8.125000000000003553e+00,1.875000000000008882e-01,-1.200000000000000533e+01,1.875000000000000888e+00,7.937500000000003553e+00,-3.625000000000001776e+00,1.000000000000000000e+00,5.375000000000001776e+00,2.062500000000000888e+00,4.562500000000001776e+00,-5.312500000000001776e+00,-1.556250000000000711e+01,-2.812500000000001776e+00,9.937500000000003553e+00,7.875000000000002665e+00,-1.312500000000000888e+00,-5.750000000000002665e+00,3.000000000000001776e+00,6.375000000000003553e+00,-6.875000000000006661e-01,-4.000000000000001776e+00,-2.750000000000000888e+00,4.687500000000001776e+00,5.750000000000001776e+00,-3.125000000000001776e+00,-3.625000000000001776e+00,-4.750000000000001776e+00,-8.750000000000003553e+00,1.500000000000000000e+00,8.500000000000003553e+00,2.687500000000001332e+00,-1.875000000000000888e+00,-6.375000000000002665e+00,-1.187500000000000000e+00,4.562500000000002665e+00,-3.375000000000000888e+00,-1.062500000000000444e+00,4.750000000000001776e+00,-2.500000000000004441e-01,-4.250000000000001776e+00,-7.062500000000003553e+00,-1.812500000000000444e+00,1.075000000000000533e+01,6.375000000000002665e+00,-1.156250000000000355e+01,-9.937500000000003553e+00,8.000000000000003553e+00,1.093750000000000355e+01,3.937500000000001332e+00,5.437500000000001776e+00,6.875000000000000000e-01,-1.268750000000000533e+01,-6.500000000000002665e+00,7.437500000000002665e+00,4.250000000000001776e+00,3.250000000000001776e+00,4.125000000000001776e+00,-7.875000000000003553e+00,-8.812500000000003553e+00,3.312500000000001332e+00,5.500000000000002665e+00,1.562500000000000666e+00,-1.750000000000000888e+00,-6.875000000000002665e+00,-6.500000000000002665e+00,7.937500000000002665e+00,1.343750000000000533e+01,-2.687500000000001776e+00,-7.187500000000003553e+00,-1.437500000000000444e+00,-5.062500000000001776e+00,2.312500000000001776e+00,1.087500000000000533e+01,-1.312500000000000888e+00,-5.250000000000002665e+00,5.250000000000001776e+00,1.875000000000000444e+00,-1.043750000000000533e+01,-8.750000000000003553e+00,4.187500000000001776e+00,8.312500000000003553e+00,4.750000000000001776e+00,4.312500000000001776e+00,1.500000000000000888e+00,-6.500000000000003553e+00,-4.687500000000001776e+00,6.937500000000003553e+00,2.562500000000001776e+00,-5.937500000000003553e+00,1.375000000000000444e+00,-1.500000000000000000e+00,-7.875000000000002665e+00,5.125000000000002665e+00,6.062500000000002665e+00,-5.375000000000002665e+00,3.187500000000001776e+00,4.937500000000002665e+00,-1.025000000000000355e+01,-5.375000000000001776e+00,1.031250000000000533e+01,9.062500000000003553e+00,-3.750000000000001776e+00,-7.312500000000003553e+00,2.187500000000000888e+00,-3.125000000000000000e-01,-7.562500000000003553e+00,5.125000000000001776e+00,9.437500000000003553e+00,-6.875000000000003553e+00,-7.687500000000003553e+00,8.125000000000003553e+00,1.350000000000000711e+01,4.312500000000002665e+00,-1.081250000000000533e+01,-1.568750000000000888e+01,6.250000000000000000e-01,1.325000000000000711e+01,2.562500000000001776e+00,-8.000000000000003553e+00,-6.625000000000002665e+00,-4.375000000000000000e-01,1.050000000000000355e+01,1.106250000000000533e+01,-6.125000000000001776e+00,-1.743750000000000711e+01,-5.562500000000001776e+00,1.106250000000000533e+01,7.500000000000003553e+00,-2.125000000000001332e+00,2.437500000000000888e+00,8.562500000000003553e+00,9.375000000000000000e-01,-1.356250000000000533e+01,-1.162500000000000355e+01,6.000000000000002665e+00,8.687500000000003553e+00,4.374999999999997780e-01,1.937500000000000666e+00,-6.875000000000004441e-01,-1.025000000000000533e+01,-6.937500000000003553e+00,4.312500000000001776e+00,7.062500000000003553e+00,2.687500000000001332e+00,1.750000000000000888e+00,2.562500000000001332e+00,-7.250000000000003553e+00,-1.037500000000000355e+01,6.812500000000002665e+00,8.312500000000003553e+00,-7.125000000000003553e+00,-1.687500000000001776e+00,6.937500000000002665e+00,-3.125000000000001776e+00,-6.687500000000003553e+00,5.625000000000004441e-01,3.000000000000001332e+00,2.750000000000001332e+00,2.000000000000000888e+00,-2.750000000000001776e+00,-3.312500000000001776e+00,4.500000000000001776e+00,2.812500000000000888e+00,-7.562500000000003553e+00,-5.187500000000002665e+00,5.062500000000001776e+00,6.375000000000002665e+00,4.625000000000001776e+00,2.687500000000001332e+00,-6.687500000000003553e+00,-8.500000000000003553e+00,1.187500000000000444e+00,6.562500000000003553e+00,4.875000000000002665e+00,-3.312500000000000888e+00,-1.006250000000000355e+01,-1.375000000000000888e+00,1.362500000000000711e+01,7.812500000000004441e+00,-1.056250000000000355e+01,-8.687500000000003553e+00,2.875000000000000888e+00,2.812500000000000888e+00,-1.000000000000000444e+00,-2.250000000000000888e+00,2.937500000000001332e+00,6.562500000000002665e+00,-1.875000000000000888e+00,-7.875000000000003553e+00,-7.250000000000003553e+00,-1.875000000000000000e-01,1.018750000000000533e+01,1.125000000000001776e+00,-8.937500000000003553e+00,5.562500000000001776e+00,1.087500000000000355e+01,-4.375000000000002665e+00,-6.312500000000003553e+00,3.562500000000001776e+00,-7.500000000000000000e-01,-7.937500000000003553e+00,1.187500000000000888e+00,6.000000000000003553e+00,1.375000000000000444e+00,3.250000000000001776e+00,6.875000000000008882e-01,-2.187500000000000888e+00,-1.062500000000000666e+00,-5.062500000000002665e+00,-1.875000000000000000e-01,6.500000000000003553e+00,4.437500000000001776e+00,1.125000000000000666e+00,-7.875000000000003553e+00,-8.687500000000003553e+00,4.750000000000003553e+00,8.937500000000003553e+00,1.250000000000000000e-01,-1.875000000000000222e+00,3.250000000000001776e+00,-5.812500000000002665e+00,-1.125000000000000533e+01,4.375000000000001776e+00,7.500000000000003553e+00,1.250000000000000278e-01,4.687500000000001776e+00,3.062500000000000888e+00,-6.000000000000002665e+00,-9.250000000000003553e+00,-4.562500000000001776e+00,5.500000000000001776e+00,2.000000000000000000e+00,-4.437500000000001776e+00,6.750000000000003553e+00,8.750000000000003553e+00,-5.625000000000003553e+00,-1.031250000000000533e+01,-3.187500000000001776e+00,4.375000000000000555e-01,1.875000000000002776e-01,3.750000000000002220e+00,4.125000000000001776e+00,5.062500000000001776e+00,5.562500000000002665e+00,-9.812500000000005329e+00,-1.531250000000000711e+01,6.687500000000003553e+00,1.500000000000000711e+01,-1.687500000000000888e+00,-6.625000000000003553e+00,-2.437500000000001332e+00,-1.062500000000000666e+00,8.687500000000003553e+00,9.125000000000003553e+00,-1.562500000000000222e+00,-4.062500000000001776e+00,-6.875000000000002220e-01,8.500000000000003553e+00,7.812500000000003553e+00,-7.000000000000003553e+00,-6.062500000000003553e+00,4.062500000000001776e+00,-1.437500000000000000e+00,-7.187500000000003553e+00,1.937500000000000444e+00,9.875000000000003553e+00,8.375000000000003553e+00,7.062500000000002665e+00,2.187499999999999556e+00,-1.225000000000000533e+01,-1.331250000000000355e+01,1.100000000000000711e+01,2.400000000000001421e+01,3.875000000000001776e+00,-1.325000000000000711e+01,-9.687500000000005329e+00,-9.312500000000005329e+00,-1.043750000000000533e+01,-4.000000000000001776e+00,-1.250000000000000555e-01,-6.250000000000002776e-02,-6.250000000000002776e-02,-1.250000000000000555e-01,6.250000000000002776e-02,2.500000000000001110e-01,6.250000000000002776e-02,-6.250000000000002776e-02,6.250000000000002776e-02,-6.250000000000002776e-02,-1.875000000000000833e-01,6.250000000000002776e-02,6.250000000000002776e-02,-1.875000000000000833e-01,-6.250000000000002776e-02,1.250000000000000555e-01,6.250000000000002776e-02,6.250000000000002776e-02,1.250000000000000555e-01,-6.250000000000002776e-02,-2.500000000000001110e-01,0.000000000000000000e+00,3.125000000000001665e-01,1.250000000000000833e-01,-2.500000000000001110e-01,-2.500000000000001110e-01,-1.250000000000000555e-01,0.000000000000000000e+00,2.500000000000001110e-01,2.500000000000001110e-01,6.250000000000002776e-02,-1.250000000000000555e-01,-2.500000000000001110e-01,0.000000000000000000e+00,2.500000000000001110e-01,0.000000000000000000e+00,-2.500000000000001110e-01,0.000000000000000000e+00,2.500000000000001110e-01,0.000000000000000000e+00,-2.500000000000001110e-01,0.000000000000000000e+00,2.500000000000001110e-01,6.250000000000002776e-02,-1.875000000000000833e-01,-2.500000000000001110e-01,-6.250000000000002776e-02,2.500000000000001110e-01,1.875000000000001110e-01,0.000000000000000000e+00,6.250000000000002776e-02,-2.625000000000000888e+00,-1.193750000000000355e+01,-1.781250000000000711e+01,-5.000000000000001776e+00,1.125000000000000355e+01,5.625000000000001776e+00,-8.000000000000003553e+00,-6.250000000000001776e+00,3.125000000000000888e+00,1.037500000000000355e+01,1.250000000000000711e+01,1.625000000000000888e+00,-1.112500000000000533e+01,-8.812500000000005329e+00,4.500000000000001776e+00,1.106250000000000711e+01,9.375000000000017764e-01,-6.812500000000001776e+00,-1.250000000000000444e+00,6.249999999999911182e-02,-2.625000000000001776e+00,-2.499999999999991118e-01,-1.562500000000000222e+00,-4.187500000000002665e+00,-3.750000000000011102e-01,5.937500000000002665e+00,9.187500000000005329e+00,2.250000000000001776e+00,-6.062500000000001776e+00,-3.125000000000001332e+00,3.000000000000000888e+00,3.562500000000000888e+00,4.250000000000001776e+00,6.562500000000003553e+00,1.250000000000004441e-01,-6.312500000000002665e+00,-3.812500000000001776e+00,1.125000000000000222e+00,8.187500000000003553e+00,3.125000000000001776e+00,-1.443750000000000533e+01,-1.593750000000000533e+01,-3.750000000000000000e-01,1.418750000000000533e+01,1.956250000000000711e+01,1.425000000000000711e+01
5.250000000000000888e+00,-3.000000000000000888e+00,1.500000000000000888e+00,-1.100000000000000355e+01,1.850000000000000355e+01,-1.275000000000000355e+01,2.750000000000000444e+00,-1.050000000000000355e+01,9.750000000000003553e+00,7.500000000000000000e-01,5.500000000000000888e+00,-6.250000000000000888e+00,5.000000000000000000e-01,0.000000000000000000e+00,4.250000000000000888e+00,-5.000000000000000888e+00,-9.500000000000003553e+00,1.725000000000000355e+01,-1.000000000000000178e+01,-4.500000000000000888e+00,1.125000000000000355e+01,5.500000000000001776e+00,-5.500000000000001776e+00,-3.250000000000000888e+00,-1.575000000000000355e+01,1.900000000000000355e+01,2.000000000000000000e+00,-1.800000000000000355e+01,1.900000000000000355e+01,2.500000000000001776e+00,-1.475000000000000355e+01,-1.025000000000000178e+01,2.650000000000000711e+01,-1.500000000000000355e+01,-4.250000000000000888e+00,2.750000000000000444e+00,-2.750000000000000444e+00,2.000000000000000444e+00,1.100000000000000178e+01,-1.900000000000000355e+01,1.000000000000000178e+01,6.750000000000001776e+00,-5.250000000000001776e+00,-9.000000000000001776e+00,1.025000000000000178e+01,5.000000000000000000e-01,-1.050000000000000178e+01,1.100000000000000355e+01,2.250000000000000000e+00,-1.650000000000000355e+01,2.075000000000000355e+01,-2.375000000000000711e+01,2.375000000000000711e+01,-1.425000000000000355e+01,2.000000000000000444e+00,6.750000000000001776e+00,-1.625000000000000355e+01,1.675000000000000355e+01,-1.500000000000000355e+01,1.800000000000000355e+01,-1.050000000000000178e+01,1.750000000000000222e+00,1.250000000000000222e+00,-1.325000000000000355e+01,1.550000000000000355e+01,6.000000000000001776e+00,-2.325000000000000711e+01,2.375000000000000711e+01,-6.500000000000001776e+00,-1.125000000000000178e+01,3.750000000000000888e+00,1.550000000000000355e+01,-2.000000000000000355e+01,6.500000000000000888e+00,1.150000000000000355e+01,-2.200000000000000711e+01,2.475000000000000711e+01,-1.375000000000000178e+01,-5.750000000000001776e+00,6.750000000000001776e+00,8.500000000000001776e+00,-1.900000000000000711e+01,1.125000000000000355e+01,9.750000000000001776e+00,-1.075000000000000178e+01,1.000000000000000222e+00,-3.500000000000000888e+00,6.000000000000001776e+00,-1.550000000000000355e+01,1.500000000000000355e+01,3.250000000000000888e+00,-1.200000000000000355e+01,1.600000000000000355e+01,-6.000000000000001776e+00,-1.000000000000000178e+01,1.250000000000000000e+00,1.725000000000000355e+01,-2.100000000000000355e+01,2.125000000000000355e+01,-1.100000000000000178e+01,-1.275000000000000355e+01,1.675000000000000355e+01,5.250000000000000888e+00,-2.475000000000000711e+01,2.075000000000000355e+01,2.750000000000000888e+00,-2.075000000000000711e+01,2.150000000000000711e+01,-7.500000000000001776e+00,-1.525000000000000355e+01,2.125000000000000711e+01,-1.500000000000000000e+00,-1.675000000000000355e+01,2.050000000000000355e+01,-1.700000000000000355e+01,1.250000000000000000e+00,1.400000000000000355e+01,-1.675000000000000355e+01,1.550000000000000355e+01,-1.550000000000000355e+01,1.100000000000000178e+01,2.000000000000000444e+00,1.750000000000000888e+00,-1.300000000000000355e+01,1.000000000000000000e+00,4.750000000000001776e+00,1.450000000000000355e+01,-2.200000000000000711e+01,1.675000000000000355e+01,-1.125000000000000355e+01,8.250000000000001776e+00,-1.175000000000000355e+01,2.250000000000000888e+00,1.400000000000000355e+01,-1.900000000000000355e+01,1.375000000000000355e+01,-7.500000000000001776e+00,3.750000000000000888e+00,4.500000000000000888e+00,4.250000000000000888e+00,-1.775000000000000355e+01,3.500000000000000888e+00,1.250000000000000355e+01,-1.000000000000000000e+00,-6.750000000000001776e+00,0.000000000000000000e+00,-5.000000000000000888e+00,-1.250000000000000888e+00,1.825000000000000355e+01,-8.250000000000000000e+00,-1.025000000000000355e+01,1.425000000000000355e+01,-1.275000000000000355e+01,9.000000000000001776e+00,-1.375000000000000355e+01,1.900000000000000355e+01,-1.875000000000000355e+01,9.250000000000001776e+00,5.250000000000000888e+00,-1.050000000000000178e+01,1.400000000000000355e+01,-5.000000000000000000e-01,-1.825000000000000355e+01,1.625000000000000355e+01,1.000000000000000888e+00,-1.800000000000000355e+01,2.325000000000000711e+01,-2.525000000000000711e+01,2.850000000000000711e+01,-2.875000000000000711e+01,2.075000000000000711e+01,-1.275000000000000355e+01,8.250000000000001776e+00,3.250000000000001332e+00,-1.400000000000000355e+01,2.125000000000000711e+01,-1.875000000000000355e+01,1.475000000000000355e+01,-1.650000000000000355e+01,5.000000000000001776e+00,1.275000000000000178e+01,-1.975000000000000355e+01,2.400000000000000711e+01,-2.075000000000000711e+01,-2.000000000000000000e+00,1.250000000000000355e+01,5.000000000000000888e+00,-1.650000000000000355e+01,-5.000000000000000000e-01,1.325000000000000355e+01,3.250000000000000888e+00,-2.275000000000000711e+01,2.975000000000000711e+01,-2.050000000000000355e+01,-4.750000000000000888e+00,1.675000000000000355e+01,-1.625000000000000355e+01,1.900000000000000355e+01,-1.775000000000000355e+01,1.775000000000000355e+01,-6.750000000000000888e+00,-1.625000000000000355e+01,1.550000000000000355e+01,1.000000000000000355e+01,-1.250000000000000355e+01,-1.300000000000000355e+01,1.900000000000000711e+01,4.000000000000000000e+00,-1.075000000000000178e+01,-8.750000000000001776e+00,1.975000000000000355e+01,-1.500000000000000355e+01,9.500000000000001776e+00,-6.500000000000001776e+00,-1.100000000000000355e+01,2.475000000000000711e+01,-1.625000000000000355e+01,1.275000000000000355e+01,-1.750000000000000355e+01,1.775000000000000355e+01,-1.675000000000000355e+01,1.250000000000000355e+01,6.750000000000000888e+00,-1.925000000000000355e+01,2.750000000000000888e+00,1.600000000000000355e+01,-2.250000000000000000e+00,-1.900000000000000355e+01,2.225000000000000711e+01,-1.825000000000000711e+01,-1.750000000000000000e+00,1.725000000000000355e+01,-6.000000000000000888e+00,-1.400000000000000355e+01,1.150000000000000178e+01,2.500000000000000000e-01,1.300000000000000355e+01,-2.875000000000000711e+01,2.375000000000000711e+01,-1.500000000000000000e+00,-1.950000000000000711e+01,9.500000000000003553e+00,1.725000000000000355e+01,-1.550000000000000355e+01,-9.250000000000001776e+00,1.800000000000000355e+01,-3.750000000000000888e+00,-1.875000000000000355e+01,2.450000000000000711e+01,-9.000000000000001776e+00,-1.175000000000000178e+01,7.750000000000000888e+00,-3.250000000000000888e+00,4.250000000000001776e+00,1.275000000000000178e+01,-1.125000000000000178e+01,-1.000000000000000178e+01,1.900000000000000355e+01,-1.900000000000000355e+01,1.350000000000000355e+01,-5.750000000000001776e+00,0.000000000000000000e+00,1.250000000000000000e+00,1.575000000000000355e+01,-2.975000000000000711e+01,3.000000000000000711e+01,-3.250000000000000711e+01,2.100000000000000355e+01,7.500000000000000888e+00,-2.200000000000000355e+01,8.500000000000000000e+00,1.475000000000000355e+01,-2.425000000000000711e+01,1.700000000000000355e+01,4.500000000000000888e+00,-2.050000000000000355e+01,2.200000000000000355e+01,-2.125000000000000355e+01,7.000000000000000888e+00,6.250000000000001776e+00,-3.750000000000000888e+00,1.600000000000000355e+01,-3.100000000000000711e+01,2.950000000000000711e+01,-1.950000000000000711e+01,3.750000000000001332e+00,-1.600000000000000355e+01,2.125000000000000355e+01,-1.750000000000000222e+00,-1.025000000000000178e+01,2.525000000000000711e+01,-2.150000000000000355e+01,-7.750000000000002665e+00,1.775000000000000355e+01,-9.250000000000001776e+00,1.300000000000000355e+01,3.000000000000000000e+00,-2.350000000000000711e+01,2.825000000000000711e+01,-2.500000000000000711e+01,2.375000000000000711e+01,-2.525000000000000711e+01,2.950000000000000711e+01,-2.975000000000000711e+01,1.275000000000000178e+01,5.000000000000001776e+00,-1.475000000000000355e+01,2.950000000000000711e+01,-3.150000000000000711e+01,6.250000000000000888e+00,2.050000000000000355e+01,-2.025000000000000355e+01,-2.750000000000000888e+00,5.250000000000001776e+00,-1.125000000000000355e+01,2.800000000000000711e+01,-3.450000000000000711e+01,1.775000000000000355e+01,1.500000000000000355e+01,-3.300000000000000711e+01,3.225000000000000711e+01,-2.200000000000000711e+01,-4.000000000000001776e+00,2.225000000000000711e+01,-2.550000000000000711e+01,2.125000000000000355e+01,4.750000000000000888e+00,-3.100000000000000711e+01,1.850000000000000355e+01,4.000000000000000888e+00,1.150000000000000355e+01,-2.200000000000000711e+01,1.350000000000000355e+01,-2.150000000000000355e+01,1.625000000000000355e+01,1.175000000000000178e+01,-1.325000000000000178e+01,-2.000000000000000444e+00,-6.000000000000000888e+00,2.075000000000000355e+01,-7.750000000000000888e+00,-1.525000000000000355e+01,1.075000000000000355e+01,1.725000000000000355e+01,-1.975000000000000355e+01,-7.250000000000000888e+00,1.800000000000000355e+01,-1.000000000000000355e+01,1.550000000000000355e+01,-1.200000000000000355e+01,-1.550000000000000355e+01,2.150000000000000711e+01,-8.250000000000001776e+00,3.000000000000000888e+00,1.150000000000000355e+01,-9.000000000000003553e+00,-7.000000000000001776e+00,4.250000000000000888e+00,6.000000000000001776e+00,-1.700000000000000355e+01,1.900000000000000355e+01,-1.375000000000000355e+01,-7.750000000000002665e+00,2.925000000000000711e+01,-3.350000000000000711e+01,3.150000000000000711e+01,-3.500000000000000711e+01,3.200000000000000711e+01,-2.650000000000000711e+01,2.300000000000000711e+01,-1.825000000000000355e+01,1.250000000000000178e+01,9.500000000000001776e+00,-2.025000000000000355e+01,-2.000000000000000000e+00,2.850000000000000711e+01,-2.250000000000000355e+01,-9.000000000000003553e+00,1.950000000000000711e+01,5.000000000000000000e+00,-2.350000000000000711e+01,5.250000000000001776e+00,1.900000000000000355e+01,-2.375000000000000711e+01,1.275000000000000355e+01,1.725000000000000355e+01,-2.800000000000000711e+01,1.650000000000000355e+01,1.500000000000000000e+00,-1.525000000000000355e+01,-3.500000000000000000e+00,1.075000000000000178e+01,7.000000000000001776e+00,5.250000000000001776e+00,-1.350000000000000355e+01,4.500000000000000888e+00,-1.800000000000000355e+01,2.800000000000000711e+01,-2.975000000000000711e+01,3.125000000000000711e+01,-2.825000000000000711e+01,1.250000000000000355e+01,1.850000000000000355e+01,-3.650000000000000711e+01,2.700000000000000711e+01,-2.025000000000000711e+01,2.300000000000000711e+01,-2.500000000000000711e+01,1.975000000000000355e+01,7.250000000000002665e+00,-2.475000000000000711e+01,2.000000000000001776e+00,2.600000000000000711e+01,-3.625000000000000711e+01,3.025000000000000711e+01,-7.500000000000000000e-01,-9.500000000000001776e+00,-6.500000000000001776e+00,-4.500000000000000000e+00,1.475000000000000355e+01,1.425000000000000355e+01,-3.925000000000000711e+01,3.900000000000000711e+01,-3.175000000000000711e+01,9.750000000000003553e+00,2.275000000000000355e+01,-3.200000000000000711e+01,1.900000000000000355e+01,-1.500000000000000000e+00,-1.250000000000000355e+01,-5.000000000000001776e+00,2.225000000000000711e+01,-2.025000000000000355e+01,1.925000000000000355e+01,4.500000000000001776e+00,-2.675000000000000711e+01,2.350000000000000711e+01,-2.450000000000000711e+01,2.850000000000000711e+01,-2.475000000000000711e+01,1.950000000000000711e+01,-1.425000000000000355e+01,2.250000000000000888e+00,-1.200000000000000355e+01,3.650000000000000711e+01,-3.325000000000000711e+01,2.750000000000000711e+01,-1.625000000000000355e+01,-9.250000000000001776e+00,4.750000000000000000e+00,2.225000000000000711e+01,-1.800000000000000355e+01,2.475000000000000355e+01,-2.850000000000000711e+01,1.175000000000000355e+01,-5.000000000000000888e+00,-2.000000000000000355e+01,2.975000000000000711e+01,-3.000000000000000000e+00,-2.250000000000000711e+01,2.175000000000000711e+01,5.750000000000001776e+00,-2.475000000000000711e+01,3.000000000000001776e+00,2.400000000000000711e+01,-2.750000000000000711e+01,6.000000000000001776e+00,1.925000000000000711e+01,-3.000000000000001776e+00,-2.475000000000000711e+01,2.300000000000000711e+01,-6.000000000000001776e+00,9.250000000000001776e+00,8.250000000000001776e+00,-3.575000000000000711e+01,2.925000000000000711e+01,-2.350000000000000711e+01,7.000000000000000888e+00,1.525000000000000355e+01,-3.650000000000000711e+01,3.400000000000000711e+01,1.500000000000000000e+00,-3.350000000000000711e+01,3.425000000000000711e+01,-2.750000000000000000e+00,-2.675000000000000711e+01,2.275000000000000355e+01,2.500000000000000888e+00,-4.000000000000000888e+00,-2.175000000000000355e+01,2.200000000000000355e+01,-2.500000000000000000e-01,1.550000000000000355e+01,-2.825000000000000711e+01,8.250000000000001776e+00,5.500000000000001776e+00,-8.250000000000001776e+00,1.750000000000000444e+00,1.900000000000000355e+01,-2.875000000000000711e+01,3.000000000000001776e+00,1.775000000000000355e+01,1.750000000000000000e+00,-3.000000000000000711e+01,2.225000000000000355e+01,1.025000000000000355e+01,-1.825000000000000355e+01,9.000000000000001776e+00,-1.325000000000000355e+01,2.200000000000000711e+01,-2.325000000000000711e+01,2.225000000000000355e+01,-2.325000000000000711e+01,5.000000000000001776e+00,2.400000000000000711e+01,-1.575000000000000355e+01,-1.825000000000000355e+01,2.850000000000000711e+01,-6.500000000000000888e+00,-1.550000000000000355e+01,2.275000000000000711e+01,-2.675000000000000711e+01,1.675000000000000355e+01,1.500000000000000444e+00,9.500000000000003553e+00,-2.375000000000000711e+01,9.250000000000001776e+00,9.000000000000001776e+00,5.250000000000001776e+00,-1.675000000000000355e+01,1.050000000000000355e+01,-1.325000000000000355e+01,-6.500000000000001776e+00,3.250000000000000711e+01,-2.200000000000000355e+01,-5.000000000000004441e-01,-1.250000000000000355e+01,1.475000000000000355e+01,1.075000000000000178e+01,-2.500000000000000000e-01,-1.650000000000000355e+01,-6.000000000000001776e+00,3.200000000000000711e+01,-3.950000000000000711e+01,2.525000000000000355e+01,6.250000000000000888e+00,-2.175000000000000355e+01,1.750000000000000000e+00,1.700000000000000355e+01,3.000000000000000000e+00,-2.200000000000000355e+01,1.825000000000000355e+01,-2.250000000000000711e+01,3.075000000000000711e+01,-3.150000000000000711e+01,2.300000000000000711e+01,4.750000000000001776e+00,-2.300000000000000711e+01,2.025000000000000355e+01,-2.150000000000000711e+01,7.000000000000002665e+00,1.525000000000000355e+01,-9.250000000000001776e+00,-1.025000000000000178e+01,2.225000000000000711e+01,-2.050000000000000711e+01,2.250000000000000711e+01,-2.925000000000000711e+01,2.700000000000000711e+01,-1.725000000000000355e+01,8.000000000000001776e+00,-1.500000000000000355e+01,1.625000000000000355e+01,-6.250000000000001776e+00,1.650000000000000355e+01,-2.150000000000000711e+01,-6.000000000000001776e+00,2.250000000000000711e+01,-8.000000000000001776e+00,-1.700000000000000355e+01,2.575000000000000711e+01,-1.875000000000000355e+01,2.500000000000000000e-01,1.325000000000000355e+01,-7.000000000000001776e+00,1.475000000000000355e+01,-1.250000000000000355e+01,-1.100000000000000178e+01,2.100000000000000355e+01,-2.350000000000000711e+01,1.725000000000000355e+01,-1.750000000000000444e+00,6.750000000000001776e+00,-1.125000000000000178e+01,-9.250000000000001776e+00,2.300000000000000355e+01,-1.400000000000000178e+01,1.525000000000000355e+01,-1.575000000000000355e+01,-1.275000000000000355e+01,2.000000000000000355e+01,5.750000000000000888e+00,-2.500000000000000000e-01,-2.400000000000000711e+01,1.100000000000000355e+01,2.125000000000000355e+01,-1.900000000000000355e+01,-1.100000000000000178e+01,1.050000000000000178e+01,1.625000000000000355e+01,-2.875000000000000711e+01,3.250000000000000711e+01,-3.150000000000000711e+01,8.250000000000003553e+00,2.050000000000000355e+01,-1.700000000000000355e+01,-2.000000000000000888e+00,8.500000000000001776e+00,-1.500000000000000355e+01,1.525000000000000355e+01,-4.000000000000000000e+00,-1.850000000000000355e+01,3.125000000000000711e+01,-2.975000000000000711e+01,1.975000000000000355e+01,6.250000000000000888e+00,-2.325000000000000711e+01,7.000000000000002665e+00,1.875000000000000355e+01,-2.275000000000000711e+01,5.500000000000000888e+00,1.800000000000000355e+01,-2.875000000000000711e+01,2.925000000000000711e+01,-1.375000000000000355e+01,-5.250000000000000888e+00,-6.000000000000000888e+00,1.900000000000000355e+01,-1.650000000000000355e+01,2.100000000000000711e+01,-2.350000000000000711e+01,9.750000000000001776e+00,1.150000000000000178e+01,-1.950000000000000355e+01,1.900000000000000355e+01,-1.750000000000000355e+01,6.500000000000001776e+00,1.150000000000000178e+01,-1.525000000000000355e+01,6.500000000000001776e+00,5.000000000000000000e-01,-6.000000000000001776e+00,-8.750000000000003553e+00,2.750000000000000711e+01,-2.800000000000000711e+01,2.200000000000000711e+01,-1.050000000000000178e+01,-1.300000000000000355e+01,2.950000000000000711e+01,-2.475000000000000711e+01,2.750000000000000000e+00,1.900000000000000711e+01,-2.725000000000000711e+01,2.775000000000000711e+01,-2.725000000000000711e+01,1.550000000000000355e+01,-1.050000000000000178e+01,2.300000000000000711e+01,-2.075000000000000711e+01,-3.000000000000000000e+00,8.750000000000001776e+00,3.250000000000000888e+00,-7.500000000000002220e-01,-4.750000000000000888e+00,1.750000000000000355e+01,-2.000000000000000711e+01,-2.500000000000000000e+00,1.400000000000000355e+01,-4.500000000000000888e+00,-6.250000000000000888e+00,1.550000000000000355e+01,-7.500000000000001776e+00,-1.700000000000000355e+01,2.575000000000000711e+01,-2.175000000000000355e+01,2.125000000000000355e+01,-1.850000000000000355e+01,1.400000000000000355e+01,-1.525000000000000355e+01,2.250000000000000000e+00,1.900000000000000711e+01,-1.075000000000000355e+01,-1.100000000000000178e+01,1.950000000000000355e+01,-1.675000000000000355e+01,-1.000000000000000000e+00,1.725000000000000355e+01,-6.250000000000000888e+00,-1.425000000000000355e+01,2.125000000000000355e+01,-1.275000000000000178e+01,7.750000000000001776e+00,-1.775000000000000355e+01,1.250000000000000355e+01,3.250000000000000888e+00,-8.000000000000001776e+00,1.350000000000000355e+01,-1.250000000000000355e+01,1.500000000000000355e+01,-2.500000000000000711e+01,2.050000000000000711e+01,1.750000000000000000e+00,-1.725000000000000355e+01,1.175000000000000355e+01,5.250000000000000888e+00,-1.875000000000000355e+01,7.750000000000001776e+00,1.725000000000000355e+01,-2.525000000000000711e+01,9.500000000000001776e+00,1.525000000000000355e+01,-2.150000000000000711e+01,1.500000000000000000e+00,1.150000000000000355e+01,-5.750000000000000888e+00,1.075000000000000178e+01,-1.975000000000000355e+01,1.100000000000000178e+01,8.000000000000001776e+00,-2.100000000000000355e+01,1.050000000000000178e+01,1.075000000000000178e+01,-9.500000000000001776e+00,-9.750000000000001776e+00,1.500000000000000355e+01,-5.000000000000000888e+00,1.100000000000000178e+01,-1.025000000000000178e+01,-2.750000000000000888e+00,-9.750000000000001776e+00,2.275000000000000355e+01,-8.750000000000000000e+00,-6.750000000000001776e+00,8.500000000000001776e+00,-1.325000000000000355e+01,1.125000000000000178e+01,5.500000000000001776e+00,-3.000000000000000888e+00,-8.500000000000001776e+00,-5.750000000000000888e+00,1.075000000000000178e+01,6.250000000000001776e+00,-1.375000000000000355e+01,1.025000000000000178e+01,-2.750000000000000444e+00,8.000000000000001776e+00,-8.500000000000001776e+00,-9.500000000000001776e+00,5.500000000000001776e+00,1.450000000000000178e+01,-2.050000000000000355e+01,1.725000000000000355e+01,-7.750000000000001776e+00,2.750000000000000888e+00,-1.575000000000000355e+01,1.925000000000000711e+01,-1.350000000000000355e+01,1.600000000000000355e+01,-1.600000000000000355e+01,1.350000000000000355e+01,-1.500000000000000888e+00,-1.675000000000000355e+01,9.000000000000001776e+00,1.550000000000000355e+01,-2.025000000000000711e+01,2.000000000000000888e+00,1.400000000000000355e+01,-9.250000000000001776e+00,-7.000000000000001776e+00,1.300000000000000355e+01,-1.375000000000000355e+01,1.650000000000000355e+01,-1.650000000000000355e+01,2.000000000000000711e+01,-2.525000000000000711e+01,1.950000000000000711e+01,-3.250000000000000888e+00,-5.000000000000001776e+00,-2.000000000000000444e+00,1.250000000000000444e+00,9.500000000000001776e+00,-1.225000000000000355e+01,1.450000000000000355e+01,-5.250000000000000888e+00,-1.575000000000000355e+01,2.200000000000000711e+01,-2.100000000000000355e+01,2.500000000000000711e+01,-2.000000000000000711e+01,1.150000000000000355e+01,-1.825000000000000355e+01,1.875000000000000711e+01,3.000000000000000000e+00,-8.500000000000001776e+00,-9.500000000000001776e+00,1.600000000000000355e+01,-1.075000000000000355e+01,5.000000000000000888e+00,1.250000000000000222e+00,-1.200000000000000178e+01,2.225000000000000711e+01,-1.525000000000000355e+01,5.000000000000000000e-01,5.000000000000001776e+00,-1.575000000000000355e+01,1.725000000000000355e+01,4.250000000000000888e+00,-2.175000000000000711e+01,1.275000000000000355e+01,9.500000000000001776e+00,-9.500000000000001776e+00,-4.750000000000000888e+00,7.750000000000001776e+00,7.500000000000004441e-01,-6.750000000000001776e+00,-6.750000000000000888e+00,2.500000000000000711e+01,-2.850000000000000711e+01,2.175000000000000711e+01,-3.750000000000000888e+00,-1.350000000000000355e+01,2.075000000000000355e+01,-1.750000000000000355e+01,-1.000000000000000888e+00,1.925000000000000711e+01,-2.250000000000000711e+01,2.200000000000000711e+01,-1.125000000000000355e+01,-1.175000000000000178e+01,1.750000000000000355e+01,-1.125000000000000355e+01,1.725000000000000355e+01,-2.400000000000000711e+01,2.050000000000000355e+01,-3.250000000000000888e+00,-1.825000000000000355e+01,1.125000000000000355e+01,1.200000000000000178e+01,-2.175000000000000355e+01,1.825000000000000355e+01,-1.250000000000000000e+00,-1.075000000000000355e+01,1.150000000000000355e+01,-1.875000000000000711e+01,1.325000000000000355e+01,6.000000000000001776e+00,-1.800000000000000355e+01,9.750000000000001776e+00,1.400000000000000355e+01,-2.150000000000000711e+01,1.600000000000000355e+01,-2.325000000000000711e+01,2.775000000000000711e+01,-2.675000000000000711e+01,1.925000000000000355e+01,-3.500000000000000888e+00,-7.250000000000001776e+00,1.625000000000000355e+01,-6.500000000000000888e+00,-1.675000000000000355e+01,9.000000000000003553e+00,1.300000000000000355e+01,-5.750000000000000888e+00,-1.425000000000000355e+01,2.375000000000000711e+01,-2.600000000000000711e+01,1.450000000000000355e+01,1.300000000000000355e+01,-2.400000000000000711e+01,2.250000000000000711e+01,-1.875000000000000711e+01,6.750000000000001776e+00,1.675000000000000355e+01,-2.100000000000000355e+01,6.500000000000001776e+00,-1.750000000000000222e+00,1.100000000000000355e+01,-2.225000000000000711e+01,1.775000000000000355e+01,-8.500000000000001776e+00,1.325000000000000355e+01,-1.125000000000000355e+01,1.525000000000000355e+01,-9.750000000000001776e+00,-1.200000000000000355e+01,7.750000000000001776e+00,1.150000000000000355e+01,9.250000000000000000e+00,-2.900000000000000711e+01,2.225000000000000711e+01,-1.650000000000000355e+01,5.000000000000001110e-01,-2.500000000000000555e-01,0.000000000000000000e+00,0.000000000000000000e+00,0.000000000000000000e+00,0.000000000000000000e+00,-2.500000000000000555e-01,5.000000000000001110e-01,-2.500000000000000555e-01,0.000000000000000000e+00,0.000000000000000000e+00,2.500000000000000555e-01,-5.000000000000001110e-01,2.500000000000000555e-01,2.500000000000000555e-01,-5.000000000000001110e-01,2.500000000000000555e-01,0.000000000000000000e+00,0.000000000000000000e+00,0.000000000000000000e+00,0.000000000000000000e+00,2.500000000000000555e-01,-5.000000000000001110e-01,2.500000000000000555e-01,0.000000000000000000e+00,2.500000000000000555e-01,-2.500000000000000555e-01,-2.500000000000000555e-01,5.000000000000001110e-01,-7.500000000000002220e-01,7.500000000000002220e-01,-2.500000000000000555e-01,0.000000000000000000e+00,2.500000000000000555e-01,-5.000000000000001110e-01,2.500000000000000555e-01,0.000000000000000000e+00,2.500000000000000555e-01,-5.000000000000001110e-01,2.500000000000000555e-01,0.000000000000000000e+00,2.500000000000000555e-01,-5.000000000000001110e-01,2.500000000000000555e-01,0.000000000000000000e+00,2.500000000000000555e-01,-5.000000000000001110e-01,5.000000000000001110e-01,-7.500000000000002220e-01,7.500000000000002220e-01,-2.500000000000000555e-01,0.000000000000000000e+00,0.000000000000000000e+00,2.500000000000000555e-01,-5.000000000000001110e-01,-1.000000000000000178e+01,-5.750000000000001776e+00,1.350000000000000355e+01,1.000000000000000000e+00,-7.000000000000001776e+00,-3.750000000000001776e+00,7.500000000000002665e+00,-5.500000000000000888e+00,1.150000000000000178e+01,2.250000000000000888e+00,-1.350000000000000355e+01,6.500000000000000888e+00,-1.000000000000000355e+01,1.750000000000000355e+01,-4.500000000000000888e+00,-9.250000000000001776e+00,7.750000000000001776e+00,-2.250000000000000444e+00,-1.000000000000000000e+00,-4.000000000000000888e+00,1.275000000000000355e+01,-2.175000000000000355e+01,2.125000000000000355e+01,-1.825000000000000355e+01,1.825000000000000355e+01,-3.000000000000000888e+00,-9.000000000000001776e+00,8.250000000000001776e+00,-9.500000000000001776e+00,1.500000000000000355e+01,-1.500000000000000355e+01,1.400000000000000355e+01,5.000000000000000000e-01,-1.475000000000000355e+01,1.550000000000000355e+01,-1.475000000000000355e+01,9.250000000000001776e+00,8.750000000000001776e+00,-1.425000000000000355e+01,-5.250000000000000000e+00,4.500000000000000000e+00,-2.000000000000000000e+00,1.475000000000000355e+01,-3.000000000000000888e+00
